SpectraSuite Data File
++++++++++++++++++++++++++++++++++++
Date: Thu May 14 16:28:41 PDT 2015
User: schluterlab
Dark Spectrum Present: Yes
Reference Spectrum Present: Yes
Number of Sampled Component Spectra: 1
Spectrometers: USB2E3373
Integration Time (usec): 3000 (USB2E3373)
Spectra Averaged: 3 (USB2E3373)
Boxcar Smoothing: 0 (USB2E3373)
Correct for Electrical Dark: No (USB2E3373)
Strobe/Lamp Enabled: No (USB2E3373)
Correct for Detector Non-linearity: No (USB2E3373)
Correct for Stray Light: No (USB2E3373)
Number of Pixels in Processed Spectrum: 2048
>>>>>Begin Processed Spectral Data<<<<<
178.53	0.000
178.91	28.571
179.29	-800.000
179.67	-600.000
180.04	142.857
180.42	10.000
180.80	140.000
181.18	-300.000
181.56	500.000
181.94	-100.000
182.31	-75.000
182.69	-33.333
183.07	300.000
183.45	200.000
183.83	16.667
184.20	233.333
184.58	300.000
184.96	125.000
185.34	0.000
185.72	160.000
186.09	166.667
186.47	150.000
186.85	140.000
187.23	-88.889
187.61	600.000
187.98	60.000
188.36	250.000
188.74	150.000
189.12	233.333
189.49	0.000
189.87	-100.000
190.25	133.333
190.63	160.000
191.00	-188.889
191.38	0.000
191.76	-200.000
192.14	33.333
192.51	100.000
192.89	66.667
193.27	0.000
193.65	-57.143
194.02	-1200.000
194.40	-28.571
194.78	85.714
195.15	0.000
195.53	81.818
195.91	0.000
196.29	200.000
196.66	-15.385
197.04	-900.000
197.42	-14.286
197.79	-400.000
198.17	37.500
198.55	-14.286
198.92	66.667
199.30	25.000
199.68	72.727
200.05	0.000
200.43	-600.000
200.81	171.429
201.18	0.000
201.56	122.222
201.94	0.000
202.31	-33.333
202.69	-88.889
203.07	-300.000
203.44	-33.333
203.82	-25.000
204.19	66.667
204.57	0.000
204.95	-37.500
205.32	800.000
205.70	100.000
206.08	33.333
206.45	-33.333
206.83	180.000
207.20	66.667
207.58	-60.000
207.96	-133.333
208.33	250.000
208.71	-16.667
209.08	100.000
209.46	0.000
209.84	83.333
210.21	-100.000
210.59	350.000
210.96	100.000
211.34	25.000
211.71	-37.500
212.09	400.000
212.46	0.000
212.84	1000.000
213.22	-80.000
213.59	0.000
213.97	60.000
214.34	133.333
214.72	150.000
215.09	-175.000
215.47	0.000
215.84	85.714
216.22	350.000
216.59	20.000
216.97	160.000
217.34	25.000
217.72	125.000
218.09	-100.000
218.47	-150.000
218.84	0.000
219.22	-20.000
219.59	5.882
219.97	35.000
220.34	300.000
220.72	-77.778
221.09	-7.692
221.47	-333.333
221.84	-80.000
222.22	28.571
222.59	0.000
222.97	-37.500
223.34	-200.000
223.72	-500.000
224.09	25.000
224.46	-75.000
224.84	320.000
225.21	-28.571
225.59	-200.000
225.96	-200.000
226.34	34.615
226.71	216.667
227.08	100.000
227.46	20.000
227.83	-175.000
228.21	63.158
228.58	50.000
228.95	550.000
229.33	33.333
229.70	-30.000
230.08	63.158
230.45	50.000
230.82	0.000
231.20	21.429
231.57	58.333
231.95	9.091
232.32	-18.182
232.69	20.000
233.07	25.000
233.44	0.000
233.81	40.000
234.19	27.778
234.56	0.000
234.93	41.379
235.31	78.947
235.68	-27.778
236.05	-5.000
236.43	57.692
236.80	20.000
237.17	11.111
237.55	27.273
237.92	50.000
238.29	3.226
238.67	36.364
239.04	13.889
239.41	26.190
239.79	15.217
240.16	14.815
240.53	30.435
240.91	-1.961
241.28	11.475
241.65	26.866
242.02	24.324
242.40	4.615
242.77	30.667
243.14	13.415
243.51	9.211
243.89	19.231
244.26	19.802
244.63	27.451
245.00	31.776
245.38	22.807
245.75	7.080
246.12	27.778
246.49	16.279
246.87	24.286
247.24	27.152
247.61	19.079
247.98	22.148
248.36	19.753
248.73	22.086
249.10	18.033
249.47	28.358
249.84	26.178
250.22	25.907
250.59	26.667
250.96	24.091
251.33	21.429
251.70	27.350
252.08	29.167
252.45	21.311
252.82	22.727
253.19	20.313
253.56	22.814
253.94	21.538
254.31	20.076
254.68	24.476
255.05	26.384
255.42	20.408
255.79	22.654
256.16	24.172
256.54	22.848
256.91	27.541
257.28	22.295
257.65	21.656
258.02	21.534
258.39	25.356
258.76	25.076
259.14	27.011
259.51	23.055
259.88	22.946
260.25	22.500
260.62	23.288
260.99	28.142
261.36	26.005
261.73	25.995
262.10	24.725
262.47	24.397
262.85	27.778
263.22	23.117
263.59	18.947
263.96	25.831
264.33	25.831
264.70	23.704
265.07	26.492
265.44	27.664
265.81	23.843
266.18	24.943
266.55	25.670
266.92	24.146
267.29	23.851
267.66	23.503
268.03	25.546
268.40	23.800
268.77	25.057
269.14	22.467
269.51	23.904
269.88	24.590
270.25	23.742
270.62	22.574
270.99	25.657
271.36	23.366
271.73	23.576
272.10	24.048
272.47	23.246
272.84	23.293
273.21	25.050
273.58	22.782
273.95	21.346
274.32	23.194
274.69	23.211
275.06	23.993
275.43	21.072
275.80	23.457
276.17	22.222
276.54	23.321
276.91	23.077
277.28	23.870
277.65	25.494
278.02	27.941
278.39	24.457
278.76	22.847
279.13	24.645
279.50	22.509
279.87	21.825
280.23	20.423
280.60	22.373
280.97	23.849
281.34	22.581
281.71	26.058
282.08	22.757
282.45	21.604
282.82	22.449
283.19	21.809
283.56	22.623
283.92	22.673
284.29	22.275
284.66	24.795
285.03	20.673
285.40	21.793
285.77	23.529
286.14	23.969
286.51	22.679
286.87	24.013
287.24	23.494
287.61	21.375
287.98	20.242
288.35	22.189
288.72	22.337
289.08	21.230
289.45	19.675
289.82	21.235
290.19	21.552
290.56	21.127
290.93	21.255
291.29	20.110
291.66	20.110
292.03	19.674
292.40	20.952
292.77	20.755
293.13	19.892
293.50	16.032
293.87	18.255
294.24	19.200
294.60	18.837
294.97	18.523
295.34	21.767
295.71	18.159
296.08	17.700
296.44	18.260
296.81	18.879
297.18	17.808
297.55	17.689
297.91	18.268
298.28	16.232
298.65	17.598
299.02	18.654
299.38	16.590
299.75	16.238
300.12	15.625
300.48	18.318
300.85	17.098
301.22	17.785
301.59	16.667
301.95	16.384
302.32	17.333
302.69	17.525
303.05	17.193
303.42	17.517
303.79	16.250
304.15	17.981
304.52	17.230
304.89	17.277
305.25	15.942
305.62	17.241
305.99	17.113
306.35	16.935
306.72	16.649
307.09	15.228
307.45	15.631
307.82	16.751
308.19	15.338
308.55	16.876
308.92	16.066
309.29	15.900
309.65	16.374
310.02	15.446
310.38	16.043
310.75	16.602
311.12	16.779
311.48	15.738
311.85	15.575
312.22	15.085
312.58	14.836
312.95	15.966
313.31	16.350
313.68	15.659
314.05	16.350
314.41	15.938
314.78	15.985
315.14	16.334
315.51	16.436
315.87	16.832
316.24	17.534
316.61	16.252
316.97	15.385
317.34	16.578
317.70	16.681
318.07	15.079
318.43	16.497
318.80	17.893
319.16	15.365
319.53	14.567
319.89	14.461
320.26	15.391
320.62	16.135
320.99	15.512
321.35	15.065
321.72	17.302
322.08	15.960
322.45	16.170
322.81	15.433
323.18	15.752
323.54	15.259
323.91	16.548
324.27	16.179
324.64	16.037
325.00	14.925
325.37	15.561
325.73	16.446
326.10	17.356
326.46	17.020
326.83	15.853
327.19	16.614
327.56	15.336
327.92	16.129
328.29	16.048
328.65	14.489
329.01	16.751
329.38	15.670
329.74	15.668
330.11	16.524
330.47	16.512
330.84	15.418
331.20	16.500
331.56	15.251
331.93	16.904
332.29	16.271
332.66	16.030
333.02	15.578
333.38	15.101
333.75	15.404
334.11	16.180
334.48	16.089
334.84	17.332
335.20	15.281
335.57	16.610
335.93	17.025
336.29	14.476
336.66	14.045
337.02	16.472
337.38	15.816
337.75	16.281
338.11	17.241
338.47	15.715
338.84	15.482
339.20	15.080
339.56	15.568
339.93	16.010
340.29	15.700
340.65	14.599
341.02	15.323
341.38	15.845
341.74	15.012
342.11	16.171
342.47	14.456
342.83	16.184
343.20	16.271
343.56	14.916
343.92	15.532
344.28	15.156
344.65	14.729
345.01	15.991
345.37	15.241
345.73	15.121
346.10	15.523
346.46	15.348
346.82	15.655
347.19	16.272
347.55	15.402
347.91	15.305
348.27	14.795
348.63	15.461
349.00	15.213
349.36	15.093
349.72	15.253
350.08	15.527
350.45	14.373
350.81	15.234
351.17	15.038
351.53	14.860
351.89	15.110
352.26	14.776
352.62	15.522
352.98	16.412
353.34	14.638
353.70	14.022
354.07	15.276
354.43	14.882
354.79	14.510
355.15	14.717
355.51	15.424
355.87	14.510
356.24	14.753
356.60	14.486
356.96	14.603
357.32	14.870
357.68	13.982
358.04	13.548
358.40	14.701
358.77	15.205
359.13	14.328
359.49	13.086
359.85	14.286
360.21	15.208
360.57	14.286
360.93	15.162
361.29	15.018
361.66	15.134
362.02	14.475
362.38	13.352
362.74	14.385
363.10	15.268
363.46	14.404
363.82	14.134
364.18	14.989
364.54	14.799
364.90	14.181
365.26	14.621
365.62	15.000
365.98	14.295
366.35	14.497
366.71	14.354
367.07	14.276
367.43	14.314
367.79	15.395
368.15	14.448
368.51	14.208
368.87	13.717
369.23	14.133
369.59	14.617
369.95	14.672
370.31	14.652
370.67	14.030
371.03	13.712
371.39	13.029
371.75	14.512
372.11	13.889
372.47	14.489
372.83	14.398
373.19	14.143
373.55	13.821
373.91	13.633
374.27	14.230
374.63	14.547
374.99	12.997
375.35	14.091
375.71	14.323
376.07	13.170
376.42	13.980
376.78	14.295
377.14	13.537
377.50	13.789
377.86	14.717
378.22	14.431
378.58	13.377
378.94	13.556
379.30	13.415
379.66	13.169
380.02	14.195
380.38	13.710
380.74	14.085
381.09	13.647
381.45	13.693
381.81	14.520
382.17	13.302
382.53	12.865
382.89	13.262
383.25	13.775
383.61	13.021
383.97	13.840
384.32	13.517
384.68	12.529
385.04	14.054
385.40	14.025
385.76	14.537
386.12	13.764
386.48	13.588
386.83	13.409
387.19	13.384
387.55	13.850
387.91	13.870
388.27	14.030
388.62	13.288
388.98	13.818
389.34	14.143
389.70	13.887
390.06	13.262
390.42	13.133
390.77	13.666
391.13	13.850
391.49	13.708
391.85	13.091
392.20	13.167
392.56	14.176
392.92	13.959
393.28	13.765
393.64	13.687
393.99	13.771
394.35	13.668
394.71	13.892
395.07	12.754
395.42	14.106
395.78	13.650
396.14	13.725
396.50	13.658
396.85	13.953
397.21	13.254
397.57	13.604
397.92	12.944
398.28	12.982
398.64	13.844
399.00	12.670
399.35	13.822
399.71	13.478
400.07	13.588
400.42	12.689
400.78	12.963
401.14	13.318
401.49	13.246
401.85	13.256
402.21	13.441
402.57	14.261
402.92	13.475
403.28	13.407
403.63	12.053
403.99	13.895
404.35	13.587
404.70	13.994
405.06	13.207
405.42	13.173
405.77	14.068
406.13	13.560
406.49	13.007
406.84	13.463
407.20	13.136
407.55	12.598
407.91	13.388
408.27	13.192
408.62	13.962
408.98	13.755
409.34	12.493
409.69	14.153
410.05	13.892
410.40	13.631
410.76	12.956
411.11	13.676
411.47	13.698
411.83	13.580
412.18	13.012
412.54	13.989
412.89	12.573
413.25	13.318
413.60	13.153
413.96	13.462
414.31	13.201
414.67	13.536
415.03	13.354
415.38	13.430
415.74	13.439
416.09	13.880
416.45	12.774
416.80	13.831
417.16	13.665
417.51	13.200
417.87	12.998
418.22	13.832
418.58	13.135
418.93	13.795
419.29	12.885
419.64	12.365
420.00	12.700
420.35	12.858
420.71	13.326
421.06	12.478
421.42	13.532
421.77	12.924
422.12	12.949
422.48	12.750
422.83	13.527
423.19	13.050
423.54	12.777
423.90	13.142
424.25	13.440
424.61	13.433
424.96	13.564
425.31	13.907
425.67	12.882
426.02	13.005
426.38	13.261
426.73	13.281
427.09	14.360
427.44	12.616
427.79	12.825
428.15	12.614
428.50	12.584
428.85	13.146
429.21	13.670
429.56	12.685
429.92	13.563
430.27	12.723
430.62	13.532
430.98	12.100
431.33	12.414
431.68	12.596
432.04	13.154
432.39	13.069
432.74	13.470
433.10	13.196
433.45	12.096
433.80	13.358
434.16	13.791
434.51	13.772
434.86	13.681
435.22	13.709
435.57	12.913
435.92	13.801
436.28	13.595
436.63	13.435
436.98	13.741
437.34	13.360
437.69	13.043
438.04	12.745
438.39	12.751
438.75	12.618
439.10	13.161
439.45	12.409
439.81	12.938
440.16	13.244
440.51	13.545
440.86	12.840
441.22	12.808
441.57	13.312
441.92	13.337
442.27	13.434
442.63	13.164
442.98	13.767
443.33	12.835
443.68	13.181
444.03	13.405
444.39	13.361
444.74	13.629
445.09	12.924
445.44	12.908
445.79	13.697
446.15	13.001
446.50	13.178
446.85	13.765
447.20	12.669
447.55	13.075
447.91	12.094
448.26	13.266
448.61	12.646
448.96	13.573
449.31	12.778
449.66	12.908
450.02	13.238
450.37	13.639
450.72	13.079
451.07	13.269
451.42	13.345
451.77	12.785
452.12	12.415
452.47	12.537
452.83	12.669
453.18	12.901
453.53	12.579
453.88	12.645
454.23	12.825
454.58	13.465
454.93	12.803
455.28	12.824
455.63	12.962
455.98	13.184
456.34	12.721
456.69	13.286
457.04	12.884
457.39	13.692
457.74	13.311
458.09	13.125
458.44	14.170
458.79	12.996
459.14	13.214
459.49	13.413
459.84	12.749
460.19	13.159
460.54	13.856
460.89	12.811
461.24	12.644
461.59	13.060
461.94	12.493
462.29	13.326
462.64	12.613
462.99	12.994
463.34	13.368
463.69	13.072
464.04	13.730
464.39	13.509
464.74	12.885
465.09	12.918
465.44	12.339
465.79	13.379
466.14	12.976
466.49	13.211
466.84	12.562
467.19	13.584
467.54	13.043
467.89	13.046
468.24	12.798
468.59	12.044
468.94	12.179
469.29	12.418
469.64	12.206
469.99	12.747
470.34	12.562
470.68	13.055
471.03	13.491
471.38	12.426
471.73	12.744
472.08	12.817
472.43	12.523
472.78	13.161
473.13	13.085
473.48	12.749
473.83	13.117
474.17	13.306
474.52	12.688
474.87	13.621
475.22	12.901
475.57	13.084
475.92	13.091
476.27	12.567
476.61	13.396
476.96	12.774
477.31	13.119
477.66	13.064
478.01	12.557
478.36	12.961
478.70	12.709
479.05	12.730
479.40	13.031
479.75	13.208
480.10	13.216
480.45	13.674
480.79	13.424
481.14	12.638
481.49	13.085
481.84	13.577
482.19	12.516
482.53	13.205
482.88	12.982
483.23	13.250
483.58	12.838
483.92	12.234
484.27	12.447
484.62	12.087
484.97	13.453
485.31	12.355
485.66	12.044
486.01	12.890
486.36	13.302
486.70	13.471
487.05	13.292
487.40	13.165
487.75	13.028
488.09	12.651
488.44	12.392
488.79	12.546
489.13	12.527
489.48	12.350
489.83	11.952
490.17	11.827
490.52	12.767
490.87	12.267
491.22	12.218
491.56	12.628
491.91	12.778
492.26	12.592
492.60	12.637
492.95	12.813
493.30	12.326
493.64	13.009
493.99	12.018
494.34	12.369
494.68	12.034
495.03	13.084
495.37	12.517
495.72	12.517
496.07	12.664
496.41	12.656
496.76	13.178
497.11	12.527
497.45	12.171
497.80	12.750
498.14	12.834
498.49	12.960
498.84	12.477
499.18	12.281
499.53	12.870
499.87	12.703
500.22	12.511
500.56	12.326
500.91	12.815
501.26	12.182
501.60	12.461
501.95	12.809
502.29	12.198
502.64	12.505
502.98	12.726
503.33	12.786
503.67	12.298
504.02	12.259
504.36	12.779
504.71	12.954
505.06	13.142
505.40	12.843
505.75	12.295
506.09	11.971
506.44	12.396
506.78	12.798
507.13	12.033
507.47	12.695
507.82	12.074
508.16	12.237
508.51	12.002
508.85	12.990
509.19	12.459
509.54	12.920
509.88	12.142
510.23	12.967
510.57	13.098
510.92	12.192
511.26	11.785
511.61	11.589
511.95	12.982
512.30	12.605
512.64	12.194
512.98	12.406
513.33	12.550
513.67	13.055
514.02	12.213
514.36	11.969
514.70	12.083
515.05	12.669
515.39	12.231
515.74	13.043
516.08	12.837
516.42	12.507
516.77	12.776
517.11	12.120
517.46	12.619
517.80	12.667
518.14	13.112
518.49	12.581
518.83	11.815
519.17	12.062
519.52	12.159
519.86	12.144
520.20	12.141
520.55	12.212
520.89	11.655
521.23	11.893
521.58	12.260
521.92	12.691
522.26	11.627
522.61	12.326
522.95	12.341
523.29	12.471
523.64	12.220
523.98	12.835
524.32	12.493
524.66	11.725
525.01	12.571
525.35	12.119
525.69	12.123
526.04	11.998
526.38	11.667
526.72	12.514
527.06	11.848
527.41	12.770
527.75	12.055
528.09	11.806
528.43	12.197
528.78	11.850
529.12	12.385
529.46	12.254
529.80	11.785
530.15	12.116
530.49	12.337
530.83	12.338
531.17	11.051
531.51	11.432
531.86	12.620
532.20	12.195
532.54	12.029
532.88	12.364
533.22	11.903
533.57	12.175
533.91	12.626
534.25	12.210
534.59	12.011
534.93	12.394
535.27	12.169
535.62	12.848
535.96	12.667
536.30	12.045
536.64	12.372
536.98	12.423
537.32	12.407
537.66	12.477
538.01	12.810
538.35	12.119
538.69	11.959
539.03	12.569
539.37	12.426
539.71	12.192
540.05	12.470
540.39	12.286
540.73	12.143
541.07	12.876
541.42	12.522
541.76	12.752
542.10	12.425
542.44	11.754
542.78	11.983
543.12	11.621
543.46	12.027
543.80	11.930
544.14	11.849
544.48	12.175
544.82	13.465
545.16	12.224
545.50	11.803
545.84	12.309
546.18	13.395
546.52	12.357
546.86	11.824
547.20	12.087
547.54	12.360
547.88	12.236
548.22	12.690
548.56	12.639
548.90	12.000
549.24	12.401
549.58	12.177
549.92	11.862
550.26	12.427
550.60	12.317
550.94	12.031
551.28	12.607
551.62	12.871
551.96	12.751
552.30	13.321
552.64	12.383
552.98	12.477
553.32	12.862
553.66	12.154
554.00	12.106
554.34	12.033
554.68	12.008
555.02	11.629
555.36	13.083
555.69	11.595
556.03	11.917
556.37	13.016
556.71	12.365
557.05	12.268
557.39	12.210
557.73	12.285
558.07	12.649
558.41	12.425
558.75	11.427
559.08	11.969
559.42	11.591
559.76	11.737
560.10	12.525
560.44	11.675
560.78	12.688
561.12	12.069
561.45	11.800
561.79	12.943
562.13	13.124
562.47	11.961
562.81	12.532
563.15	12.311
563.48	11.995
563.82	12.817
564.16	12.598
564.50	13.230
564.84	12.212
565.17	12.235
565.51	11.853
565.85	12.292
566.19	12.154
566.52	12.873
566.86	12.620
567.20	12.235
567.54	12.321
567.88	13.099
568.21	13.291
568.55	12.662
568.89	12.665
569.23	12.674
569.56	13.091
569.90	12.580
570.24	13.390
570.57	13.214
570.91	12.492
571.25	13.133
571.59	13.248
571.92	12.953
572.26	12.943
572.60	13.459
572.93	13.526
573.27	13.037
573.61	13.182
573.95	12.989
574.28	13.011
574.62	12.824
574.96	12.814
575.29	12.668
575.63	13.075
575.97	13.006
576.30	12.756
576.64	12.622
576.98	12.961
577.31	13.228
577.65	13.269
577.98	13.366
578.32	13.274
578.66	13.061
578.99	13.025
579.33	13.006
579.67	12.738
580.00	12.879
580.34	12.980
580.67	13.019
581.01	13.284
581.35	13.462
581.68	13.221
582.02	13.290
582.35	13.532
582.69	13.206
583.02	13.325
583.36	13.268
583.70	12.543
584.03	12.647
584.37	12.639
584.70	12.714
585.04	12.555
585.37	13.080
585.71	13.182
586.04	13.188
586.38	13.069
586.72	12.685
587.05	13.021
587.39	12.790
587.72	13.038
588.06	13.322
588.39	13.069
588.73	13.201
589.06	13.008
589.40	13.368
589.73	12.982
590.07	12.699
590.40	13.320
590.73	12.690
591.07	12.733
591.40	12.792
591.74	12.758
592.07	12.911
592.41	12.973
592.74	12.744
593.08	13.217
593.41	13.182
593.75	13.103
594.08	13.269
594.41	13.558
594.75	12.720
595.08	12.517
595.42	12.532
595.75	13.529
596.09	13.250
596.42	12.970
596.75	12.736
597.09	13.333
597.42	12.634
597.75	12.936
598.09	12.976
598.42	13.309
598.76	12.686
599.09	13.030
599.42	12.605
599.76	13.041
600.09	13.247
600.42	12.646
600.76	12.285
601.09	12.512
601.42	12.873
601.76	12.897
602.09	12.652
602.42	12.759
602.76	12.620
603.09	12.702
603.42	13.006
603.76	12.579
604.09	13.556
604.42	12.844
604.76	12.633
605.09	13.363
605.42	12.879
605.75	12.423
606.09	12.467
606.42	12.222
606.75	12.631
607.09	12.097
607.42	12.871
607.75	12.270
608.08	12.944
608.42	12.334
608.75	12.935
609.08	12.351
609.41	12.395
609.75	12.054
610.08	12.621
610.41	12.702
610.74	12.731
611.07	12.300
611.41	13.004
611.74	12.841
612.07	12.482
612.40	12.690
612.73	12.665
613.07	12.812
613.40	12.175
613.73	11.988
614.06	12.610
614.39	11.905
614.72	12.373
615.06	11.983
615.39	12.325
615.72	12.749
616.05	13.065
616.38	12.916
616.71	12.539
617.05	12.513
617.38	12.788
617.71	12.527
618.04	11.873
618.37	12.459
618.70	12.048
619.03	11.888
619.36	12.084
619.69	11.467
620.03	12.618
620.36	11.963
620.69	11.474
621.02	12.073
621.35	12.627
621.68	12.509
622.01	11.673
622.34	11.925
622.67	12.096
623.00	11.538
623.33	12.674
623.66	12.387
623.99	12.113
624.32	13.385
624.65	12.484
624.99	12.419
625.32	13.782
625.65	12.542
625.98	11.729
626.31	12.119
626.64	12.308
626.97	10.803
627.30	11.541
627.63	11.928
627.96	12.688
628.29	11.518
628.62	11.839
628.95	12.182
629.28	11.555
629.61	12.458
629.94	11.297
630.26	11.780
630.59	12.263
630.92	11.169
631.25	12.522
631.58	11.488
631.91	11.996
632.24	12.392
632.57	11.575
632.90	10.732
633.23	11.429
633.56	12.143
633.89	10.847
634.22	12.786
634.55	12.944
634.88	11.039
635.20	12.271
635.53	12.542
635.86	12.026
636.19	12.725
636.52	12.869
636.85	11.338
637.18	11.538
637.51	12.581
637.83	12.403
638.16	11.060
638.49	10.094
638.82	11.950
639.15	9.737
639.48	12.933
639.81	13.048
640.13	12.250
640.46	9.455
640.79	10.539
641.12	11.056
641.45	10.414
641.77	12.837
642.10	11.417
642.43	11.569
642.76	10.705
643.09	10.274
643.41	10.504
643.74	10.069
644.07	13.517
644.40	10.325
644.73	9.869
645.05	9.692
645.38	10.360
645.71	10.704
646.04	12.195
646.36	9.781
646.69	9.969
647.02	10.398
647.35	11.908
647.67	11.111
648.00	10.669
648.33	11.862
648.66	10.556
648.98	10.068
649.31	12.991
649.64	11.952
649.96	11.141
650.29	10.014
650.62	12.023
650.94	10.961
651.27	10.329
651.60	10.965
651.92	10.334
652.25	10.709
652.58	11.004
652.90	10.029
653.23	10.845
653.56	11.555
653.88	12.640
654.21	11.127
654.54	11.127
654.86	10.907
655.19	11.418
655.52	12.291
655.84	13.983
656.17	16.872
656.49	23.937
656.82	26.105
657.15	19.691
657.47	14.587
657.80	10.382
658.13	7.964
658.45	10.333
658.78	11.916
659.10	11.358
659.43	11.311
659.75	11.066
660.08	10.924
660.41	9.760
660.73	9.806
661.06	10.132
661.38	11.005
661.71	10.000
662.03	11.640
662.36	12.522
662.68	9.756
663.01	11.681
663.33	10.019
663.66	12.454
663.98	9.808
664.31	9.944
664.63	10.019
664.96	9.800
665.28	10.526
665.61	11.713
665.93	11.607
666.26	10.394
666.58	11.993
666.91	11.215
667.23	12.762
667.56	10.848
667.88	11.200
668.21	10.156
668.53	10.039
668.86	11.002
669.18	10.591
669.50	11.133
669.83	8.200
670.15	11.024
670.48	12.302
670.80	8.222
671.13	9.263
671.45	10.236
671.77	9.228
672.10	9.000
672.42	10.032
672.75	10.445
673.07	11.343
673.39	10.478
673.72	12.416
674.04	12.069
674.37	12.165
674.69	13.757
675.01	8.952
675.34	11.260
675.66	11.236
675.98	11.567
676.31	10.156
676.63	9.316
676.95	12.261
677.28	9.879
677.60	8.661
677.92	9.789
678.25	10.420
678.57	13.523
678.89	12.287
679.22	10.976
679.54	10.940
679.86	8.475
680.18	11.609
680.51	11.321
680.83	11.129
681.15	9.655
681.48	11.572
681.80	10.363
682.12	12.238
682.44	12.020
682.77	10.816
683.09	11.174
683.41	12.984
683.73	11.385
684.06	8.856
684.38	10.197
684.70	10.592
685.02	11.532
685.34	10.649
685.67	10.095
685.99	11.503
686.31	10.610
686.63	12.638
686.96	10.883
687.28	12.704
687.60	9.933
687.92	10.932
688.24	11.519
688.56	9.310
688.89	12.523
689.21	13.307
689.53	8.431
689.85	9.665
690.17	10.556
690.49	11.952
690.82	10.495
691.14	9.312
691.46	10.707
691.78	12.339
692.10	8.991
692.42	9.464
692.74	11.071
693.06	9.630
693.39	12.713
693.71	11.466
694.03	11.710
694.35	11.619
694.67	11.088
694.99	11.277
695.31	9.934
695.63	11.472
695.95	11.801
696.27	11.648
696.59	11.726
696.91	10.811
697.23	12.967
697.56	9.165
697.88	11.742
698.20	9.793
698.52	13.068
698.84	11.642
699.16	12.449
699.48	12.343
699.80	11.277
700.12	12.227
700.44	10.369
700.76	11.639
701.08	10.896
701.40	9.067
701.72	11.940
702.04	12.299
702.36	8.901
702.68	11.247
703.00	10.269
703.32	10.099
703.64	11.247
703.96	12.888
704.28	10.074
704.60	12.911
704.91	9.439
705.23	10.411
705.55	10.306
705.87	11.515
706.19	10.429
706.51	6.928
706.83	8.646
707.15	8.201
707.47	9.112
707.79	9.607
708.11	9.746
708.43	12.043
708.74	8.929
709.06	12.065
709.38	12.441
709.70	12.407
710.02	11.628
710.34	10.106
710.66	6.704
710.98	8.743
711.29	9.341
711.61	10.169
711.93	9.402
712.25	11.892
712.57	12.979
712.89	10.882
713.20	10.059
713.52	13.295
713.84	11.421
714.16	12.632
714.48	14.175
714.80	12.468
715.11	12.073
715.43	11.936
715.75	14.474
716.07	11.602
716.39	12.842
716.70	10.843
717.02	6.230
717.34	8.711
717.66	12.081
717.97	10.274
718.29	12.027
718.61	10.526
718.93	11.650
719.24	9.938
719.56	12.883
719.88	10.210
720.20	11.613
720.51	11.180
720.83	8.750
721.15	10.197
721.46	6.849
721.78	11.000
722.10	11.327
722.42	7.718
722.73	8.710
723.05	7.368
723.37	12.153
723.68	12.545
724.00	11.913
724.32	11.268
724.63	12.937
724.95	12.411
725.27	8.711
725.58	7.420
725.90	11.379
726.22	9.404
726.53	12.338
726.85	11.635
727.16	11.480
727.48	11.315
727.80	13.245
728.11	8.481
728.43	8.754
728.74	9.699
729.06	7.616
729.38	13.636
729.69	8.054
730.01	10.417
730.32	8.788
730.64	12.579
730.96	9.317
731.27	13.128
731.59	11.264
731.90	10.390
732.22	8.333
732.53	10.221
732.85	14.000
733.16	10.850
733.48	8.537
733.80	11.142
734.11	10.541
734.43	12.973
734.74	10.633
735.06	9.799
735.37	11.892
735.69	8.649
736.00	11.017
736.32	12.399
736.63	9.444
736.95	11.207
737.26	11.515
737.58	9.091
737.89	13.824
738.21	8.869
738.52	8.525
738.83	13.652
739.15	11.348
739.46	8.844
739.78	11.656
740.09	10.315
740.41	11.662
740.72	9.667
741.04	15.210
741.35	14.386
741.66	10.588
741.98	9.836
742.29	11.715
742.61	14.035
742.92	13.846
743.23	14.801
743.55	12.403
743.86	10.800
744.18	7.025
744.49	9.283
744.80	12.346
745.12	8.861
745.43	13.821
745.74	9.483
746.06	8.898
746.37	11.814
746.68	13.821
747.00	8.333
747.31	7.725
747.62	11.154
747.94	11.741
748.25	9.639
748.56	7.755
748.88	9.402
749.19	14.224
749.50	10.390
749.82	12.048
750.13	9.964
750.44	11.333
750.75	10.769
751.07	12.615
751.38	13.880
751.69	10.224
752.01	5.178
752.32	10.131
752.63	11.224
752.94	11.765
753.26	10.781
753.57	5.556
753.88	7.491
754.19	14.791
754.51	9.003
754.82	12.540
755.13	16.393
755.44	7.850
755.75	9.539
756.07	15.821
756.38	8.176
756.69	13.855
757.00	7.202
757.31	13.661
757.63	12.276
757.94	10.563
758.25	11.061
758.56	12.200
758.87	14.773
759.18	10.400
759.50	14.731
759.81	15.126
760.12	10.243
760.43	16.146
760.74	13.054
761.05	12.500
761.36	9.880
761.67	12.944
761.99	11.622
762.30	11.890
762.61	8.251
762.92	9.701
763.23	11.985
763.54	8.993
763.85	12.371
764.16	13.131
764.47	11.972
764.78	14.058
765.10	13.783
765.41	13.333
765.72	9.259
766.03	13.842
766.34	8.777
766.65	8.362
766.96	8.765
767.27	12.442
767.58	9.453
767.89	12.981
768.20	9.859
768.51	13.426
768.82	14.859
769.13	11.742
769.44	7.308
769.75	10.469
770.06	10.385
770.37	11.811
770.68	9.787
770.99	6.073
771.30	18.148
771.61	12.167
771.92	8.889
772.23	16.194
772.54	8.333
772.85	13.825
773.16	13.333
773.47	8.995
773.78	1.622
774.09	14.205
774.39	13.500
774.70	10.383
775.01	6.098
775.32	3.529
775.63	7.975
775.94	2.548
776.25	16.129
776.56	21.154
776.87	20.408
777.18	8.276
777.48	10.490
777.79	8.108
778.10	2.941
778.41	11.111
778.72	20.000
779.03	6.790
779.34	12.727
779.65	16.062
779.95	16.111
780.26	11.932
780.57	16.129
780.88	7.246
781.19	13.548
781.50	13.529
781.80	8.602
782.11	8.995
782.42	4.040
782.73	13.772
783.04	14.525
783.34	11.515
783.65	6.536
783.96	9.938
784.27	14.881
784.57	5.960
784.88	17.143
785.19	18.110
785.50	22.047
785.81	18.045
786.11	7.692
786.42	5.755
786.73	10.072
787.04	21.805
787.34	11.475
787.65	16.000
787.96	15.672
788.26	18.881
788.57	14.685
788.88	9.211
789.19	13.725
789.49	9.589
789.80	10.638
790.11	10.236
790.41	14.844
790.72	13.559
791.03	-0.971
791.33	13.913
791.64	21.053
791.95	8.929
792.25	12.381
792.56	11.607
792.87	16.667
793.17	13.393
793.48	2.083
793.79	1.205
794.09	8.257
794.40	8.257
794.70	13.605
795.01	4.545
795.32	8.219
795.62	7.042
795.93	10.606
796.23	6.557
796.54	-5.357
796.85	2.128
797.15	3.261
797.46	15.068
797.76	16.250
798.07	8.696
798.37	4.124
798.68	-1.299
798.99	8.046
799.29	19.101
799.60	17.021
799.90	-3.614
800.21	6.154
800.51	20.896
800.82	-8.824
801.12	1.370
801.43	5.882
801.73	-1.695
802.04	7.576
802.34	5.000
802.65	13.559
802.95	8.955
803.26	5.085
803.56	13.699
803.87	15.714
804.17	17.808
804.48	-7.018
804.78	25.000
805.09	-3.448
805.39	22.973
805.70	-4.225
806.00	-1.220
806.30	4.819
806.61	-5.479
806.91	15.385
807.22	13.333
807.52	-3.448
807.83	22.222
808.13	19.277
808.43	13.483
808.74	13.750
809.04	-2.941
809.35	13.333
809.65	-7.143
809.95	17.808
810.26	-5.263
810.56	-5.172
810.86	5.882
811.17	0.000
811.47	-3.279
811.77	-17.778
812.08	-3.390
812.38	23.333
812.69	24.138
812.99	9.434
813.29	0.000
813.59	14.000
813.90	22.807
814.20	3.636
814.50	12.676
814.81	25.641
815.11	14.754
815.41	7.463
815.72	10.345
816.02	16.071
816.32	11.111
816.62	-2.273
816.93	2.222
817.23	7.407
817.53	-4.255
817.84	9.524
818.14	2.941
818.44	24.490
818.74	17.778
819.04	-33.333
819.35	-25.714
819.65	-65.385
819.95	13.208
820.25	8.889
820.56	-4.762
820.86	-9.375
821.16	-5.128
821.46	0.000
821.76	-18.000
822.07	23.214
822.37	-13.043
822.67	2.128
822.97	-21.622
823.27	2.500
823.57	24.490
823.88	22.222
824.18	20.000
824.48	3.333
824.78	0.000
825.08	-6.061
825.38	20.000
825.69	21.277
825.99	41.667
826.29	-37.143
826.59	7.692
826.89	11.628
827.19	20.000
827.49	2.941
827.79	12.500
828.09	24.324
828.39	-46.667
828.70	7.317
829.00	-6.977
829.30	-10.714
829.60	23.529
829.90	15.217
830.20	-5.714
830.50	-13.793
830.80	50.000
831.10	-3.846
831.40	-2.941
831.70	23.810
832.00	9.677
832.30	-117.647
832.60	-16.667
832.90	-61.538
833.20	0.000
833.50	-20.000
833.80	-15.789
834.10	-71.429
834.40	16.667
834.70	31.250
835.00	-22.857
835.30	20.588
835.60	6.667
835.90	36.000
836.20	-31.818
836.50	32.000
836.80	-24.242
837.10	-7.407
837.40	11.111
837.70	0.000
838.00	17.857
838.30	-8.696
838.60	3.448
838.90	0.000
839.19	-65.217
839.49	-50.000
839.79	4.348
840.09	-12.500
840.39	-30.000
840.69	22.581
840.99	7.143
841.29	33.333
841.59	36.842
841.88	5.128
842.18	0.000
842.48	-50.000
842.78	45.000
843.08	40.000
843.38	22.581
843.68	-33.333
843.97	44.118
844.27	12.500
844.57	0.000
844.87	-110.000
845.17	6.667
845.47	23.810
845.76	-57.143
846.06	0.000
846.36	23.529
846.66	26.923
846.96	-33.333
847.25	-41.176
847.55	-4.348
847.85	-25.000
848.15	17.647
848.44	-63.636
848.74	42.857
849.04	4.167
849.34	-6.250
849.63	30.435
849.93	500.000
850.23	66.667
850.53	42.308
850.82	36.364
851.12	63.636
851.42	-63.636
851.71	46.154
852.01	10.000
852.31	69.231
852.61	-5.263
852.90	-8.333
853.20	-5.556
853.50	-122.222
853.79	4.762
854.09	-68.182
854.39	0.000
854.68	-12.903
854.98	-38.462
855.28	-5.556
855.57	3.571
855.87	32.000
856.17	-4.545
856.46	3.704
856.76	-11.111
857.05	-39.130
857.35	0.000
857.65	-53.846
857.94	19.048
858.24	37.037
858.53	43.478
858.83	29.412
859.13	5.882
859.42	23.529
859.72	14.286
860.01	40.000
860.31	22.222
860.60	-60.000
860.90	26.667
861.20	-5.556
861.49	46.154
861.79	3.333
862.08	-23.077
862.38	31.250
862.67	29.412
862.97	12.500
863.26	-88.889
863.56	70.000
863.85	54.545
864.15	27.778
864.44	-266.667
864.74	7.143
865.03	25.000
865.33	-50.000
865.62	16.129
865.92	54.545
866.21	17.391
866.51	64.286
866.80	-20.000
867.10	-75.000
867.39	-83.333
867.69	500.000
867.98	42.857
868.27	23.529
868.57	-600.000
868.86	-160.000
869.16	-19.048
869.45	12.500
869.75	45.455
870.04	114.286
870.33	50.000
870.63	-142.857
870.92	225.000
871.22	-87.500
871.51	-27.273
871.80	-600.000
872.10	-50.000
>>>>>End Processed Spectral Data<<<<<
