SpectraSuite Data File
++++++++++++++++++++++++++++++++++++
Date: Thu May 14 16:28:49 PDT 2015
User: schluterlab
Dark Spectrum Present: Yes
Reference Spectrum Present: Yes
Number of Sampled Component Spectra: 1
Spectrometers: USB2E3373
Integration Time (usec): 3000 (USB2E3373)
Spectra Averaged: 3 (USB2E3373)
Boxcar Smoothing: 0 (USB2E3373)
Correct for Electrical Dark: No (USB2E3373)
Strobe/Lamp Enabled: No (USB2E3373)
Correct for Detector Non-linearity: No (USB2E3373)
Correct for Stray Light: No (USB2E3373)
Number of Pixels in Processed Spectrum: 2048
>>>>>Begin Processed Spectral Data<<<<<
178.53	0.000
178.91	28.571
179.29	-1000.000
179.67	-1000.000
180.04	121.429
180.42	30.000
180.80	120.000
181.18	-700.000
181.56	100.000
181.94	50.000
182.31	75.000
182.69	-0.000
183.07	-300.000
183.45	125.000
183.83	-50.000
184.20	-366.667
184.58	-100.000
184.96	0.000
185.34	-111.111
185.72	200.000
186.09	122.222
186.47	350.000
186.85	180.000
187.23	-77.778
187.61	-500.000
187.98	80.000
188.36	-100.000
188.74	75.000
189.12	166.667
189.49	25.000
189.87	-12.500
190.25	-33.333
190.63	40.000
191.00	-77.778
191.38	0.000
191.76	-225.000
192.14	33.333
192.51	150.000
192.89	133.333
193.27	0.000
193.65	28.571
194.02	-1000.000
194.40	71.429
194.78	-28.571
195.15	0.000
195.53	81.818
195.91	0.000
196.29	-50.000
196.66	53.846
197.04	-200.000
197.42	0.000
197.79	-150.000
198.17	50.000
198.55	-171.429
198.92	-11.111
199.30	-100.000
199.68	90.909
200.05	28.571
200.43	-100.000
200.81	142.857
201.18	0.000
201.56	33.333
201.94	0.000
202.31	200.000
202.69	-22.222
203.07	-0.000
203.44	44.444
203.82	-175.000
204.19	-25.000
204.57	-16.667
204.95	12.500
205.32	-900.000
205.70	225.000
206.08	0.000
206.45	-66.667
206.83	120.000
207.20	66.667
207.58	-140.000
207.96	-150.000
208.33	183.333
208.71	41.667
209.08	133.333
209.46	0.000
209.84	133.333
210.21	-150.000
210.59	100.000
210.96	100.000
211.34	50.000
211.71	75.000
212.09	-100.000
212.46	0.000
212.84	300.000
213.22	60.000
213.59	50.000
213.97	90.000
214.34	-166.667
214.72	200.000
215.09	25.000
215.47	0.000
215.84	100.000
216.22	550.000
216.59	0.000
216.97	180.000
217.34	-25.000
217.72	50.000
218.09	-250.000
218.47	-325.000
218.84	0.000
219.22	-0.000
219.59	52.941
219.97	35.000
220.34	350.000
220.72	-77.778
221.09	46.154
221.47	-33.333
221.84	-10.000
222.22	-57.143
222.59	0.000
222.97	37.500
223.34	120.000
223.72	900.000
224.09	-200.000
224.46	-100.000
224.84	40.000
225.21	14.286
225.59	-375.000
225.96	-25.000
226.34	15.385
226.71	83.333
227.08	-250.000
227.46	46.667
227.83	-50.000
228.21	47.368
228.58	62.500
228.95	150.000
229.33	41.667
229.70	40.000
230.08	31.579
230.45	160.000
230.82	200.000
231.20	107.143
231.57	50.000
231.95	-18.182
232.32	-18.182
232.69	45.000
233.07	75.000
233.44	41.176
233.81	30.000
234.19	100.000
234.56	4.545
234.93	41.379
235.31	31.579
235.68	50.000
236.05	-5.000
236.43	73.077
236.80	64.000
237.17	37.037
237.55	30.303
237.92	20.000
238.29	25.806
238.67	29.545
239.04	50.000
239.41	14.286
239.79	15.217
240.16	16.667
240.53	39.130
240.91	11.765
241.28	22.951
241.65	41.791
242.02	28.378
242.40	23.077
242.77	22.667
243.14	14.634
243.51	27.632
243.89	21.795
244.26	29.703
244.63	40.196
245.00	25.234
245.38	27.193
245.75	20.354
246.12	34.921
246.49	25.581
246.87	32.857
247.24	32.450
247.61	32.237
247.98	30.201
248.36	30.864
248.73	23.313
249.10	25.683
249.47	28.358
249.84	37.173
250.22	27.461
250.59	30.556
250.96	34.091
251.33	25.510
251.70	31.197
252.08	29.167
252.45	29.508
252.82	30.579
253.19	23.047
253.56	25.856
253.94	28.846
254.31	28.030
254.68	29.371
255.05	33.225
255.42	29.932
255.79	28.155
256.16	31.788
256.54	29.139
256.91	31.803
257.28	28.525
257.65	26.433
258.02	30.383
258.39	31.624
258.76	31.804
259.14	32.471
259.51	29.971
259.88	27.479
260.25	30.278
260.62	29.589
260.99	30.055
261.36	32.172
261.73	31.300
262.10	31.044
262.47	30.027
262.85	32.576
263.22	27.013
263.59	30.789
263.96	31.969
264.33	30.179
264.70	32.346
265.07	30.072
265.44	33.333
265.81	31.019
266.18	30.612
266.55	29.687
266.92	30.979
267.29	30.635
267.66	34.590
268.03	33.406
268.40	31.733
268.77	28.246
269.14	28.414
269.51	28.289
269.88	32.787
270.25	29.175
270.62	32.068
270.99	31.515
271.36	30.693
271.73	31.238
272.10	33.868
272.47	31.864
272.84	29.518
273.21	31.663
273.58	30.645
273.95	29.808
274.32	27.376
274.69	30.948
275.06	31.685
275.43	28.651
275.80	29.806
276.17	28.519
276.54	28.731
276.91	30.411
277.28	31.826
277.65	28.366
278.02	31.066
278.39	29.348
278.76	29.174
279.13	29.433
279.50	30.069
279.87	29.875
280.23	27.289
280.60	29.831
280.97	27.467
281.34	29.202
281.71	30.626
282.08	27.907
282.45	28.969
282.82	29.670
283.19	26.010
283.56	28.525
283.92	31.231
284.29	31.754
284.66	30.049
285.03	26.763
285.40	28.903
285.77	27.709
286.14	30.534
286.51	29.376
286.87	28.594
287.24	28.765
287.61	27.952
287.98	27.946
288.35	29.882
288.72	27.219
289.08	26.061
289.45	26.479
289.82	26.506
290.19	26.437
290.56	27.465
290.93	27.817
291.29	27.410
291.66	23.829
292.03	24.152
292.40	27.619
292.77	25.202
293.13	24.222
293.50	24.047
293.87	24.966
294.24	25.867
294.60	24.779
294.97	24.295
295.34	23.944
295.71	24.086
296.08	22.868
296.44	23.039
296.81	24.726
297.18	24.035
297.55	22.524
297.91	23.725
298.28	21.209
298.65	22.949
299.02	21.370
299.38	22.883
299.75	21.145
300.12	21.412
300.48	22.696
300.85	21.485
301.22	21.812
301.59	21.005
301.95	23.051
302.32	21.889
302.69	22.892
303.05	22.524
303.42	21.508
303.79	21.458
304.15	23.134
304.52	21.670
304.89	21.466
305.25	21.429
305.62	20.794
305.99	21.340
306.35	21.774
306.72	22.647
307.09	20.508
307.45	21.636
307.82	21.493
308.19	20.787
308.55	20.733
308.92	21.130
309.29	22.126
309.65	21.832
310.02	21.881
310.38	20.866
310.75	22.039
311.12	21.381
311.48	21.310
311.85	21.652
312.22	20.683
312.58	21.784
312.95	19.981
313.31	21.771
313.68	22.436
314.05	22.493
314.41	23.406
314.78	21.526
315.14	21.869
315.51	21.607
315.87	22.772
316.24	22.922
316.61	23.801
316.97	23.439
317.34	21.869
317.70	24.629
318.07	24.250
318.43	23.639
318.80	24.582
319.16	24.807
319.53	22.279
319.89	23.488
320.26	25.534
320.62	24.025
320.99	24.654
321.35	26.710
321.72	26.512
322.08	25.609
322.45	27.371
322.81	25.090
323.18	26.991
323.54	26.983
323.91	27.402
324.27	27.108
324.64	29.471
325.00	28.109
325.37	28.256
325.73	28.926
326.10	28.792
326.46	29.560
326.83	30.745
327.19	29.528
327.56	31.067
327.92	28.875
328.29	30.806
328.65	29.648
329.01	31.303
329.38	30.750
329.74	31.421
330.11	32.192
330.47	30.918
330.84	30.319
331.20	31.333
331.56	31.456
331.93	31.381
332.29	31.949
332.66	31.977
333.02	30.653
333.38	30.537
333.75	30.892
334.11	32.694
334.48	30.033
334.84	32.965
335.20	32.326
335.57	32.546
335.93	31.488
336.29	30.616
336.66	31.455
337.02	32.358
337.38	32.398
337.75	31.488
338.11	32.128
338.47	31.762
338.84	31.641
339.20	31.340
339.56	31.631
339.93	32.759
340.29	31.965
340.65	31.306
341.02	31.844
341.38	30.881
341.74	31.235
342.11	32.261
342.47	30.262
342.83	32.126
343.20	32.461
343.56	31.997
343.92	31.705
344.28	32.344
344.65	32.558
345.01	31.825
345.37	32.348
345.73	31.956
346.10	32.059
346.46	31.883
346.82	32.434
347.19	31.092
347.55	31.184
347.91	30.832
348.27	31.715
348.63	31.455
349.00	31.544
349.36	31.227
349.72	31.696
350.08	32.615
350.45	31.407
350.81	33.107
351.17	31.880
351.53	32.980
351.89	31.891
352.26	31.269
352.62	31.642
352.98	32.214
353.34	31.516
353.70	32.203
354.07	32.042
354.43	32.194
354.79	31.862
355.15	31.347
355.51	32.237
355.87	30.591
356.24	32.395
356.60	31.633
356.96	32.394
357.32	32.045
357.68	31.406
358.04	31.063
358.40	31.716
358.77	31.871
359.13	31.388
359.49	30.781
359.85	31.980
360.21	32.999
360.57	31.515
360.93	30.959
361.29	32.421
361.66	31.716
362.02	33.890
362.38	32.818
362.74	32.821
363.10	33.081
363.46	32.964
363.82	32.386
364.18	33.286
364.54	32.849
364.90	33.311
365.26	33.310
365.62	33.000
365.98	33.424
366.35	32.215
366.71	33.605
367.07	34.371
367.43	32.764
367.79	34.572
368.15	33.043
368.51	33.288
368.87	32.528
369.23	32.733
369.59	34.290
369.95	33.333
370.31	33.626
370.67	34.113
371.03	34.211
371.39	33.177
371.75	33.425
372.11	34.282
372.47	33.582
372.83	34.031
373.19	33.622
373.55	33.469
373.91	34.015
374.27	34.670
374.63	33.897
374.99	33.488
375.35	35.325
375.71	33.677
376.07	35.700
376.42	33.690
376.78	34.431
377.14	34.435
377.50	36.433
377.86	35.160
378.22	35.868
378.58	35.910
378.94	34.331
379.30	34.974
379.66	35.038
380.02	35.199
380.38	36.060
380.74	36.000
381.09	36.643
381.45	36.477
381.81	36.651
382.17	36.520
382.53	36.140
382.89	36.174
383.25	37.632
383.61	36.458
383.97	37.515
384.32	37.739
384.68	35.557
385.04	37.883
385.40	37.006
385.76	38.218
386.12	38.061
386.48	37.824
386.83	38.260
387.19	37.080
387.55	37.793
387.91	38.071
388.27	38.279
388.62	38.087
388.98	36.605
389.34	40.012
389.70	38.408
390.06	38.129
390.42	38.916
390.77	39.494
391.13	39.261
391.49	39.795
391.85	38.485
392.20	39.383
392.56	39.693
392.92	39.531
393.28	39.967
393.64	39.497
393.99	39.570
394.35	40.245
394.71	40.599
395.07	40.000
395.42	39.749
395.78	41.682
396.14	40.761
396.50	40.024
396.85	40.191
397.21	40.296
397.57	40.636
397.92	41.581
398.28	41.445
398.64	40.389
399.00	39.895
399.35	41.623
399.71	41.793
400.07	42.223
400.42	41.735
400.78	42.245
401.14	41.946
401.49	43.036
401.85	43.779
402.21	43.163
402.57	42.840
402.92	42.671
403.28	41.569
403.63	43.616
403.99	43.765
404.35	42.865
404.70	43.626
405.06	41.848
405.42	42.799
405.77	42.748
406.13	43.058
406.49	43.637
406.84	43.601
407.20	42.761
407.55	43.913
407.91	44.815
408.27	44.111
408.62	44.503
408.98	44.922
409.34	44.692
409.69	44.685
410.05	45.487
410.40	46.404
410.76	44.420
411.11	45.470
411.47	46.069
411.83	46.091
412.18	46.084
412.54	45.347
412.89	46.275
413.25	46.388
413.60	45.376
413.96	46.795
414.31	45.666
414.67	46.154
415.03	46.154
415.38	46.343
415.74	45.327
416.09	47.316
416.45	46.587
416.80	46.022
417.16	47.126
417.51	46.451
417.87	47.701
418.22	46.527
418.58	47.584
418.93	47.148
419.29	47.472
419.64	47.419
420.00	47.300
420.35	47.782
420.71	47.559
421.06	46.809
421.42	48.681
421.77	47.281
422.12	48.150
422.48	47.721
422.83	50.329
423.19	48.859
423.54	48.562
423.90	49.310
424.25	47.840
424.61	48.622
424.96	48.929
425.31	49.045
425.67	47.933
426.02	49.862
426.38	48.967
426.73	49.107
427.09	50.750
427.44	48.826
427.79	49.475
428.15	50.000
428.50	50.169
428.85	50.230
429.21	49.894
429.56	50.444
429.92	49.730
430.27	49.446
430.62	50.220
430.98	49.533
431.33	49.707
431.68	49.856
432.04	49.822
432.39	50.723
432.74	51.884
433.10	51.001
433.45	50.557
433.80	50.536
434.16	50.826
434.51	51.953
434.86	51.629
435.22	51.807
435.57	52.241
435.92	50.974
436.28	51.877
436.63	52.703
436.98	51.047
437.34	52.311
437.69	50.798
438.04	52.036
438.39	51.350
438.75	52.573
439.10	52.431
439.45	51.425
439.81	52.486
440.16	52.547
440.51	52.118
440.86	52.196
441.22	51.876
441.57	51.887
441.92	52.279
442.27	53.636
442.63	52.012
442.98	52.455
443.33	52.551
443.68	52.230
444.03	53.481
444.39	51.549
444.74	52.680
445.09	51.546
445.44	52.898
445.79	52.969
446.15	52.826
446.50	51.886
446.85	52.675
447.20	53.143
447.55	53.975
447.91	53.141
448.26	52.273
448.61	53.666
448.96	53.863
449.31	52.704
449.66	52.451
450.02	52.215
450.37	52.690
450.72	53.014
451.07	54.157
451.42	53.091
451.77	53.530
452.12	52.935
452.47	52.704
452.83	55.349
453.18	53.065
453.53	53.016
453.88	53.506
454.23	53.164
454.58	53.918
454.93	54.733
455.28	53.763
455.63	52.814
455.98	53.017
456.34	52.356
456.69	53.557
457.04	54.196
457.39	53.271
457.74	54.866
458.09	53.377
458.44	53.179
458.79	52.089
459.14	53.277
459.49	54.612
459.84	54.092
460.19	52.526
460.54	54.117
460.89	54.103
461.24	53.276
461.59	53.569
461.94	52.995
462.29	54.199
462.64	54.315
462.99	52.856
463.34	54.770
463.69	52.989
464.04	54.030
464.39	53.587
464.74	52.509
465.09	54.210
465.44	54.131
465.79	53.041
466.14	52.944
466.49	53.000
466.84	53.829
467.19	53.006
467.54	51.704
467.89	52.586
468.24	53.296
468.59	51.708
468.94	52.448
469.29	53.509
469.64	52.575
469.99	54.366
470.34	53.775
470.68	54.135
471.03	54.355
471.38	52.976
471.73	55.137
472.08	54.188
472.43	53.582
472.78	53.023
473.13	54.362
473.48	54.199
473.83	54.498
474.17	53.107
474.52	54.660
474.87	52.990
475.22	54.423
475.57	52.960
475.92	53.708
476.27	54.207
476.61	53.531
476.96	53.389
477.31	53.663
477.66	54.145
478.01	54.245
478.36	53.141
478.70	53.793
479.05	54.243
479.40	54.097
479.75	52.690
480.10	53.387
480.45	53.464
480.79	53.197
481.14	52.757
481.49	53.521
481.84	53.003
482.19	53.720
482.53	52.951
482.88	53.611
483.23	53.579
483.58	52.314
483.92	52.527
484.27	53.810
484.62	53.713
484.97	52.760
485.31	53.150
485.66	50.770
486.01	49.474
486.36	50.314
486.70	51.718
487.05	52.773
487.40	52.496
487.75	52.239
488.09	52.578
488.44	51.880
488.79	52.074
489.13	52.933
489.48	51.845
489.83	52.837
490.17	52.369
490.52	51.724
490.87	53.215
491.22	53.856
491.56	52.816
491.91	53.249
492.26	53.613
492.60	52.995
492.95	52.874
493.30	53.160
493.64	52.781
493.99	53.377
494.34	52.221
494.68	53.319
495.03	53.084
495.37	53.040
495.72	53.515
496.07	52.761
496.41	52.896
496.76	53.878
497.11	53.333
497.45	53.431
497.80	53.310
498.14	52.653
498.49	52.895
498.84	54.159
499.18	53.216
499.53	54.126
499.87	54.242
500.22	52.493
500.56	53.666
500.91	54.188
501.26	54.227
501.60	52.762
501.95	52.888
502.29	52.304
502.64	53.083
502.98	52.890
503.33	52.786
503.67	52.159
504.02	52.627
504.36	53.172
504.71	53.881
505.06	53.251
505.40	53.611
505.75	52.550
506.09	53.453
506.44	54.782
506.78	54.587
507.13	53.942
507.47	54.666
507.82	53.078
508.16	53.489
508.51	53.774
508.85	53.755
509.19	54.145
509.54	54.995
509.88	53.570
510.23	54.590
510.57	53.987
510.92	54.330
511.26	53.632
511.61	52.438
511.95	52.855
512.30	53.717
512.64	52.374
512.98	53.827
513.33	54.738
513.67	53.391
514.02	55.595
514.36	54.629
514.70	55.312
515.05	54.536
515.39	54.646
515.74	55.885
516.08	54.992
516.42	54.893
516.77	55.941
517.11	54.667
517.46	54.931
517.80	55.906
518.14	55.223
518.49	55.206
518.83	54.550
519.17	53.527
519.52	53.774
519.86	55.174
520.20	55.698
520.55	54.491
520.89	55.124
521.23	54.718
521.58	56.158
521.92	55.751
522.26	54.868
522.61	55.845
522.95	54.902
523.29	56.264
523.64	56.222
523.98	54.877
524.32	57.822
524.66	56.289
525.01	54.813
525.35	54.854
525.69	54.872
526.04	53.904
526.38	55.287
526.72	55.882
527.06	55.660
527.41	55.044
527.75	56.591
528.09	56.671
528.43	55.299
528.78	55.607
529.12	55.390
529.46	55.256
529.80	55.206
530.15	54.899
530.49	55.635
530.83	55.726
531.17	55.974
531.51	55.475
531.86	55.889
532.20	56.829
532.54	54.817
532.88	55.879
533.22	56.747
533.57	55.684
533.91	54.545
534.25	54.720
534.59	55.862
534.93	55.574
535.27	55.493
535.62	55.031
535.96	55.665
536.30	56.404
536.64	55.375
536.98	56.704
537.32	55.741
537.66	56.020
538.01	54.320
538.35	55.481
538.69	55.649
539.03	56.652
539.37	55.183
539.71	56.156
540.05	55.516
540.39	54.645
540.73	54.766
541.07	55.549
541.42	55.168
541.76	53.796
542.10	54.644
542.44	54.689
542.78	55.170
543.12	55.006
543.46	55.861
543.80	54.616
544.14	55.057
544.48	53.723
544.82	55.476
545.16	55.814
545.50	54.883
545.84	53.950
546.18	56.111
546.52	55.924
546.86	54.969
547.20	55.280
547.54	54.057
547.88	55.274
548.22	54.386
548.56	53.189
548.90	54.866
549.24	54.590
549.58	55.331
549.92	54.082
550.26	54.110
550.60	53.989
550.94	55.433
551.28	54.851
551.62	55.054
551.96	54.110
552.30	55.386
552.64	54.760
552.98	54.772
553.32	55.627
553.66	55.113
554.00	53.468
554.34	55.277
554.68	54.229
555.02	56.045
555.36	55.753
555.69	55.093
556.03	53.468
556.37	53.942
556.71	55.802
557.05	54.377
557.39	54.678
557.73	56.473
558.07	54.305
558.41	54.684
558.75	55.646
559.08	54.767
559.42	54.801
559.76	55.631
560.10	54.588
560.44	54.024
560.78	54.438
561.12	54.988
561.45	53.710
561.79	54.579
562.13	54.282
562.47	54.192
562.81	54.873
563.15	54.293
563.48	54.071
563.82	54.716
564.16	52.998
564.50	53.814
564.84	52.979
565.17	52.765
565.51	52.417
565.85	52.672
566.19	53.687
566.52	53.423
566.86	53.311
567.20	51.550
567.54	52.523
567.88	53.619
568.21	53.014
568.55	52.662
568.89	52.519
569.23	50.993
569.56	51.192
569.90	50.392
570.24	50.388
570.57	50.289
570.91	49.571
571.25	49.465
571.59	49.457
571.92	48.667
572.26	48.729
572.60	48.512
572.93	48.678
573.27	48.412
573.61	48.544
573.95	47.439
574.28	47.629
574.62	47.635
574.96	47.089
575.29	46.618
575.63	47.216
575.97	47.353
576.30	47.520
576.64	47.244
576.98	47.107
577.31	47.481
577.65	47.936
577.98	46.875
578.32	46.314
578.66	46.853
578.99	46.549
579.33	47.199
579.67	46.600
580.00	46.640
580.34	46.553
580.67	46.359
581.01	46.798
581.35	46.425
581.68	45.608
582.02	46.010
582.35	47.040
582.69	46.989
583.02	46.477
583.36	46.704
583.70	47.353
584.03	46.316
584.37	47.174
584.70	46.650
585.04	45.943
585.37	46.376
585.71	45.912
586.04	45.993
586.38	46.982
586.72	46.729
587.05	46.738
587.39	47.245
587.72	47.081
588.06	45.624
588.39	46.652
588.73	46.825
589.06	47.094
589.40	47.603
589.73	47.044
590.07	47.248
590.40	47.769
590.73	47.791
591.07	48.771
591.40	47.006
591.74	47.655
592.07	48.071
592.41	46.688
592.74	46.965
593.08	46.210
593.41	46.632
593.75	45.489
594.08	46.743
594.41	46.538
594.75	46.961
595.08	46.871
595.42	46.558
595.75	46.626
596.09	47.238
596.42	46.614
596.75	47.240
597.09	47.071
597.42	47.557
597.75	46.648
598.09	47.063
598.42	47.648
598.76	45.778
599.09	45.675
599.42	45.860
599.76	45.890
600.09	45.979
600.42	45.712
600.76	45.575
601.09	45.768
601.42	45.589
601.76	46.310
602.09	46.462
602.42	45.329
602.76	45.830
603.09	46.402
603.42	46.821
603.76	46.371
604.09	46.522
604.42	45.835
604.76	45.015
605.09	45.951
605.42	46.013
605.75	45.115
606.09	45.950
606.42	45.421
606.75	45.315
607.09	44.662
607.42	44.971
607.75	45.526
608.08	45.304
608.42	44.982
608.75	46.103
609.08	45.458
609.41	46.890
609.75	46.161
610.08	46.262
610.41	45.200
610.74	46.092
611.07	46.181
611.41	46.143
611.74	46.236
612.07	46.330
612.40	46.150
612.73	45.770
613.07	46.357
613.40	46.102
613.73	45.065
614.06	47.056
614.39	44.704
614.72	46.240
615.06	45.669
615.39	45.288
615.72	46.445
616.05	44.779
616.38	45.711
616.71	47.074
617.05	45.580
617.38	45.800
617.71	45.680
618.04	46.951
618.37	46.667
618.70	46.719
619.03	46.177
619.36	46.917
619.69	47.149
620.03	47.269
620.36	46.687
620.69	46.206
621.02	47.310
621.35	48.549
621.68	48.735
622.01	47.972
622.34	46.234
622.67	47.216
623.00	46.356
623.33	47.512
623.66	46.693
623.99	46.215
624.32	47.433
624.65	46.203
624.99	46.164
625.32	47.028
625.65	47.876
625.98	46.102
626.31	47.697
626.64	46.960
626.97	47.262
627.30	47.001
627.63	46.287
627.96	47.523
628.29	47.393
628.62	47.691
628.95	48.729
629.28	47.918
629.61	48.653
629.94	46.946
630.26	47.373
630.59	49.741
630.92	47.706
631.25	49.106
631.58	49.906
631.91	48.547
632.24	47.454
632.57	48.197
632.90	50.752
633.23	48.878
633.56	47.959
633.89	47.314
634.22	49.584
634.55	50.939
634.88	49.675
635.20	48.870
635.53	51.864
635.86	50.271
636.19	49.735
636.52	48.312
636.85	46.578
637.18	47.713
637.51	48.710
637.83	49.945
638.16	49.654
638.49	48.592
638.82	47.689
639.15	48.797
639.48	49.076
639.81	49.423
640.13	48.999
640.46	48.121
640.79	48.284
641.12	49.565
641.45	47.679
641.77	51.348
642.10	48.688
642.43	51.064
642.76	48.645
643.09	49.589
643.41	48.459
643.74	49.379
644.07	50.345
644.40	49.505
644.73	49.202
645.05	50.661
645.38	49.353
645.71	49.413
646.04	51.937
646.36	48.029
646.69	51.534
647.02	52.141
647.35	51.145
647.67	53.623
648.00	51.592
648.33	50.300
648.66	46.505
648.98	48.844
649.31	48.714
649.64	48.207
649.96	46.419
650.29	44.784
650.62	45.545
650.94	48.649
651.27	47.904
651.60	49.561
651.92	50.304
652.25	47.033
652.58	44.429
652.90	48.110
653.23	47.465
653.56	47.076
653.88	47.331
654.21	48.451
654.54	47.110
654.86	47.309
655.19	44.542
655.52	42.618
655.84	39.336
656.17	45.313
656.49	63.246
656.82	69.746
657.15	54.227
657.47	40.836
657.80	30.475
658.13	23.798
658.45	31.366
658.78	38.054
659.10	37.377
659.43	37.612
659.75	38.022
660.08	38.375
660.41	41.026
660.73	42.759
661.06	45.521
661.38	48.006
661.71	46.207
662.03	46.737
662.36	48.837
662.68	50.469
663.01	48.142
663.33	51.607
663.66	49.084
663.98	50.192
664.31	46.154
664.63	45.472
664.96	49.728
665.28	48.094
665.61	48.077
665.93	47.679
666.26	48.208
666.58	48.524
666.91	49.159
667.23	49.524
667.56	48.915
667.88	48.200
668.21	44.727
668.53	48.263
668.86	49.705
669.18	47.658
669.50	47.515
669.83	43.400
670.15	46.260
670.48	47.817
670.80	45.889
671.13	47.637
671.45	48.031
671.77	46.139
672.10	44.000
672.42	43.204
672.75	44.393
673.07	43.582
673.39	43.143
673.72	45.470
674.04	46.724
674.37	48.479
674.69	45.503
675.01	48.571
675.34	44.847
675.66	43.258
675.98	46.455
676.31	46.680
676.63	47.338
676.95	45.019
677.28	47.581
677.60	43.504
677.92	48.177
678.25	47.898
678.57	44.840
678.89	45.222
679.22	41.289
679.54	44.786
679.86	42.881
680.18	43.118
680.51	43.868
680.83	45.172
681.15	43.103
681.48	45.423
681.80	42.832
682.12	42.657
682.44	42.404
682.77	44.149
683.09	43.561
683.41	44.574
683.73	42.884
684.06	42.804
684.38	42.934
684.70	45.601
685.02	48.709
685.34	41.764
685.67	41.483
685.99	43.252
686.31	38.372
686.63	43.128
686.96	40.063
687.28	42.020
687.60	42.761
687.92	40.032
688.24	41.068
688.56	39.828
688.89	41.742
689.21	47.358
689.53	42.353
689.85	42.012
690.17	40.741
690.49	42.032
690.82	43.762
691.14	41.296
691.46	43.786
691.78	44.936
692.10	42.202
692.42	43.214
692.74	38.838
693.06	40.926
693.39	41.176
693.71	43.421
694.03	39.777
694.35	41.524
694.67	42.094
694.99	41.915
695.31	43.046
695.63	44.372
695.95	41.615
696.27	43.516
696.59	40.929
696.91	44.369
697.23	47.033
697.56	43.177
697.88	39.205
698.20	42.561
698.52	41.288
698.84	40.748
699.16	42.041
699.48	41.423
699.80	43.191
700.12	40.830
700.44	42.857
700.76	42.280
701.08	42.857
701.40	42.228
701.72	40.796
702.04	41.444
702.36	43.455
702.68	41.565
703.00	39.609
703.32	42.365
703.64	41.565
703.96	41.527
704.28	44.226
704.60	41.519
704.91	41.327
705.23	43.014
705.55	41.504
705.87	49.394
706.19	46.012
706.51	41.566
706.83	40.058
707.15	39.947
707.47	40.654
707.79	39.520
708.11	37.076
708.43	37.204
708.74	37.054
709.06	37.819
709.38	40.845
709.70	40.447
710.02	41.602
710.34	43.351
710.66	37.430
710.98	42.077
711.29	42.308
711.61	41.243
711.93	42.450
712.25	38.108
712.57	41.298
712.89	42.353
713.20	41.124
713.52	41.040
713.84	38.440
714.16	42.368
714.48	39.691
714.80	45.195
715.11	38.845
715.43	41.910
715.75	40.263
716.07	38.674
716.39	40.164
716.70	40.964
717.02	44.918
717.34	41.115
717.66	40.268
717.97	37.671
718.29	42.955
718.61	39.803
718.93	42.071
719.24	39.441
719.56	38.344
719.88	39.039
720.20	42.258
720.51	36.335
720.83	40.312
721.15	36.842
721.46	39.041
721.78	39.000
722.10	37.864
722.42	36.577
722.73	40.645
723.05	38.246
723.37	37.847
723.68	40.860
724.00	44.043
724.32	37.676
724.63	34.266
724.95	41.135
725.27	37.282
725.58	37.456
725.90	41.724
726.22	36.677
726.53	37.662
726.85	41.824
727.16	38.369
727.48	39.450
727.80	38.742
728.11	36.042
728.43	39.057
728.74	35.786
729.06	32.781
729.38	36.688
729.69	40.268
730.01	36.012
730.32	33.333
730.64	37.107
730.96	35.404
731.27	36.313
731.59	36.813
731.90	34.545
732.22	33.073
732.53	35.635
732.85	36.286
733.16	32.845
733.48	38.110
733.80	32.312
734.11	36.467
734.43	37.297
734.74	38.734
735.06	37.437
735.37	38.649
735.69	35.946
736.00	36.441
736.32	33.423
736.63	36.944
736.95	35.632
737.26	34.242
737.58	40.000
737.89	37.353
738.21	33.333
738.52	35.410
738.83	40.273
739.15	38.652
739.46	35.374
739.78	38.957
740.09	33.524
740.41	37.901
740.72	34.667
741.04	36.893
741.35	35.789
741.66	38.039
741.98	38.525
742.29	33.473
742.61	42.982
742.92	31.154
743.23	38.989
743.55	38.760
743.86	38.000
744.18	35.537
744.49	32.489
744.80	41.975
745.12	35.021
745.43	40.244
745.74	37.931
746.06	38.983
746.37	39.662
746.68	41.057
747.00	35.000
747.31	40.773
747.62	34.231
747.94	35.628
748.25	40.161
748.56	33.469
748.88	40.171
749.19	40.517
749.50	37.229
749.82	39.759
750.13	35.943
750.44	38.667
750.75	32.000
751.07	36.000
751.38	35.962
751.69	34.185
752.01	36.570
752.32	33.660
752.63	35.714
752.94	35.294
753.26	31.970
753.57	32.222
753.88	33.333
754.19	33.441
754.51	33.119
754.82	37.621
755.13	35.410
755.44	40.956
755.75	34.539
756.07	35.224
756.38	31.761
756.69	36.145
757.00	31.579
757.31	33.333
757.63	30.946
757.94	31.925
758.25	33.634
758.56	31.373
758.87	30.227
759.18	32.533
759.50	35.411
759.81	33.333
760.12	34.232
760.43	32.292
760.74	29.310
761.05	37.000
761.36	32.048
761.67	30.711
761.99	32.973
762.30	27.134
762.61	33.333
762.92	31.716
763.23	31.086
763.54	33.094
763.85	31.959
764.16	36.700
764.47	34.155
764.78	31.949
765.10	35.484
765.41	31.026
765.72	30.423
766.03	31.356
766.34	32.288
766.65	36.585
766.96	31.076
767.27	37.327
767.58	33.831
767.89	37.019
768.20	31.925
768.51	32.870
768.82	32.530
769.13	32.197
769.44	28.846
769.75	34.657
770.06	32.692
770.37	36.614
770.68	31.915
770.99	29.960
771.30	34.444
771.61	31.559
771.92	36.667
772.23	34.413
772.54	29.167
772.85	33.641
773.16	31.905
773.47	31.217
773.78	35.135
774.09	39.205
774.39	40.000
774.70	34.973
775.01	31.707
775.32	31.176
775.63	39.264
775.94	33.758
776.25	34.839
776.56	35.256
776.87	38.095
777.18	33.793
777.48	36.364
777.79	33.784
778.10	35.294
778.41	29.861
778.72	33.793
779.03	34.568
779.34	35.152
779.65	33.161
779.95	33.333
780.26	32.955
780.57	36.774
780.88	39.130
781.19	38.710
781.50	37.647
781.80	33.871
782.11	39.683
782.42	33.333
782.73	32.934
783.04	31.844
783.34	27.879
783.65	24.837
783.96	29.193
784.27	24.405
784.57	34.437
784.88	31.429
785.19	32.283
785.50	23.622
785.81	30.075
786.11	33.077
786.42	27.338
786.73	20.863
787.04	31.579
787.34	27.049
787.65	33.600
787.96	37.313
788.26	39.860
788.57	34.965
788.88	32.237
789.19	31.373
789.49	31.507
789.80	29.078
790.11	38.583
790.41	34.375
790.72	21.186
791.03	27.184
791.33	34.783
791.64	30.702
791.95	26.786
792.25	37.143
792.56	35.714
792.87	23.958
793.17	31.250
793.48	22.917
793.79	22.892
794.09	28.440
794.40	29.358
794.70	31.973
795.01	30.519
795.32	24.658
795.62	29.577
795.93	22.727
796.23	29.508
796.54	19.643
796.85	36.170
797.15	30.435
797.46	19.178
797.76	36.250
798.07	42.391
798.37	25.773
798.68	18.182
798.99	22.989
799.29	30.337
799.60	37.234
799.90	22.892
800.21	20.000
800.51	40.299
800.82	29.412
801.12	21.918
801.43	4.412
801.73	49.153
802.04	42.424
802.34	13.333
802.65	40.678
802.95	25.373
803.26	42.373
803.56	30.137
803.87	30.000
804.17	38.356
804.48	31.579
804.78	34.722
805.09	18.966
805.39	39.189
805.70	19.718
806.00	17.073
806.30	30.120
806.61	19.178
806.91	30.769
807.22	28.889
807.52	14.943
807.83	34.722
808.13	32.530
808.43	31.461
808.74	30.000
809.04	27.941
809.35	33.333
809.65	28.571
809.95	30.137
810.26	29.825
810.56	27.586
810.86	38.235
811.17	36.842
811.47	19.672
811.77	17.778
812.08	47.458
812.38	23.333
812.69	50.000
812.99	15.094
813.29	-5.128
813.59	54.000
813.90	36.842
814.20	23.636
814.50	52.113
814.81	39.744
815.11	31.148
815.41	28.358
815.72	22.414
816.02	30.357
816.32	33.333
816.62	36.364
816.93	24.444
817.23	22.222
817.53	38.298
817.84	50.000
818.14	20.588
818.44	20.408
818.74	33.333
819.04	12.821
819.35	31.429
819.65	26.923
819.95	39.623
820.25	22.222
820.56	42.857
820.86	43.750
821.16	53.846
821.46	9.302
821.76	12.000
822.07	25.000
822.37	32.609
822.67	23.404
822.97	2.703
823.27	30.000
823.57	24.490
823.88	44.444
824.18	30.000
824.48	50.000
824.78	36.000
825.08	12.121
825.38	48.889
825.69	48.936
825.99	33.333
826.29	-22.857
826.59	46.154
826.89	30.233
827.19	22.000
827.49	8.824
827.79	33.333
828.09	32.432
828.39	10.000
828.70	36.585
829.00	18.605
829.30	-3.571
829.60	35.294
829.90	32.609
830.20	25.714
830.50	-6.897
830.80	0.000
831.10	11.538
831.40	20.588
831.70	19.048
832.00	54.839
832.30	5.882
832.60	29.167
832.90	-46.154
833.20	-5.263
833.50	15.000
833.80	10.526
834.10	-38.095
834.40	27.778
834.70	84.375
835.00	2.857
835.30	38.235
835.60	-20.000
835.90	48.000
836.20	4.545
836.50	52.000
836.80	-24.242
837.10	22.222
837.40	37.037
837.70	31.250
838.00	42.857
838.30	8.696
838.60	34.483
838.90	-57.143
839.19	-17.391
839.49	-100.000
839.79	4.348
840.09	12.500
840.39	-5.000
840.69	41.935
840.99	-10.714
841.29	73.333
841.59	15.789
841.88	33.333
842.18	-3.846
842.48	50.000
842.78	80.000
843.08	60.000
843.38	58.065
843.68	22.222
843.97	41.176
844.27	68.750
844.57	15.789
844.87	40.000
845.17	6.667
845.47	28.571
845.76	-4.762
846.06	-11.111
846.36	-17.647
846.66	46.154
846.96	-33.333
847.25	11.765
847.55	52.174
847.85	30.000
848.15	41.176
848.44	18.182
848.74	14.286
849.04	8.333
849.34	-12.500
849.63	-4.348
849.93	300.000
850.23	53.333
850.53	38.462
850.82	18.182
851.12	31.818
851.42	9.091
851.71	76.923
852.01	40.000
852.31	30.769
852.61	5.263
852.90	141.667
853.20	11.111
853.50	-11.111
853.79	-9.524
854.09	27.273
854.39	83.333
854.68	25.806
854.98	7.692
855.28	44.444
855.57	35.714
855.87	24.000
856.17	9.091
856.46	18.519
856.76	22.222
857.05	-4.348
857.35	-8.333
857.65	0.000
857.94	19.048
858.24	44.444
858.53	17.391
858.83	58.824
859.13	17.647
859.42	52.941
859.72	78.571
860.01	60.000
860.31	-22.222
860.60	-20.000
860.90	-53.333
861.20	5.556
861.49	30.769
861.79	16.667
862.08	-38.462
862.38	12.500
862.67	64.706
862.97	56.250
863.26	-22.222
863.56	-50.000
863.85	9.091
864.15	38.889
864.44	-166.667
864.74	-14.286
865.03	-6.250
865.33	-80.000
865.62	38.710
865.92	81.818
866.21	-4.348
866.51	28.571
866.80	-100.000
867.10	33.333
867.39	0.000
867.69	-500.000
867.98	14.286
868.27	11.765
868.57	-700.000
868.86	-60.000
869.16	33.333
869.45	33.333
869.75	72.727
870.04	-85.714
870.33	83.333
870.63	-14.286
870.92	175.000
871.22	-87.500
871.51	-27.273
871.80	-400.000
872.10	-500.000
>>>>>End Processed Spectral Data<<<<<
