SpectraSuite Data File
++++++++++++++++++++++++++++++++++++
Date: Thu May 14 16:27:39 PDT 2015
User: schluterlab
Dark Spectrum Present: Yes
Reference Spectrum Present: Yes
Number of Sampled Component Spectra: 1
Spectrometers: USB2E3373
Integration Time (usec): 3000 (USB2E3373)
Spectra Averaged: 3 (USB2E3373)
Boxcar Smoothing: 0 (USB2E3373)
Correct for Electrical Dark: No (USB2E3373)
Strobe/Lamp Enabled: No (USB2E3373)
Correct for Detector Non-linearity: No (USB2E3373)
Correct for Stray Light: No (USB2E3373)
Number of Pixels in Processed Spectrum: 2048
>>>>>Begin Processed Spectral Data<<<<<
178.53	0.000
178.91	-57.143
179.29	-1200.000
179.67	-300.000
180.04	107.143
180.42	-60.000
180.80	-20.000
181.18	-900.000
181.56	400.000
181.94	-75.000
182.31	25.000
182.69	66.667
183.07	50.000
183.45	75.000
183.83	50.000
184.20	-200.000
184.58	-0.000
184.96	-300.000
185.34	-77.778
185.72	0.000
186.09	233.333
186.47	600.000
186.85	200.000
187.23	-22.222
187.61	-1000.000
187.98	40.000
188.36	125.000
188.74	-100.000
189.12	66.667
189.49	31.250
189.87	-175.000
190.25	-22.222
190.63	60.000
191.00	11.111
191.38	0.000
191.76	-175.000
192.14	16.667
192.51	-400.000
192.89	16.667
193.27	0.000
193.65	-57.143
194.02	-600.000
194.40	-128.571
194.78	28.571
195.15	0.000
195.53	72.727
195.91	0.000
196.29	200.000
196.66	61.538
197.04	-1700.000
197.42	42.857
197.79	-50.000
198.17	-25.000
198.55	-28.571
198.92	88.889
199.30	12.500
199.68	0.000
200.05	28.571
200.43	-400.000
200.81	200.000
201.18	0.000
201.56	66.667
201.94	0.000
202.31	366.667
202.69	-77.778
203.07	100.000
203.44	-22.222
203.82	100.000
204.19	0.000
204.57	16.667
204.95	-87.500
205.32	-1200.000
205.70	-25.000
206.08	-50.000
206.45	50.000
206.83	220.000
207.20	-16.667
207.58	-140.000
207.96	-83.333
208.33	200.000
208.71	50.000
209.08	50.000
209.46	0.000
209.84	66.667
210.21	-50.000
210.59	350.000
210.96	-33.333
211.34	250.000
211.71	-100.000
212.09	-600.000
212.46	0.000
212.84	800.000
213.22	-60.000
213.59	-125.000
213.97	-20.000
214.34	66.667
214.72	-16.667
215.09	-100.000
215.47	0.000
215.84	57.143
216.22	450.000
216.59	0.000
216.97	-40.000
217.34	125.000
217.72	-12.500
218.09	25.000
218.47	-150.000
218.84	0.000
219.22	20.000
219.59	41.176
219.97	10.000
220.34	-250.000
220.72	-88.889
221.09	15.385
221.47	-200.000
221.84	90.000
222.22	85.714
222.59	0.000
222.97	50.000
223.34	40.000
223.72	-400.000
224.09	-125.000
224.46	0.000
224.84	180.000
225.21	42.857
225.59	-175.000
225.96	-100.000
226.34	46.154
226.71	200.000
227.08	350.000
227.46	6.667
227.83	125.000
228.21	36.842
228.58	137.500
228.95	-150.000
229.33	-8.333
229.70	120.000
230.08	63.158
230.45	-40.000
230.82	100.000
231.20	-50.000
231.57	33.333
231.95	-27.273
232.32	81.818
232.69	55.000
233.07	-25.000
233.44	29.412
233.81	-50.000
234.19	-22.222
234.56	-4.545
234.93	31.034
235.31	36.842
235.68	27.778
236.05	-10.000
236.43	26.923
236.80	52.000
237.17	29.630
237.55	0.000
237.92	-50.000
238.29	-19.355
238.67	0.000
239.04	0.000
239.41	16.667
239.79	-10.870
240.16	7.407
240.53	-8.696
240.91	-9.804
241.28	19.672
241.65	29.851
242.02	17.568
242.40	6.154
242.77	9.333
243.14	17.073
243.51	7.895
243.89	6.410
244.26	10.891
244.63	17.647
245.00	23.364
245.38	8.772
245.75	0.885
246.12	8.730
246.49	8.527
246.87	15.000
247.24	16.556
247.61	18.421
247.98	4.698
248.36	9.259
248.73	6.748
249.10	10.929
249.47	14.925
249.84	17.801
250.22	7.254
250.59	7.778
250.96	9.545
251.33	8.673
251.70	15.385
252.08	11.667
252.45	13.115
252.82	10.744
253.19	7.422
253.56	13.308
253.94	4.231
254.31	7.197
254.68	12.587
255.05	14.984
255.42	11.905
255.79	9.709
256.16	7.947
256.54	4.636
256.91	11.475
257.28	12.459
257.65	8.599
258.02	8.555
258.39	11.111
258.76	11.315
259.14	13.793
259.51	10.375
259.88	7.932
260.25	10.833
260.62	10.685
260.99	12.022
261.36	12.869
261.73	10.610
262.10	8.516
262.47	12.332
262.85	12.879
263.22	9.091
263.59	7.632
263.96	9.719
264.33	7.417
264.70	13.086
265.07	14.320
265.44	15.420
265.81	10.648
266.18	12.472
266.55	12.723
266.92	10.478
267.29	11.379
267.66	12.417
268.03	11.572
268.40	10.438
268.77	8.428
269.14	6.828
269.51	12.719
269.88	11.270
270.25	10.463
270.62	12.447
270.99	11.313
271.36	12.673
271.73	10.806
272.10	12.224
272.47	11.623
272.84	11.245
273.21	9.820
273.58	10.484
273.95	11.154
274.32	11.027
274.69	10.251
275.06	11.538
275.43	10.166
275.80	10.758
276.17	10.185
276.54	11.754
276.91	10.018
277.28	10.488
277.65	11.131
278.02	11.765
278.39	11.051
278.76	10.018
279.13	10.461
279.50	11.856
279.87	12.343
280.23	7.923
280.60	10.169
280.97	10.197
281.34	10.187
281.71	12.014
282.08	10.465
282.45	9.820
282.82	10.361
283.19	8.239
283.56	9.180
283.92	13.213
284.29	11.848
284.66	10.673
285.03	8.333
285.40	11.747
285.77	9.907
286.14	11.145
286.51	9.741
286.87	8.215
287.24	9.789
287.61	8.072
287.98	9.366
288.35	9.615
288.72	9.763
289.08	10.102
289.45	9.024
289.82	8.283
290.19	11.638
290.56	9.718
290.93	10.128
291.29	10.606
291.66	9.366
292.03	9.905
292.40	10.476
292.77	7.682
293.13	10.014
293.50	7.227
293.87	9.262
294.24	10.533
294.60	11.125
294.97	7.919
295.34	11.268
295.71	9.079
296.08	7.623
296.44	7.108
296.81	9.135
297.18	8.344
297.55	8.962
297.91	7.948
298.28	7.346
298.65	9.037
299.02	8.383
299.38	8.467
299.75	8.178
300.12	7.292
300.48	8.065
300.85	9.111
301.22	9.060
301.59	6.849
301.95	7.797
302.32	8.111
302.69	7.229
303.05	8.379
303.42	7.650
303.79	6.979
304.15	7.045
304.52	6.977
304.89	8.482
305.25	8.178
305.62	7.106
305.99	8.763
306.35	7.661
306.72	8.273
307.09	8.122
307.45	7.660
307.82	7.265
308.19	8.073
308.55	8.293
308.92	8.374
309.29	8.046
309.65	8.187
310.02	8.218
310.38	7.677
310.75	7.864
311.12	7.191
311.48	7.038
311.85	9.022
312.22	7.306
312.58	8.075
312.95	7.170
313.31	8.582
313.68	10.073
314.05	9.033
314.41	9.927
314.78	9.628
315.14	8.348
315.51	8.864
315.87	9.541
316.24	9.954
316.61	11.190
316.97	9.231
317.34	10.229
317.70	10.917
318.07	10.317
318.43	11.650
318.80	11.706
319.16	11.245
319.53	10.368
319.89	10.868
320.26	11.833
320.62	11.879
320.99	13.019
321.35	13.956
321.72	14.512
322.08	13.796
322.45	15.086
322.81	15.523
323.18	13.982
323.54	15.086
323.91	16.726
324.27	16.093
324.64	16.121
325.00	16.667
325.37	17.609
325.73	17.851
326.10	19.140
326.46	18.567
326.83	19.856
327.19	19.685
327.56	19.842
327.92	19.355
328.29	20.403
328.65	20.519
329.01	21.658
329.38	21.820
329.74	22.175
330.11	23.031
330.47	21.567
330.84	21.447
331.20	22.583
331.56	23.484
331.93	22.929
332.29	22.542
332.66	23.588
333.02	21.692
333.38	22.399
333.75	22.727
334.11	23.186
334.48	23.927
334.84	23.874
335.20	22.250
335.57	24.368
335.93	24.380
336.29	23.295
336.66	24.390
337.02	24.582
337.38	24.490
337.75	23.471
338.11	24.643
338.47	24.731
338.84	24.281
339.20	23.589
339.56	24.135
339.93	24.795
340.29	24.477
340.65	24.493
341.02	25.698
341.38	25.303
341.74	25.182
342.11	25.101
342.47	24.464
342.83	24.799
343.20	25.838
343.56	25.501
343.92	24.740
344.28	25.234
344.65	26.434
345.01	25.351
345.37	24.572
345.73	24.162
346.10	25.117
346.46	26.266
346.82	25.468
347.19	26.509
347.55	26.404
347.91	26.003
348.27	25.569
348.63	26.123
349.00	26.174
349.36	26.617
349.72	25.670
350.08	27.043
350.45	25.247
350.81	26.094
351.17	25.940
351.53	26.535
351.89	25.209
352.26	26.119
352.62	26.791
352.98	26.260
353.34	26.736
353.70	26.810
354.07	26.751
354.43	27.563
354.79	27.001
355.15	26.784
355.51	27.412
355.87	26.028
356.24	28.365
356.60	26.016
356.96	26.612
357.32	26.468
357.68	27.965
358.04	27.470
358.40	27.313
358.77	27.412
359.13	27.105
359.49	27.584
359.85	27.121
360.21	26.973
360.57	27.279
360.93	28.138
361.29	28.211
361.66	28.240
362.02	29.784
362.38	27.829
362.74	28.841
363.10	28.680
363.46	28.947
363.82	29.048
364.18	29.064
364.54	28.631
364.90	28.227
365.26	28.552
365.62	29.133
365.98	27.978
366.35	28.926
366.71	29.320
367.07	29.026
367.43	29.678
367.79	30.192
368.15	29.967
368.51	29.973
368.87	30.111
369.23	30.267
369.59	30.669
369.95	29.074
370.31	29.980
370.67	30.124
371.03	30.609
371.39	30.557
371.75	31.637
372.11	30.691
372.47	31.009
372.83	30.039
373.19	31.354
373.55	31.572
373.91	30.334
374.27	31.371
374.63	31.597
374.99	32.692
375.35	31.558
375.71	32.323
376.07	31.440
376.42	32.053
376.78	31.075
377.14	32.314
377.50	32.132
377.86	32.635
378.22	32.395
378.58	33.234
378.94	32.394
379.30	32.455
379.66	33.745
380.02	33.179
380.38	33.583
380.74	32.451
381.09	33.449
381.45	32.330
381.81	34.309
382.17	33.551
382.53	32.807
382.89	33.070
383.25	35.346
383.61	32.697
383.97	33.922
384.32	34.450
384.68	34.107
385.04	34.413
385.40	35.062
385.76	35.698
386.12	34.949
386.48	35.412
386.83	34.625
387.19	34.473
387.55	34.390
387.91	35.559
388.27	34.700
388.62	34.593
388.98	34.631
389.34	35.415
389.70	34.805
390.06	35.702
390.42	34.639
390.77	36.544
391.13	35.211
391.49	36.715
391.85	35.515
392.20	34.579
392.56	35.854
392.92	36.150
393.28	36.816
393.64	35.140
393.99	36.432
394.35	36.273
394.71	35.928
395.07	35.868
395.42	35.180
395.78	36.746
396.14	37.374
396.50	36.342
396.85	35.540
397.21	37.041
397.57	35.571
397.92	37.457
398.28	36.067
398.64	36.499
399.00	35.026
399.35	36.021
399.71	36.033
400.07	36.103
400.42	37.485
400.78	36.748
401.14	36.995
401.49	36.441
401.85	37.035
402.21	37.543
402.57	37.500
402.92	38.061
403.28	35.890
403.63	36.396
403.99	36.283
404.35	36.043
404.70	36.544
405.06	37.065
405.42	38.115
405.77	37.459
406.13	36.845
406.49	36.937
406.84	36.953
407.20	37.172
407.55	36.584
407.91	36.958
408.27	36.160
408.62	36.358
408.98	36.796
409.34	36.833
409.69	37.145
410.05	37.397
410.40	37.645
410.76	37.128
411.11	36.704
411.47	37.531
411.83	37.566
412.18	38.373
412.54	37.226
412.89	36.962
413.25	38.036
413.60	37.105
413.96	36.480
414.31	36.714
414.67	37.984
415.03	36.246
415.38	37.011
415.74	36.652
416.09	36.891
416.45	36.882
416.80	37.393
417.16	37.037
417.51	37.484
417.87	36.910
418.22	37.485
418.58	37.361
418.93	36.845
419.29	37.053
419.64	37.095
420.00	37.151
420.35	37.002
420.71	37.163
421.06	36.573
421.42	37.385
421.77	36.995
422.12	36.892
422.48	37.122
422.83	37.733
423.19	36.552
423.54	38.385
423.90	36.886
424.25	37.547
424.61	36.797
424.96	37.452
425.31	37.473
425.67	36.286
426.02	36.746
426.38	36.739
426.73	37.165
427.09	37.255
427.44	36.100
427.79	36.816
428.15	36.758
428.50	37.303
428.85	37.371
429.21	37.660
429.56	37.019
429.92	36.511
430.27	37.205
430.62	37.958
430.98	36.990
431.33	36.413
431.68	35.824
432.04	36.872
432.39	36.743
432.74	35.902
433.10	38.129
433.45	35.730
433.80	36.427
434.16	36.570
434.51	37.205
434.86	37.296
435.22	36.876
435.57	36.792
435.92	37.396
436.28	37.201
436.63	36.920
436.98	37.198
437.34	36.866
437.69	36.764
438.04	37.388
438.39	37.507
438.75	36.801
439.10	37.051
439.45	37.842
439.81	36.836
440.16	37.051
440.51	36.566
440.86	36.576
441.22	36.924
441.57	37.998
441.92	36.372
442.27	37.475
442.63	37.009
442.98	37.086
443.33	36.612
443.68	37.463
444.03	38.053
444.39	37.124
444.74	36.907
445.09	36.543
445.44	37.513
445.79	37.404
446.15	36.896
446.50	36.382
446.85	37.160
447.20	36.799
447.55	36.192
447.91	36.178
448.26	36.469
448.61	36.451
448.96	37.017
449.31	35.578
449.66	35.893
450.02	37.184
450.37	37.027
450.72	37.191
451.07	35.592
451.42	37.088
451.77	36.354
452.12	36.343
452.47	36.482
452.83	36.543
453.18	36.311
453.53	36.014
453.88	34.787
454.23	35.706
454.58	36.506
454.93	35.498
455.28	35.942
455.63	36.612
455.98	36.760
456.34	35.984
456.69	36.214
457.04	36.170
457.39	35.089
457.74	36.689
458.09	35.585
458.44	35.722
458.79	35.843
459.14	36.025
459.49	35.257
459.84	35.782
460.19	34.925
460.54	35.207
460.89	34.886
461.24	35.345
461.59	35.252
461.94	34.455
462.29	34.714
462.64	34.641
462.99	34.024
463.34	35.886
463.69	34.877
464.04	35.464
464.39	34.305
464.74	34.436
465.09	34.660
465.44	34.388
465.79	34.109
466.14	33.246
466.49	34.579
466.84	35.152
467.19	34.566
467.54	33.431
467.89	33.563
468.24	34.238
468.59	33.642
468.94	33.100
469.29	33.413
469.64	33.821
469.99	34.289
470.34	32.673
470.68	33.219
471.03	33.595
471.38	33.290
471.73	33.095
472.08	34.327
472.43	33.173
472.78	32.557
473.13	32.933
473.48	32.749
473.83	32.966
474.17	32.591
474.52	32.411
474.87	32.890
475.22	33.408
475.57	31.776
475.92	32.404
476.27	31.896
476.61	32.139
476.96	32.273
477.31	31.980
477.66	32.581
478.01	30.910
478.36	31.406
478.70	31.675
479.05	32.209
479.40	31.688
479.75	32.469
480.10	31.217
480.45	31.951
480.79	31.156
481.14	31.112
481.49	31.168
481.84	31.636
482.19	31.183
482.53	31.745
482.88	31.103
483.23	31.747
483.58	31.092
483.92	29.699
484.27	30.186
484.62	30.198
484.97	30.871
485.31	30.130
485.66	29.193
486.01	29.067
486.36	29.940
486.70	31.246
487.05	30.725
487.40	30.323
487.75	30.331
488.09	30.290
488.44	29.223
488.79	29.545
489.13	29.870
489.48	28.583
489.83	28.491
490.17	29.000
490.52	28.079
490.87	29.442
491.22	29.853
491.56	29.437
491.91	29.394
492.26	29.078
492.60	28.640
492.95	29.487
493.30	28.866
493.64	28.559
493.99	28.114
494.34	28.005
494.68	28.180
495.03	28.502
495.37	28.362
495.72	28.345
496.07	28.221
496.41	27.585
496.76	27.898
497.11	28.195
497.45	28.442
497.80	28.254
498.14	28.299
498.49	27.849
498.84	26.737
499.18	27.845
499.53	27.265
499.87	27.604
500.22	27.115
500.56	27.215
500.91	26.865
501.26	27.045
501.60	26.513
501.95	27.442
502.29	26.810
502.64	27.853
502.98	26.747
503.33	26.566
503.67	26.777
504.02	26.489
504.36	27.256
504.71	26.367
505.06	26.285
505.40	26.737
505.75	26.412
506.09	26.980
506.44	26.602
506.78	25.872
507.13	25.588
507.47	25.628
507.82	26.042
508.16	25.717
508.51	25.457
508.85	25.697
509.19	25.912
509.54	26.273
509.88	25.789
510.23	26.081
510.57	26.196
510.92	25.351
511.26	24.772
511.61	24.288
511.95	25.232
512.30	24.963
512.64	24.138
512.98	25.413
513.33	25.151
513.67	25.548
514.02	24.936
514.36	25.627
514.70	24.948
515.05	25.078
515.39	24.409
515.74	24.496
516.08	24.617
516.42	25.118
516.77	24.553
517.11	23.930
517.46	24.814
517.80	24.319
518.14	24.483
518.49	23.048
518.83	24.002
519.17	23.371
519.52	23.270
519.86	23.759
520.20	24.175
520.55	23.549
520.89	22.691
521.23	23.227
521.58	22.768
521.92	22.946
522.26	23.368
522.61	23.553
522.95	22.953
523.29	23.218
523.64	22.758
523.98	23.217
524.32	24.011
524.66	23.392
525.01	23.273
525.35	22.516
525.69	22.448
526.04	22.675
526.38	23.908
526.72	22.088
527.06	22.757
527.41	22.566
527.75	22.922
528.09	22.550
528.43	22.262
528.78	22.659
529.12	22.305
529.46	22.147
529.80	22.426
530.15	21.971
530.49	22.479
530.83	21.429
531.17	22.401
531.51	21.661
531.86	22.115
532.20	23.476
532.54	21.125
532.88	22.303
533.22	21.567
533.57	21.754
533.91	22.110
534.25	21.651
534.59	21.782
534.93	21.166
535.27	20.620
535.62	21.433
535.96	21.034
536.30	21.504
536.64	22.282
536.98	22.017
537.32	21.605
537.66	20.774
538.01	20.846
538.35	20.828
538.69	20.553
539.03	21.704
539.37	21.790
539.71	20.721
540.05	20.683
540.39	20.844
540.73	20.644
541.07	20.846
541.42	20.732
541.76	20.819
542.10	20.567
542.44	19.976
542.78	20.499
543.12	20.024
543.46	20.818
543.80	19.664
544.14	20.586
544.48	19.799
544.82	19.868
545.16	20.572
545.50	19.473
545.84	20.208
546.18	20.741
546.52	20.446
546.86	20.943
547.20	19.911
547.54	20.037
547.88	19.590
548.22	19.591
548.56	19.485
548.90	18.985
549.24	20.365
549.58	20.000
549.92	19.452
550.26	19.223
550.60	19.719
550.94	19.534
551.28	19.736
551.62	18.598
551.96	19.482
552.30	19.822
552.64	19.913
552.98	19.152
553.32	19.228
553.66	19.936
554.00	19.483
554.34	18.597
554.68	19.174
555.02	18.988
555.36	19.395
555.69	18.642
556.03	19.357
556.37	19.962
556.71	18.009
557.05	18.786
557.39	18.845
557.73	19.551
558.07	18.742
558.41	18.870
558.75	18.256
559.08	18.928
559.42	18.861
559.76	18.725
560.10	18.620
560.44	18.602
560.78	18.938
561.12	18.534
561.45	18.856
561.79	18.071
562.13	18.731
562.47	17.818
562.81	18.608
563.15	18.182
563.48	18.086
563.82	18.319
564.16	17.868
564.50	18.653
564.84	17.758
565.17	17.353
565.51	17.261
565.85	18.824
566.19	17.800
566.52	17.671
566.86	17.600
567.20	17.455
567.54	17.738
567.88	18.196
568.21	16.947
568.55	17.458
568.89	17.476
569.23	17.533
569.56	16.960
569.90	16.892
570.24	17.302
570.57	16.966
570.91	16.840
571.25	16.864
571.59	16.755
571.92	16.684
572.26	16.702
572.60	16.680
572.93	16.282
573.27	17.027
573.61	16.464
573.95	16.485
574.28	16.375
574.62	16.803
574.96	15.946
575.29	15.929
575.63	16.355
575.97	16.814
576.30	16.482
576.64	16.702
576.98	16.560
577.31	16.513
577.65	16.447
577.98	16.472
578.32	15.867
578.66	16.265
578.99	15.974
579.33	16.563
579.67	15.956
580.00	15.756
580.34	16.143
580.67	16.196
581.01	16.140
581.35	15.878
581.68	15.901
582.02	15.945
582.35	16.014
582.69	16.114
583.02	15.941
583.36	16.040
583.70	16.065
584.03	15.767
584.37	15.848
584.70	15.697
585.04	15.299
585.37	15.643
585.71	15.793
586.04	15.742
586.38	15.529
586.72	15.342
587.05	15.400
587.39	15.807
587.72	15.718
588.06	15.546
588.39	15.584
588.73	15.370
589.06	15.322
589.40	15.642
589.73	15.649
590.07	15.816
590.40	16.396
590.73	15.447
591.07	15.748
591.40	15.241
591.74	15.461
592.07	15.104
592.41	15.615
592.74	15.193
593.08	15.892
593.41	15.661
593.75	14.914
594.08	14.905
594.41	15.577
594.75	15.377
595.08	14.872
595.42	15.390
595.75	15.725
596.09	15.351
596.42	15.335
596.75	15.515
597.09	16.000
597.42	14.859
597.75	15.014
598.09	15.476
598.42	15.038
598.76	14.635
599.09	14.382
599.42	14.616
599.76	14.625
600.09	15.382
600.42	14.882
600.76	14.630
601.09	14.471
601.42	14.555
601.76	15.207
602.09	15.011
602.42	14.467
602.76	14.797
603.09	14.684
603.42	14.776
603.76	14.376
604.09	15.082
604.42	15.046
604.76	14.954
605.09	14.639
605.42	14.952
605.75	14.808
606.09	14.222
606.42	14.484
606.75	14.543
607.09	13.902
607.42	14.605
607.75	14.459
608.08	14.444
608.42	14.672
608.75	14.760
609.08	14.261
609.41	14.204
609.75	14.732
610.08	14.424
610.41	14.061
610.74	14.580
611.07	14.742
611.41	15.202
611.74	14.503
612.07	14.540
612.40	14.496
612.73	14.523
613.07	14.621
613.40	14.389
613.73	14.636
614.06	14.671
614.39	14.043
614.72	13.974
615.06	13.956
615.39	14.210
615.72	14.408
616.05	14.667
616.38	14.682
616.71	14.943
617.05	14.217
617.38	14.339
617.71	14.525
618.04	14.679
618.37	13.934
618.70	15.271
619.03	13.978
619.36	13.933
619.69	13.389
620.03	13.873
620.36	14.049
620.69	14.559
621.02	14.567
621.35	14.514
621.68	15.257
622.01	13.523
622.34	14.086
622.67	15.052
623.00	12.281
623.33	15.196
623.66	14.786
623.99	13.167
624.32	14.360
624.65	14.093
624.99	14.499
625.32	13.978
625.65	13.958
625.98	14.102
626.31	14.316
626.64	13.993
626.97	14.179
627.30	13.819
627.63	13.578
627.96	14.790
628.29	14.008
628.62	13.602
628.95	14.198
629.28	13.339
629.61	14.478
629.94	13.473
630.26	13.220
630.59	14.421
630.92	12.814
631.25	14.132
631.58	15.160
631.91	13.402
632.24	14.121
632.57	13.757
632.90	14.142
633.23	14.694
633.56	14.082
633.89	14.256
634.22	15.385
634.55	14.614
634.88	13.095
635.20	14.747
635.53	13.107
635.86	13.651
636.19	15.483
636.52	14.135
636.85	15.117
637.18	13.617
637.51	14.194
637.83	13.621
638.16	15.207
638.49	13.615
638.82	15.107
639.15	13.402
639.48	14.319
639.81	13.972
640.13	14.959
640.46	13.818
640.79	14.583
641.12	14.161
641.45	14.178
641.77	15.533
642.10	12.730
642.43	14.096
642.76	13.686
643.09	13.973
643.41	14.426
643.74	13.241
644.07	15.172
644.40	14.003
644.73	12.337
645.05	13.216
645.38	12.950
645.71	14.516
646.04	12.912
646.36	12.701
646.69	13.344
647.02	15.443
647.35	15.725
647.67	14.493
648.00	13.535
648.33	14.114
648.66	13.124
648.98	13.333
649.31	12.855
649.64	13.015
649.96	13.528
650.29	12.378
650.62	14.003
650.94	14.565
651.27	12.425
651.60	14.620
651.92	10.638
652.25	13.314
652.58	12.655
652.90	11.337
653.23	12.958
653.56	13.124
653.88	13.343
654.21	13.380
654.54	12.861
654.86	14.306
655.19	10.916
655.52	12.450
655.84	11.814
656.17	14.420
656.49	20.372
656.82	22.678
657.15	17.841
657.47	13.502
657.80	9.898
658.13	7.955
658.45	10.264
658.78	12.581
659.10	12.014
659.43	11.939
659.75	11.917
660.08	11.709
660.41	11.745
660.73	11.973
661.06	12.188
661.38	12.600
661.71	13.103
662.03	12.522
662.36	14.132
662.68	14.822
663.01	12.566
663.33	15.312
663.66	15.018
663.98	14.423
664.31	14.634
664.63	11.753
664.96	13.430
665.28	10.526
665.61	13.811
665.93	12.857
666.26	12.366
666.58	11.439
666.91	14.206
667.23	15.238
667.56	13.412
667.88	12.400
668.21	12.695
668.53	12.355
668.86	12.967
669.18	11.813
669.50	15.308
669.83	9.600
670.15	12.992
670.48	12.500
670.80	11.855
671.13	13.422
671.45	12.008
671.77	15.254
672.10	10.500
672.42	12.783
672.75	11.521
673.07	13.433
673.39	14.022
673.72	13.758
674.04	14.138
674.37	12.343
674.69	15.873
675.01	11.238
675.34	13.359
675.66	13.296
675.98	14.739
676.31	13.672
676.63	15.589
676.95	14.559
677.28	13.710
677.60	10.433
677.92	14.587
678.25	15.174
678.57	13.167
678.89	15.188
679.22	11.672
679.54	12.137
679.86	11.186
680.18	10.116
680.51	12.579
680.83	13.584
681.15	12.414
681.48	13.126
681.80	13.644
682.12	12.238
682.44	11.686
682.77	14.184
683.09	12.879
683.41	13.953
683.73	13.283
684.06	13.284
684.38	10.555
684.70	12.567
685.02	12.909
685.34	10.150
685.67	12.618
685.99	11.810
686.31	11.773
686.63	13.586
686.96	12.618
687.28	11.889
687.60	10.606
687.92	12.379
688.24	13.856
688.56	11.552
688.89	13.612
689.21	13.894
689.53	11.961
689.85	11.637
690.17	11.481
690.49	11.554
690.82	12.673
691.14	11.538
691.46	12.237
691.78	13.628
692.10	11.193
692.42	10.536
692.74	13.793
693.06	10.556
693.39	12.713
693.71	9.586
694.03	10.967
694.35	11.238
694.67	13.963
694.99	11.489
695.31	14.128
695.63	12.554
695.95	13.665
696.27	10.769
696.59	12.832
696.91	12.613
697.23	12.967
697.56	10.794
697.88	12.879
698.20	12.429
698.52	13.447
698.84	14.553
699.16	15.102
699.48	12.134
699.80	12.340
700.12	13.319
700.44	10.599
700.76	12.352
701.08	12.107
701.40	13.472
701.72	13.184
702.04	13.369
702.36	9.424
702.68	11.980
703.00	11.980
703.32	9.852
703.64	12.225
703.96	13.126
704.28	11.302
704.60	13.418
704.91	11.735
705.23	13.973
705.55	11.978
705.87	9.697
706.19	15.031
706.51	12.349
706.83	10.951
707.15	12.169
707.47	9.112
707.79	10.480
708.11	8.475
708.43	11.183
708.74	7.812
709.06	10.209
709.38	11.737
709.70	12.407
710.02	13.695
710.34	14.362
710.66	11.173
710.98	12.842
711.29	11.264
711.61	10.734
711.93	11.681
712.25	11.081
712.57	15.634
712.89	19.118
713.20	9.763
713.52	12.428
713.84	10.864
714.16	15.263
714.48	11.082
714.80	13.766
715.11	9.974
715.43	10.875
715.75	13.947
716.07	12.155
716.39	12.568
716.70	12.048
717.02	8.852
717.34	11.498
717.66	11.074
717.97	9.589
718.29	13.058
718.61	11.513
718.93	11.003
719.24	9.938
719.56	12.883
719.88	9.910
720.20	11.290
720.51	10.559
720.83	11.875
721.15	7.895
721.46	6.849
721.78	9.667
722.10	8.738
722.42	10.067
722.73	12.581
723.05	11.228
723.37	11.806
723.68	13.620
724.00	9.747
724.32	11.620
724.63	10.839
724.95	13.475
725.27	10.105
725.58	8.834
725.90	12.414
726.22	13.166
726.53	10.714
726.85	10.692
727.16	11.480
727.48	12.232
727.80	12.252
728.11	10.954
728.43	11.448
728.74	14.047
729.06	11.258
729.38	12.338
729.69	8.725
730.01	9.524
730.32	9.394
730.64	11.635
730.96	8.385
731.27	11.732
731.59	13.187
731.90	9.610
732.22	12.240
732.53	8.564
732.85	10.857
733.16	9.971
733.48	10.671
733.80	10.306
734.11	11.966
734.43	12.432
734.74	13.924
735.06	12.060
735.37	11.622
735.69	10.000
736.00	13.277
736.32	11.860
736.63	11.944
736.95	11.207
737.26	11.818
737.58	8.788
737.89	13.824
738.21	5.199
738.52	9.180
738.83	13.311
739.15	13.121
739.46	12.245
739.78	11.963
740.09	9.456
740.41	14.577
740.72	7.667
741.04	15.210
741.35	14.737
741.66	11.373
741.98	15.984
742.29	12.552
742.61	14.474
742.92	13.077
743.23	12.635
743.55	13.566
743.86	13.200
744.18	5.372
744.49	12.658
744.80	12.757
745.12	8.439
745.43	13.821
745.74	12.069
746.06	5.932
746.37	14.346
746.68	10.569
747.00	10.833
747.31	11.159
747.62	14.231
747.94	6.883
748.25	9.639
748.56	9.388
748.88	11.538
749.19	14.224
749.50	8.658
749.82	12.450
750.13	9.609
750.44	7.667
750.75	12.000
751.07	9.538
751.38	9.148
751.69	11.821
752.01	9.061
752.32	13.072
752.63	12.245
752.94	11.765
753.26	11.152
753.57	7.778
753.88	4.869
754.19	13.183
754.51	7.717
754.82	12.540
755.13	16.066
755.44	11.263
755.75	13.158
756.07	12.537
756.38	13.208
756.69	12.952
757.00	9.695
757.31	10.109
757.63	9.974
757.94	9.624
758.25	11.738
758.56	8.061
758.87	11.591
759.18	9.867
759.50	11.898
759.81	13.165
760.12	9.973
760.43	9.896
760.74	9.360
761.05	10.000
761.36	7.952
761.67	10.914
761.99	10.541
762.30	10.366
762.61	8.911
762.92	9.328
763.23	8.240
763.54	12.590
763.85	9.278
764.16	10.101
764.47	8.803
764.78	10.543
765.10	8.504
765.41	15.128
765.72	8.201
766.03	11.864
766.34	10.972
766.65	7.666
766.96	7.968
767.27	11.982
767.58	4.975
767.89	18.750
768.20	8.451
768.51	14.815
768.82	9.639
769.13	12.121
769.44	5.769
769.75	12.996
770.06	13.077
770.37	16.929
770.68	8.085
770.99	4.453
771.30	12.593
771.61	10.266
771.92	10.000
772.23	10.931
772.54	9.259
772.85	14.286
773.16	8.095
773.47	10.053
773.78	5.405
774.09	10.227
774.39	19.000
774.70	14.208
775.01	4.878
775.32	4.706
775.63	11.656
775.94	2.548
776.25	12.258
776.56	14.744
776.87	20.408
777.18	10.345
777.48	11.189
777.79	10.135
778.10	-1.471
778.41	11.806
778.72	6.897
779.03	11.728
779.34	13.333
779.65	12.953
779.95	13.889
780.26	11.932
780.57	10.968
780.88	13.043
781.19	14.839
781.50	18.824
781.80	12.903
782.11	15.873
782.42	5.556
782.73	6.587
783.04	12.291
783.34	7.273
783.65	7.843
783.96	11.801
784.27	12.500
784.57	10.596
784.88	7.857
785.19	7.874
785.50	4.724
785.81	9.023
786.11	13.077
786.42	7.194
786.73	17.266
787.04	13.534
787.34	4.918
787.65	16.800
787.96	7.463
788.26	18.182
788.57	11.888
788.88	8.553
789.19	16.993
789.49	13.014
789.80	14.184
790.11	12.598
790.41	10.156
790.72	10.169
791.03	1.942
791.33	11.304
791.64	22.807
791.95	3.571
792.25	16.190
792.56	14.286
792.87	6.250
793.17	9.821
793.48	8.333
793.79	6.024
794.09	11.927
794.40	8.257
794.70	9.524
795.01	7.143
795.32	6.849
795.62	14.085
795.93	6.818
796.23	15.574
796.54	5.357
796.85	9.574
797.15	7.609
797.46	8.219
797.76	3.750
798.07	22.826
798.37	-4.124
798.68	9.091
798.99	11.494
799.29	11.236
799.60	8.511
799.90	3.614
800.21	-1.538
800.51	4.478
800.82	1.471
801.12	-2.740
801.43	1.471
801.73	5.085
802.04	19.697
802.34	-6.667
802.65	5.085
802.95	13.433
803.26	-13.559
803.56	2.740
803.87	14.286
804.17	13.699
804.48	-5.263
804.78	1.389
805.09	-27.586
805.39	12.162
805.70	7.042
806.00	10.976
806.30	12.048
806.61	17.808
806.91	15.385
807.22	5.556
807.52	5.747
807.83	16.667
808.13	24.096
808.43	13.483
808.74	0.000
809.04	1.471
809.35	12.000
809.65	5.714
809.95	9.589
810.26	5.263
810.56	3.448
810.86	16.176
811.17	10.526
811.47	4.918
811.77	-13.333
812.08	15.254
812.38	6.667
812.69	18.966
812.99	13.208
813.29	-20.513
813.59	10.000
813.90	28.070
814.20	5.455
814.50	12.676
814.81	11.538
815.11	4.918
815.41	16.418
815.72	20.690
816.02	16.071
816.32	37.778
816.62	6.818
816.93	2.222
817.23	18.519
817.53	4.255
817.84	42.857
818.14	17.647
818.44	-2.041
818.74	4.444
819.04	-20.513
819.35	-20.000
819.65	-19.231
819.95	7.547
820.25	22.222
820.56	9.524
820.86	3.125
821.16	23.077
821.46	-9.302
821.76	-10.000
822.07	12.500
822.37	21.739
822.67	6.383
822.97	-43.243
823.27	5.000
823.57	22.449
823.88	33.333
824.18	20.000
824.48	-13.333
824.78	16.000
825.08	15.152
825.38	28.889
825.69	6.383
825.99	16.667
826.29	-45.714
826.59	2.564
826.89	-16.279
827.19	16.000
827.49	-8.824
827.79	18.750
828.09	-8.108
828.39	-13.333
828.70	9.756
829.00	27.907
829.30	-10.714
829.60	26.471
829.90	-4.348
830.20	-5.714
830.50	17.241
830.80	44.444
831.10	-26.923
831.40	17.647
831.70	38.095
832.00	22.581
832.30	-94.118
832.60	-37.500
832.90	-15.385
833.20	-10.526
833.50	-5.000
833.80	0.000
834.10	-19.048
834.40	30.556
834.70	21.875
835.00	-8.571
835.30	-5.882
835.60	3.333
835.90	36.000
836.20	-31.818
836.50	-4.000
836.80	-18.182
837.10	-14.815
837.40	33.333
837.70	-50.000
838.00	46.429
838.30	-4.348
838.60	27.586
838.90	21.429
839.19	8.696
839.49	0.000
839.79	8.696
840.09	-62.500
840.39	-15.000
840.69	19.355
840.99	-17.857
841.29	-66.667
841.59	36.842
841.88	30.769
842.18	-11.538
842.48	-20.000
842.78	5.000
843.08	6.667
843.38	-6.452
843.68	-27.778
843.97	11.765
844.27	-18.750
844.57	10.526
844.87	-20.000
845.17	-53.333
845.47	28.571
845.76	9.524
846.06	33.333
846.36	-82.353
846.66	30.769
846.96	13.333
847.25	-17.647
847.55	30.435
847.85	20.000
848.15	-11.765
848.44	45.455
848.74	47.619
849.04	-16.667
849.34	-25.000
849.63	-26.087
849.93	500.000
850.23	6.667
850.53	42.308
850.82	27.273
851.12	31.818
851.42	63.636
851.71	69.231
852.01	0.000
852.31	-23.077
852.61	-36.842
852.90	108.333
853.20	50.000
853.50	-22.222
853.79	-28.571
854.09	0.000
854.39	-91.667
854.68	-25.806
854.98	-11.538
855.28	16.667
855.57	-28.571
855.87	24.000
856.17	13.636
856.46	3.704
856.76	-5.556
857.05	0.000
857.35	0.000
857.65	-92.308
857.94	42.857
858.24	40.741
858.53	47.826
858.83	-23.529
859.13	23.529
859.42	5.882
859.72	14.286
860.01	10.000
860.31	-77.778
860.60	50.000
860.90	66.667
861.20	33.333
861.49	-15.385
861.79	36.667
862.08	53.846
862.38	25.000
862.67	70.588
862.97	18.750
863.26	22.222
863.56	30.000
863.85	0.000
864.15	-16.667
864.44	166.667
864.74	35.714
865.03	25.000
865.33	10.000
865.62	-6.452
865.92	27.273
866.21	21.739
866.51	7.143
866.80	-160.000
867.10	-108.333
867.39	-141.667
867.69	-0.000
867.98	0.000
868.27	11.765
868.57	-1100.000
868.86	-50.000
869.16	-33.333
869.45	66.667
869.75	118.182
870.04	-85.714
870.33	16.667
870.63	-171.429
870.92	225.000
871.22	-75.000
871.51	-90.909
871.80	-366.667
872.10	-250.000
>>>>>End Processed Spectral Data<<<<<
