SpectraSuite Data File
++++++++++++++++++++++++++++++++++++
Date: Thu May 14 16:29:08 PDT 2015
User: schluterlab
Dark Spectrum Present: Yes
Reference Spectrum Present: Yes
Number of Sampled Component Spectra: 1
Spectrometers: USB2E3373
Integration Time (usec): 3000 (USB2E3373)
Spectra Averaged: 3 (USB2E3373)
Boxcar Smoothing: 0 (USB2E3373)
Correct for Electrical Dark: No (USB2E3373)
Strobe/Lamp Enabled: No (USB2E3373)
Correct for Detector Non-linearity: No (USB2E3373)
Correct for Stray Light: No (USB2E3373)
Number of Pixels in Processed Spectrum: 2048
>>>>>Begin Processed Spectral Data<<<<<
178.53	0.000
178.91	171.429
179.29	-400.000
179.67	-700.000
180.04	121.429
180.42	-0.000
180.80	40.000
181.18	300.000
181.56	1100.000
181.94	75.000
182.31	-25.000
182.69	33.333
183.07	100.000
183.45	175.000
183.83	33.333
184.20	66.667
184.58	-200.000
184.96	-50.000
185.34	-11.111
185.72	140.000
186.09	77.778
186.47	350.000
186.85	60.000
187.23	-22.222
187.61	-800.000
187.98	100.000
188.36	400.000
188.74	-175.000
189.12	-66.667
189.49	-43.750
189.87	-87.500
190.25	88.889
190.63	100.000
191.00	22.222
191.38	0.000
191.76	-125.000
192.14	-133.333
192.51	350.000
192.89	66.667
193.27	0.000
193.65	-42.857
194.02	-1400.000
194.40	-85.714
194.78	142.857
195.15	0.000
195.53	36.364
195.91	0.000
196.29	100.000
196.66	-46.154
197.04	-200.000
197.42	71.429
197.79	-300.000
198.17	75.000
198.55	-100.000
198.92	66.667
199.30	25.000
199.68	-9.091
200.05	7.143
200.43	-100.000
200.81	85.714
201.18	0.000
201.56	33.333
201.94	0.000
202.31	166.667
202.69	-11.111
203.07	-800.000
203.44	-11.111
203.82	75.000
204.19	8.333
204.57	50.000
204.95	87.500
205.32	300.000
205.70	-75.000
206.08	33.333
206.45	16.667
206.83	180.000
207.20	-116.667
207.58	-260.000
207.96	0.000
208.33	150.000
208.71	33.333
209.08	133.333
209.46	0.000
209.84	183.333
210.21	-300.000
210.59	350.000
210.96	33.333
211.34	-150.000
211.71	-87.500
212.09	-900.000
212.46	0.000
212.84	300.000
213.22	-20.000
213.59	-100.000
213.97	50.000
214.34	400.000
214.72	66.667
215.09	-50.000
215.47	0.000
215.84	-0.000
216.22	-100.000
216.59	120.000
216.97	-20.000
217.34	-25.000
217.72	37.500
218.09	-100.000
218.47	-75.000
218.84	0.000
219.22	20.000
219.59	11.765
219.97	45.000
220.34	-50.000
220.72	11.111
221.09	100.000
221.47	200.000
221.84	-20.000
222.22	-100.000
222.59	0.000
222.97	87.500
223.34	-120.000
223.72	-500.000
224.09	75.000
224.46	-50.000
224.84	120.000
225.21	85.714
225.59	-100.000
225.96	-25.000
226.34	11.538
226.71	266.667
227.08	-350.000
227.46	0.000
227.83	-50.000
228.21	47.368
228.58	-37.500
228.95	250.000
229.33	8.333
229.70	20.000
230.08	94.737
230.45	-0.000
230.82	-366.667
231.20	50.000
231.57	25.000
231.95	-27.273
232.32	-9.091
232.69	10.000
233.07	250.000
233.44	52.941
233.81	-100.000
234.19	66.667
234.56	50.000
234.93	24.138
235.31	21.053
235.68	55.556
236.05	35.000
236.43	53.846
236.80	64.000
237.17	55.556
237.55	36.364
237.92	10.000
238.29	32.258
238.67	38.636
239.04	52.778
239.41	40.476
239.79	60.870
240.16	35.185
240.53	30.435
240.91	43.137
241.28	27.869
241.65	44.776
242.02	33.784
242.40	40.000
242.77	54.667
243.14	31.707
243.51	31.579
243.89	48.718
244.26	47.525
244.63	51.961
245.00	51.402
245.38	34.211
245.75	26.549
246.12	45.238
246.49	37.984
246.87	50.000
247.24	45.033
247.61	46.711
247.98	37.584
248.36	41.358
248.73	42.945
249.10	44.262
249.47	47.264
249.84	49.215
250.22	39.378
250.59	45.000
250.96	40.909
251.33	42.347
251.70	40.171
252.08	40.417
252.45	46.721
252.82	44.215
253.19	42.969
253.56	38.403
253.94	41.923
254.31	45.833
254.68	44.056
255.05	40.717
255.42	39.796
255.79	42.718
256.16	43.377
256.54	42.053
256.91	43.279
257.28	43.279
257.65	40.446
258.02	40.413
258.39	39.886
258.76	44.954
259.14	43.103
259.51	40.346
259.88	41.643
260.25	44.167
260.62	41.918
260.99	45.355
261.36	45.576
261.73	41.645
262.10	40.110
262.47	42.091
262.85	48.485
263.22	43.117
263.59	42.105
263.96	41.176
264.33	41.432
264.70	41.235
265.07	46.778
265.44	44.671
265.81	41.204
266.18	43.311
266.55	42.857
266.92	44.191
267.29	43.982
267.66	42.794
268.03	42.140
268.40	42.589
268.77	42.597
269.14	41.189
269.51	43.421
269.88	43.033
270.25	42.455
270.62	42.827
270.99	42.424
271.36	43.762
271.73	40.864
272.10	43.086
272.47	42.285
272.84	43.173
273.21	42.485
273.58	42.742
273.95	37.692
274.32	38.593
274.69	40.232
275.06	42.674
275.43	39.002
275.80	39.506
276.17	40.556
276.54	40.299
276.91	38.283
277.28	40.868
277.65	42.011
278.02	40.257
278.39	40.580
278.76	41.301
279.13	40.426
279.50	42.268
279.87	41.503
280.23	37.500
280.60	41.186
280.97	39.474
281.34	40.407
281.71	41.624
282.08	39.867
282.45	39.116
282.82	37.520
283.19	37.803
283.56	40.820
283.92	40.390
284.29	41.232
284.66	38.916
285.03	36.058
285.40	37.403
285.77	39.319
286.14	40.153
286.51	38.204
286.87	40.126
287.24	38.855
287.61	35.874
287.98	39.275
288.35	36.982
288.72	37.722
289.08	38.067
289.45	36.391
289.82	36.898
290.19	36.782
290.56	34.648
290.93	35.093
291.29	37.190
291.66	33.747
292.03	33.786
292.40	37.143
292.77	33.693
293.13	34.506
293.50	32.852
293.87	35.705
294.24	32.133
294.60	32.996
294.97	29.530
295.34	34.699
295.71	30.265
296.08	31.137
296.44	31.373
296.81	31.425
297.18	31.258
297.55	31.368
297.91	30.368
298.28	31.280
298.65	29.251
299.02	29.516
299.38	30.892
299.75	30.023
300.12	29.051
300.48	31.106
300.85	32.171
301.22	30.089
301.59	29.224
301.95	30.282
302.32	30.111
302.69	30.778
303.05	30.033
303.42	29.712
303.79	30.625
304.15	28.917
304.52	29.598
304.89	29.948
305.25	30.538
305.62	27.900
305.99	30.619
306.35	29.234
306.72	29.266
307.09	28.325
307.45	30.745
307.82	28.658
308.19	29.062
308.55	28.062
308.92	29.893
309.29	29.119
309.65	29.825
310.02	29.109
310.38	29.429
310.75	28.738
311.12	30.393
311.48	29.912
311.85	29.630
312.22	30.266
312.58	30.516
312.95	31.740
313.31	30.533
313.68	31.502
314.05	31.798
314.41	31.512
314.78	30.427
315.14	32.759
315.51	34.441
315.87	33.213
316.24	32.694
316.61	33.659
316.97	33.394
317.34	34.127
317.70	34.672
318.07	34.480
318.43	35.459
318.80	35.702
319.16	34.764
319.53	34.362
319.89	33.655
320.26	37.011
320.62	35.195
320.99	36.657
321.35	36.784
321.72	38.698
322.08	37.692
322.45	39.115
322.81	38.448
323.18	37.611
323.54	39.397
323.91	41.281
324.27	40.361
324.64	41.982
325.00	39.303
325.37	41.851
325.73	41.736
326.10	40.714
326.46	43.811
326.83	42.834
327.19	43.150
327.56	43.636
327.92	42.408
328.29	43.629
328.65	44.221
329.01	43.909
329.38	43.892
329.74	45.120
330.11	44.264
330.47	43.471
330.84	45.047
331.20	44.833
331.56	45.407
331.93	45.690
332.29	45.169
332.66	45.100
333.02	44.389
333.38	44.463
333.75	45.202
334.11	43.786
334.48	45.710
334.84	45.200
335.20	43.829
335.57	45.531
335.93	45.537
336.29	43.760
336.66	45.837
337.02	43.645
337.38	46.003
337.75	44.463
338.11	46.341
338.47	44.417
338.84	44.839
339.20	44.566
339.56	42.916
339.93	44.417
340.29	44.928
340.65	44.444
341.02	45.730
341.38	45.594
341.74	45.117
342.11	44.972
342.47	42.097
342.83	45.733
343.20	44.890
343.56	46.111
343.92	44.756
344.28	45.234
344.65	45.426
345.01	45.632
345.37	45.179
345.73	44.115
346.10	44.618
346.46	46.519
346.82	44.719
347.19	43.850
347.55	44.537
347.91	45.542
348.27	45.144
348.63	46.382
349.00	44.072
349.36	44.907
349.72	44.717
350.08	45.319
350.45	46.008
350.81	45.023
351.17	45.263
351.53	45.489
351.89	44.267
352.26	44.403
352.62	45.746
352.98	45.267
353.34	44.511
353.70	45.609
354.07	43.666
354.43	46.090
354.79	44.054
355.15	44.297
355.51	44.518
355.87	45.699
356.24	46.236
356.60	44.346
356.96	45.441
357.32	45.428
357.68	45.681
358.04	44.835
358.40	45.597
358.77	45.395
359.13	45.569
359.49	44.535
359.85	46.701
360.21	46.126
360.57	44.795
360.93	44.922
361.29	45.965
361.66	47.285
362.02	46.138
362.38	45.959
362.74	45.251
363.10	45.873
363.46	46.053
363.82	46.946
364.18	47.220
364.54	46.196
364.90	47.023
365.26	47.172
365.62	46.200
365.98	47.175
366.35	46.510
366.71	46.327
367.07	47.361
367.43	47.603
367.79	47.180
368.15	47.826
368.51	47.361
368.87	46.506
369.23	46.400
369.59	49.590
369.95	47.059
370.31	48.346
370.67	47.387
371.03	47.853
371.39	47.079
371.75	48.212
372.11	48.780
372.47	48.003
372.83	46.924
373.19	46.898
373.55	48.306
373.91	48.125
374.27	48.512
374.63	48.714
374.99	48.342
375.35	50.519
375.71	48.839
376.07	48.483
376.42	48.489
376.78	49.099
377.14	48.284
377.50	49.779
377.86	48.645
378.22	50.060
378.58	50.238
378.94	49.354
379.30	48.916
379.66	48.736
380.02	49.221
380.38	49.770
380.74	48.507
381.09	50.407
381.45	49.545
381.81	51.171
382.17	49.050
382.53	50.643
382.89	49.210
383.25	50.234
383.61	50.174
383.97	49.764
384.32	51.077
384.68	49.188
385.04	50.549
385.40	50.265
385.76	51.055
386.12	50.987
386.48	50.529
386.83	49.523
387.19	51.159
387.55	50.235
387.91	50.000
388.27	50.982
388.62	51.260
388.98	50.197
389.34	50.972
389.70	51.017
390.06	50.681
390.42	50.904
390.77	51.475
391.13	50.176
391.49	51.630
391.85	50.545
392.20	51.542
392.56	50.561
392.92	50.709
393.28	51.907
393.64	50.223
393.99	52.121
394.35	51.986
394.71	51.916
395.07	50.778
395.42	50.828
395.78	53.687
396.14	51.990
396.50	50.416
396.85	50.865
397.21	51.893
397.57	50.236
397.92	52.234
398.28	51.439
398.64	50.686
399.00	50.995
399.35	50.838
399.71	51.250
400.07	51.207
400.42	52.154
400.78	51.042
401.14	51.451
401.49	51.165
401.85	52.267
402.21	52.028
402.57	52.406
402.92	52.009
403.28	51.522
403.63	51.551
403.99	51.069
404.35	50.540
404.70	51.785
405.06	50.054
405.42	50.937
405.77	51.854
406.13	51.756
406.49	51.914
406.84	51.136
407.20	50.307
407.55	50.878
407.91	50.974
408.27	50.353
408.62	50.669
408.98	51.654
409.34	50.968
409.69	50.989
410.05	52.110
410.40	51.740
410.76	50.813
411.11	51.841
411.47	52.088
411.83	52.263
412.18	51.084
412.54	50.741
412.89	51.688
413.25	52.483
413.60	51.177
413.96	51.573
414.31	50.992
414.67	50.686
415.03	50.831
415.38	51.828
415.74	51.374
416.09	50.586
416.45	50.720
416.80	50.245
417.16	51.596
417.51	51.494
417.87	50.215
418.22	50.898
418.58	51.735
418.93	50.640
419.29	52.651
419.64	51.381
420.00	51.098
420.35	50.926
420.71	50.603
421.06	50.834
421.42	52.351
421.77	50.296
422.12	51.110
422.48	51.818
422.83	51.588
423.19	51.830
423.54	51.881
423.90	50.856
424.25	51.520
424.61	51.033
424.96	50.686
425.31	51.539
425.67	50.027
426.02	51.411
426.38	51.780
426.73	50.781
427.09	51.961
427.44	50.792
427.79	50.636
428.15	50.856
428.50	49.944
428.85	50.230
429.21	51.862
429.56	51.135
429.92	52.138
430.27	51.470
430.62	51.343
430.98	51.599
431.33	51.026
431.68	50.096
432.04	51.193
432.39	51.366
432.74	50.342
433.10	51.758
433.45	51.059
433.80	50.429
434.16	51.653
434.51	53.289
434.86	52.552
435.22	51.860
435.57	53.066
435.92	51.530
436.28	51.877
436.63	51.939
436.98	51.369
437.34	52.762
437.69	52.284
438.04	50.820
438.39	52.499
438.75	51.245
439.10	51.797
439.45	52.543
439.81	52.034
440.16	50.831
440.51	52.676
440.86	51.251
441.22	51.340
441.57	52.778
441.92	51.358
442.27	53.030
442.63	51.316
442.98	52.508
443.33	52.499
443.68	52.775
444.03	52.775
444.39	52.104
444.74	51.608
445.09	51.546
445.44	52.634
445.79	52.011
446.15	52.724
446.50	51.214
446.85	52.286
447.20	52.273
447.55	52.354
447.91	52.094
448.26	53.383
448.61	51.860
448.96	53.594
449.31	51.538
449.66	51.634
450.02	51.371
450.37	52.104
450.72	53.122
451.07	51.936
451.42	51.646
451.77	51.362
452.12	52.427
452.47	51.872
452.83	52.703
453.18	51.430
453.53	51.235
453.88	51.077
454.23	51.469
454.58	51.538
454.93	51.153
455.28	50.692
455.63	51.279
455.98	52.179
456.34	52.945
456.69	51.382
457.04	52.660
457.39	51.275
457.74	52.069
458.09	49.863
458.44	51.994
458.79	50.387
459.14	50.970
459.49	53.028
459.84	51.836
460.19	51.305
460.54	52.697
460.89	52.038
461.24	52.644
461.59	51.245
461.94	50.200
462.29	50.504
462.64	51.418
462.99	50.282
463.34	51.590
463.69	49.883
464.04	51.140
464.39	50.953
464.74	50.114
465.09	51.788
465.44	50.322
465.79	49.180
466.14	50.234
466.49	49.632
466.84	51.350
467.19	50.289
467.54	48.884
467.89	48.908
468.24	49.086
468.59	48.755
468.94	49.942
469.29	48.050
469.64	48.570
469.99	47.419
470.34	48.329
470.68	49.761
471.03	49.509
471.38	49.575
471.73	49.350
472.08	49.746
472.43	48.706
472.78	48.992
473.13	49.431
473.48	47.855
473.83	49.623
474.17	48.066
474.52	50.331
474.87	48.616
475.22	49.183
475.57	48.858
475.92	48.731
476.27	48.403
476.61	47.664
476.96	47.185
477.31	48.762
477.66	48.846
478.01	48.043
478.36	48.006
478.70	48.030
479.05	48.108
479.40	49.408
479.75	47.310
480.10	48.792
480.45	47.630
480.79	47.664
481.14	47.197
481.49	47.706
481.84	47.694
482.19	47.656
482.53	48.972
482.88	48.117
483.23	47.799
483.58	46.681
483.92	46.587
484.27	47.079
484.62	47.401
484.97	46.812
485.31	46.498
485.66	45.099
486.01	46.500
486.36	47.712
486.70	48.346
487.05	48.415
487.40	47.179
487.75	46.514
488.09	46.464
488.44	44.821
488.79	45.767
489.13	45.728
489.48	45.165
489.83	45.030
490.17	44.998
490.52	44.910
490.87	45.897
491.22	45.277
491.56	44.966
491.91	44.570
492.26	45.478
492.60	44.556
492.95	44.274
493.30	45.361
493.64	44.766
493.99	44.386
494.34	44.338
494.68	43.983
495.03	45.110
495.37	44.696
495.72	44.263
496.07	44.479
496.41	43.501
496.76	43.995
497.11	45.393
497.45	44.325
497.80	44.514
498.14	44.127
498.49	43.796
498.84	43.601
499.18	44.085
499.53	43.632
499.87	43.648
500.22	43.232
500.56	43.005
500.91	44.073
501.26	43.636
501.60	43.084
501.95	44.507
502.29	43.045
502.64	43.376
502.98	42.666
503.33	42.419
503.67	42.695
504.02	42.820
504.36	42.940
504.71	44.006
505.06	43.247
505.40	42.367
505.75	42.668
506.09	42.772
506.44	42.665
506.78	42.615
507.13	42.324
507.47	42.965
507.82	41.714
508.16	42.017
508.51	41.163
508.85	41.852
509.19	41.829
509.54	42.843
509.88	41.816
510.23	42.399
510.57	42.146
510.92	42.332
511.26	40.596
511.61	40.126
511.95	41.093
512.30	40.916
512.64	39.830
512.98	40.020
513.33	41.784
513.67	40.031
514.02	40.623
514.36	40.921
514.70	40.938
515.05	40.824
515.39	40.735
515.74	41.198
516.08	40.042
516.42	40.031
516.77	41.062
517.11	39.866
517.46	39.502
517.80	41.796
518.14	41.186
518.49	40.401
518.83	39.596
519.17	38.665
519.52	39.256
519.86	39.071
520.20	39.723
520.55	38.226
520.89	38.964
521.23	38.638
521.58	40.395
521.92	39.207
522.26	37.629
522.61	39.352
522.95	38.293
523.29	38.563
523.64	38.845
523.98	40.445
524.32	39.656
524.66	39.101
525.01	38.448
525.35	38.656
525.69	38.631
526.04	37.543
526.38	39.080
526.72	38.581
527.06	38.886
527.41	38.309
527.75	39.252
528.09	38.076
528.43	37.655
528.78	37.110
529.12	38.589
529.46	37.662
529.80	37.643
530.15	39.130
530.49	37.960
530.83	38.017
531.17	37.395
531.51	37.846
531.86	38.582
532.20	37.744
532.54	36.864
532.88	37.333
533.22	37.301
533.57	37.334
533.91	38.328
534.25	37.422
534.59	37.989
534.93	38.257
535.27	37.465
535.62	38.204
535.96	38.117
536.30	38.073
536.64	38.078
536.98	37.761
537.32	38.025
537.66	37.305
538.01	37.281
538.35	36.602
538.69	36.418
539.03	37.584
539.37	38.045
539.71	37.117
540.05	37.890
540.39	36.919
540.73	36.916
541.07	36.971
541.42	36.326
541.76	36.299
542.10	37.636
542.44	36.054
542.78	36.861
543.12	36.293
543.46	37.607
543.80	36.091
544.14	36.086
544.48	37.293
544.82	37.163
545.16	36.852
545.50	36.489
545.84	36.191
546.18	37.222
546.52	36.497
546.86	36.541
547.20	36.578
547.54	35.705
547.88	36.709
548.22	35.731
548.56	36.688
548.90	35.642
549.24	36.049
549.58	35.205
549.92	34.311
550.26	35.469
550.60	35.418
550.94	36.546
551.28	35.116
551.62	35.108
551.96	34.563
552.30	36.966
552.64	36.652
552.98	35.621
553.32	36.270
553.66	35.756
554.00	36.381
554.34	35.264
554.68	34.538
555.02	35.217
555.36	36.226
555.69	35.170
556.03	34.805
556.37	36.170
556.71	35.954
557.05	34.313
557.39	35.036
557.73	34.676
558.07	35.828
558.41	36.080
558.75	34.888
559.08	35.421
559.42	35.871
559.76	34.464
560.10	33.958
560.44	34.763
560.78	35.000
561.12	34.236
561.45	35.888
561.79	35.470
562.13	35.490
562.47	33.724
562.81	34.241
563.15	35.038
563.48	34.369
563.82	33.918
564.16	34.464
564.50	34.088
564.84	33.510
565.17	34.706
565.51	33.257
565.85	34.323
566.19	33.813
566.52	34.991
566.86	33.899
567.20	34.203
567.54	35.582
567.88	35.066
568.21	34.783
568.55	35.060
568.89	35.089
569.23	34.939
569.56	35.678
569.90	35.032
570.24	35.649
570.57	34.702
570.91	34.354
571.25	34.423
571.59	35.347
571.92	34.861
572.26	34.701
572.60	35.081
572.93	34.011
573.27	34.926
573.61	34.304
573.95	34.547
574.28	35.319
574.62	35.152
574.96	34.252
575.29	34.193
575.63	33.934
575.97	34.036
576.30	33.925
576.64	34.073
576.98	34.100
577.31	34.625
577.65	35.225
577.98	34.601
578.32	34.308
578.66	35.074
578.99	34.323
579.33	33.926
579.67	34.202
580.00	33.648
580.34	33.595
580.67	33.517
581.01	33.903
581.35	34.307
581.68	35.049
582.02	34.560
582.35	35.153
582.69	34.656
583.02	34.442
583.36	34.196
583.70	33.470
584.03	33.189
584.37	33.473
584.70	33.154
585.04	32.760
585.37	33.407
585.71	33.441
586.04	33.333
586.38	33.798
586.72	32.790
587.05	33.026
587.39	33.283
587.72	33.828
588.06	33.172
588.39	33.881
588.73	33.016
589.06	33.211
589.40	33.190
589.73	33.033
590.07	32.825
590.40	33.536
590.73	32.202
591.07	32.539
591.40	32.426
591.74	32.949
592.07	32.846
592.41	32.650
592.74	32.375
593.08	34.140
593.41	33.596
593.75	33.075
594.08	33.202
594.41	32.917
594.75	32.116
595.08	32.840
595.42	32.825
595.75	32.644
596.09	32.735
596.42	32.103
596.75	31.609
597.09	32.485
597.42	32.062
597.75	32.027
598.09	32.817
598.42	32.449
598.76	31.448
599.09	31.933
599.42	32.149
599.76	31.793
600.09	32.332
600.42	32.466
600.76	31.836
601.09	31.530
601.42	31.823
601.76	32.172
602.09	31.701
602.42	31.116
602.76	32.251
603.09	32.012
603.42	31.864
603.76	31.994
604.09	32.079
604.42	32.037
604.76	31.545
605.09	31.472
605.42	31.340
605.75	31.692
606.09	31.728
606.42	31.339
606.75	30.997
607.09	30.530
607.42	31.484
607.75	32.200
608.08	31.058
608.42	31.479
608.75	30.763
609.08	30.985
609.41	30.348
609.75	30.312
610.08	31.970
610.41	31.308
610.74	30.588
611.07	31.172
611.41	31.031
611.74	31.316
612.07	31.791
612.40	30.418
612.73	30.416
613.07	30.856
613.40	31.039
613.73	30.958
614.06	31.501
614.39	30.709
614.72	30.422
615.06	29.740
615.39	30.933
615.72	30.806
616.05	30.306
616.38	30.827
616.71	30.146
617.05	29.659
617.38	30.177
617.71	30.508
618.04	30.329
618.37	30.383
618.70	30.430
619.03	28.973
619.36	29.655
619.69	29.468
620.03	28.814
620.36	29.571
620.69	29.488
621.02	30.249
621.35	30.697
621.68	30.007
622.01	29.466
622.34	29.079
622.67	29.003
623.00	29.150
623.33	30.922
623.66	30.220
623.99	28.703
624.32	30.539
624.65	29.665
624.99	30.169
625.32	30.438
625.65	27.984
625.98	28.068
626.31	28.561
626.64	28.425
626.97	29.407
627.30	28.398
627.63	28.657
627.96	29.955
628.29	27.782
628.62	27.792
628.95	28.221
629.28	28.632
629.61	29.545
629.94	28.033
630.26	28.136
630.59	27.375
630.92	27.965
631.25	28.891
631.58	28.343
631.91	29.053
632.24	29.203
632.57	28.273
632.90	27.282
633.23	26.939
633.56	27.449
633.89	26.860
634.22	26.611
634.55	26.931
634.88	27.381
635.20	29.064
635.53	28.701
635.86	26.219
636.19	28.208
636.52	27.743
636.85	27.783
637.18	27.651
637.51	27.419
637.83	26.578
638.16	27.189
638.49	27.113
638.82	27.396
639.15	26.231
639.48	27.945
639.81	27.714
640.13	26.502
640.46	25.455
640.79	25.245
641.12	28.447
641.45	25.596
641.77	27.728
642.10	26.378
642.43	27.394
642.76	27.913
643.09	25.753
643.41	23.950
643.74	26.207
644.07	27.034
644.40	26.591
644.73	25.109
645.05	26.432
645.38	27.194
645.71	27.273
646.04	28.407
646.36	25.255
646.69	28.067
647.02	26.606
647.35	26.870
647.67	25.765
648.00	26.592
648.33	24.925
648.66	24.964
648.98	26.531
649.31	25.440
649.64	28.154
649.96	24.668
650.29	23.922
650.62	26.167
650.94	24.174
651.27	25.150
651.60	25.439
651.92	26.140
652.25	25.326
652.58	25.860
652.90	23.110
653.23	27.606
653.56	25.820
653.88	27.669
654.21	26.479
654.54	25.145
654.86	26.771
655.19	25.721
655.52	28.492
655.84	31.449
656.17	38.290
656.49	53.484
656.82	57.385
657.15	43.337
657.47	31.778
657.80	22.892
658.13	17.624
658.45	22.737
658.78	26.646
659.10	25.527
659.43	25.404
659.75	24.645
660.08	23.810
660.41	23.739
660.73	23.261
661.06	22.467
661.38	24.880
661.71	23.621
662.03	25.044
662.36	25.760
662.68	25.141
663.01	24.779
663.33	25.331
663.66	27.656
663.98	23.462
664.31	26.079
664.63	24.470
664.96	26.497
665.28	23.775
665.61	26.399
665.93	22.857
666.26	25.806
666.58	25.092
666.91	25.981
667.23	24.190
667.56	26.824
667.88	26.800
668.21	24.023
668.53	21.429
668.86	24.361
669.18	23.014
669.50	23.459
669.83	25.000
670.15	22.441
670.48	25.198
670.80	23.901
671.13	22.684
671.45	23.031
671.77	26.365
672.10	24.167
672.42	25.728
672.75	23.963
673.07	23.881
673.39	24.653
673.72	27.349
674.04	23.448
674.37	24.866
674.69	26.631
675.01	23.238
675.34	22.710
675.66	23.034
675.98	22.948
676.31	24.805
676.63	24.715
676.95	24.713
677.28	22.984
677.60	20.669
677.92	23.992
678.25	25.046
678.57	25.267
678.89	26.109
679.22	25.087
679.54	23.590
679.86	22.712
680.18	25.207
680.51	27.358
680.83	25.532
681.15	26.379
681.48	26.079
681.80	26.770
682.12	26.049
682.44	24.374
682.77	22.872
683.09	24.811
683.41	24.225
683.73	25.806
684.06	24.170
684.38	24.508
684.70	25.494
685.02	26.850
685.34	24.459
685.67	25.552
685.99	25.000
686.31	24.128
686.63	23.223
686.96	26.025
687.28	25.570
687.60	24.747
687.92	21.222
688.24	25.209
688.56	22.931
688.89	24.319
689.21	22.309
689.53	22.745
689.85	23.669
690.17	24.259
690.49	22.311
690.82	23.762
691.14	21.457
691.46	23.709
691.78	24.678
692.10	25.321
692.42	23.929
692.74	23.230
693.06	21.111
693.39	25.996
693.71	22.368
694.03	24.721
694.35	22.857
694.67	24.025
694.99	25.319
695.31	22.517
695.63	23.593
695.95	22.360
696.27	24.835
696.59	24.336
696.91	22.748
697.23	23.956
697.56	22.811
697.88	25.947
698.20	24.105
698.52	25.758
698.84	26.403
699.16	26.939
699.48	23.849
699.80	22.553
700.12	23.362
700.44	26.498
700.76	23.278
701.08	24.455
701.40	22.798
701.72	22.886
702.04	25.668
702.36	21.466
702.68	21.760
703.00	23.227
703.32	23.153
703.64	23.716
703.96	24.105
704.28	21.130
704.60	19.241
704.91	19.133
705.23	24.932
705.55	25.070
705.87	22.727
706.19	25.767
706.51	20.181
706.83	23.055
707.15	22.222
707.47	23.131
707.79	23.799
708.11	22.034
708.43	21.935
708.74	23.661
709.06	20.650
709.38	24.883
709.70	25.310
710.02	24.289
710.34	22.872
710.66	20.112
710.98	24.044
711.29	23.626
711.61	24.576
711.93	24.217
712.25	22.973
712.57	25.959
712.89	25.294
713.20	22.189
713.52	23.121
713.84	24.513
714.16	26.053
714.48	25.515
714.80	28.571
715.11	23.097
715.43	26.260
715.75	22.895
716.07	22.652
716.39	23.224
716.70	24.699
717.02	26.885
717.34	20.906
717.66	22.819
717.97	23.288
718.29	22.680
718.61	19.408
718.93	22.006
719.24	22.981
719.56	22.393
719.88	22.222
720.20	24.516
720.51	23.602
720.83	20.938
721.15	18.421
721.46	16.438
721.78	21.000
722.10	20.712
722.42	22.148
722.73	26.452
723.05	22.807
723.37	22.222
723.68	23.656
724.00	27.076
724.32	20.423
724.63	22.378
724.95	24.468
725.27	22.648
725.58	21.908
725.90	24.483
726.22	26.332
726.53	23.052
726.85	26.101
727.16	22.961
727.48	21.713
727.80	23.179
728.11	22.261
728.43	24.579
728.74	19.064
729.06	22.185
729.38	24.675
729.69	22.148
730.01	21.726
730.32	22.424
730.64	27.044
730.96	22.671
731.27	23.743
731.59	24.176
731.90	22.857
732.22	22.396
732.53	23.204
732.85	23.143
733.16	21.114
733.48	21.341
733.80	24.234
734.11	23.362
734.43	25.946
734.74	28.354
735.06	23.869
735.37	24.054
735.69	27.027
736.00	26.271
736.32	23.989
736.63	24.722
736.95	20.977
737.26	22.121
737.58	21.212
737.89	28.529
738.21	18.654
738.52	21.311
738.83	25.256
739.15	20.213
739.46	24.150
739.78	23.620
740.09	24.355
740.41	25.656
740.72	23.333
741.04	23.948
741.35	22.105
741.66	25.098
741.98	22.951
742.29	19.665
742.61	23.246
742.92	23.462
743.23	25.632
743.55	23.643
743.86	22.400
744.18	19.008
744.49	17.722
744.80	22.222
745.12	24.051
745.43	24.390
745.74	22.845
746.06	16.525
746.37	27.848
746.68	24.390
747.00	22.500
747.31	21.888
747.62	19.615
747.94	20.243
748.25	24.498
748.56	22.449
748.88	16.667
749.19	27.586
749.50	20.346
749.82	20.482
750.13	27.402
750.44	22.000
750.75	24.923
751.07	25.538
751.38	27.445
751.69	21.406
752.01	22.977
752.32	24.183
752.63	22.789
752.94	20.761
753.26	20.446
753.57	17.037
753.88	21.723
754.19	22.508
754.51	20.900
754.82	22.508
755.13	23.607
755.44	23.891
755.75	21.711
756.07	26.567
756.38	24.528
756.69	25.301
757.00	19.668
757.31	22.951
757.63	23.529
757.94	22.770
758.25	21.896
758.56	25.490
758.87	22.045
759.18	25.600
759.50	24.646
759.81	25.770
760.12	23.450
760.43	27.083
760.74	23.153
761.05	24.250
761.36	22.651
761.67	23.096
761.99	24.595
762.30	23.780
762.61	19.472
762.92	18.657
763.23	22.472
763.54	24.101
763.85	20.962
764.16	24.916
764.47	24.648
764.78	26.198
765.10	24.047
765.41	26.410
765.72	23.280
766.03	21.469
766.34	25.705
766.65	18.815
766.96	24.701
767.27	24.885
767.58	19.403
767.89	31.731
768.20	23.474
768.51	27.315
768.82	26.908
769.13	22.348
769.44	19.615
769.75	25.993
770.06	25.385
770.37	28.740
770.68	14.043
770.99	24.291
771.30	27.407
771.61	24.335
771.92	20.741
772.23	32.794
772.54	16.204
772.85	23.963
773.16	28.571
773.47	14.815
773.78	16.216
774.09	23.864
774.39	29.500
774.70	23.497
775.01	13.415
775.32	20.000
775.63	23.313
775.94	14.650
776.25	20.000
776.56	20.513
776.87	22.449
777.18	20.000
777.48	23.776
777.79	20.946
778.10	19.853
778.41	16.667
778.72	14.483
779.03	22.840
779.34	25.455
779.65	19.689
779.95	26.111
780.26	20.455
780.57	20.645
780.88	28.986
781.19	28.387
781.50	28.235
781.80	25.269
782.11	25.926
782.42	20.202
782.73	16.766
783.04	23.464
783.34	18.182
783.65	15.686
783.96	21.118
784.27	24.405
784.57	24.503
784.88	22.143
785.19	22.047
785.50	19.685
785.81	24.060
786.11	24.615
786.42	19.424
786.73	17.986
787.04	23.308
787.34	22.131
787.65	19.200
787.96	17.910
788.26	27.273
788.57	33.566
788.88	19.737
789.19	34.641
789.49	20.548
789.80	20.567
790.11	32.283
790.41	21.875
790.72	21.186
791.03	12.621
791.33	20.870
791.64	28.947
791.95	21.429
792.25	19.048
792.56	23.214
792.87	15.625
793.17	30.357
793.48	20.833
793.79	9.639
794.09	20.183
794.40	25.688
794.70	21.769
795.01	20.130
795.32	23.973
795.62	21.127
795.93	21.212
796.23	26.230
796.54	16.964
796.85	17.021
797.15	15.217
797.46	10.959
797.76	0.000
798.07	21.739
798.37	8.247
798.68	7.792
798.99	19.540
799.29	25.843
799.60	35.106
799.90	22.892
800.21	15.385
800.51	14.925
800.82	19.118
801.12	9.589
801.43	-11.765
801.73	8.475
802.04	15.152
802.34	13.333
802.65	20.339
802.95	14.925
803.26	13.559
803.56	17.808
803.87	17.143
804.17	26.027
804.48	3.509
804.78	13.889
805.09	12.069
805.39	18.919
805.70	14.085
806.00	9.756
806.30	15.663
806.61	34.247
806.91	32.692
807.22	30.000
807.52	9.195
807.83	19.444
808.13	16.867
808.43	23.596
808.74	22.500
809.04	10.294
809.35	18.667
809.65	18.571
809.95	15.068
810.26	14.035
810.56	6.897
810.86	35.294
811.17	8.772
811.47	26.230
811.77	-8.889
812.08	5.085
812.38	15.000
812.69	22.414
812.99	0.000
813.29	-41.026
813.59	34.000
813.90	17.544
814.20	0.000
814.50	36.620
814.81	33.333
815.11	32.787
815.41	16.418
815.72	27.586
816.02	19.643
816.32	33.333
816.62	27.273
816.93	-4.444
817.23	42.593
817.53	12.766
817.84	28.571
818.14	35.294
818.44	14.286
818.74	28.889
819.04	-7.692
819.35	-17.143
819.65	26.923
819.95	16.981
820.25	2.222
820.56	7.143
820.86	-3.125
821.16	-2.564
821.46	11.628
821.76	-2.000
822.07	16.071
822.37	4.348
822.67	19.149
822.97	-27.027
823.27	27.500
823.57	22.449
823.88	35.556
824.18	20.000
824.48	-16.667
824.78	-20.000
825.08	9.091
825.38	8.889
825.69	21.277
825.99	16.667
826.29	-14.286
826.59	12.821
826.89	0.000
827.19	8.000
827.49	20.588
827.79	22.917
828.09	-27.027
828.39	33.333
828.70	7.317
829.00	23.256
829.30	-17.857
829.60	23.529
829.90	8.696
830.20	0.000
830.50	0.000
830.80	-11.111
831.10	-15.385
831.40	0.000
831.70	9.524
832.00	51.613
832.30	-23.529
832.60	8.333
832.90	-23.077
833.20	52.632
833.50	-5.000
833.80	78.947
834.10	-38.095
834.40	36.111
834.70	28.125
835.00	5.714
835.30	14.706
835.60	0.000
835.90	20.000
836.20	-31.818
836.50	-4.000
836.80	-3.030
837.10	-3.704
837.40	18.519
837.70	-68.750
838.00	28.571
838.30	-13.043
838.60	13.793
838.90	-7.143
839.19	-34.783
839.49	-58.333
839.79	17.391
840.09	-62.500
840.39	-10.000
840.69	6.452
840.99	14.286
841.29	20.000
841.59	-42.105
841.88	38.462
842.18	-30.769
842.48	-80.000
842.78	20.000
843.08	20.000
843.38	16.129
843.68	-61.111
843.97	35.294
844.27	81.250
844.57	0.000
844.87	-100.000
845.17	-53.333
845.47	14.286
845.76	9.524
846.06	-133.333
846.36	-35.294
846.66	15.385
846.96	40.000
847.25	0.000
847.55	30.435
847.85	-5.000
848.15	-11.765
848.44	-54.545
848.74	-9.524
849.04	0.000
849.34	0.000
849.63	43.478
849.93	500.000
850.23	0.000
850.53	3.846
850.82	9.091
851.12	31.818
851.42	63.636
851.71	69.231
852.01	-25.000
852.31	76.923
852.61	-47.368
852.90	-75.000
853.20	22.222
853.50	-100.000
853.79	-38.095
854.09	-22.727
854.39	-33.333
854.68	51.613
854.98	-11.538
855.28	83.333
855.57	10.714
855.87	24.000
856.17	40.909
856.46	40.741
856.76	11.111
857.05	8.696
857.35	-25.000
857.65	-76.923
857.94	28.571
858.24	11.111
858.53	21.739
858.83	17.647
859.13	11.765
859.42	5.882
859.72	21.429
860.01	20.000
860.31	-44.444
860.60	30.000
860.90	66.667
861.20	33.333
861.49	30.769
861.79	10.000
862.08	23.077
862.38	28.125
862.67	5.882
862.97	25.000
863.26	-66.667
863.56	130.000
863.85	-45.455
864.15	22.222
864.44	-200.000
864.74	57.143
865.03	-50.000
865.33	30.000
865.62	12.903
865.92	27.273
866.21	34.783
866.51	14.286
866.80	-100.000
867.10	-75.000
867.39	-66.667
867.69	600.000
867.98	100.000
868.27	35.294
868.57	-700.000
868.86	-60.000
869.16	38.095
869.45	45.833
869.75	-9.091
870.04	71.429
870.33	-58.333
870.63	-185.714
870.92	-100.000
871.22	-87.500
871.51	-72.727
871.80	-333.333
872.10	-100.000
>>>>>End Processed Spectral Data<<<<<
