SpectraSuite Data File
++++++++++++++++++++++++++++++++++++
Date: Thu May 14 16:36:34 PDT 2015
User: schluterlab
Dark Spectrum Present: Yes
Reference Spectrum Present: Yes
Number of Sampled Component Spectra: 1
Spectrometers: USB2E3373
Integration Time (usec): 3000 (USB2E3373)
Spectra Averaged: 3 (USB2E3373)
Boxcar Smoothing: 0 (USB2E3373)
Correct for Electrical Dark: No (USB2E3373)
Strobe/Lamp Enabled: No (USB2E3373)
Correct for Detector Non-linearity: No (USB2E3373)
Correct for Stray Light: No (USB2E3373)
Number of Pixels in Processed Spectrum: 2048
>>>>>Begin Processed Spectral Data<<<<<
178.53	0.000
178.91	100.000
179.29	-900.000
179.67	-200.000
180.04	142.857
180.42	110.000
180.80	200.000
181.18	100.000
181.56	-100.000
181.94	150.000
182.31	50.000
182.69	333.333
183.07	50.000
183.45	150.000
183.83	-50.000
184.20	-266.667
184.58	200.000
184.96	0.000
185.34	-44.444
185.72	0.000
186.09	88.889
186.47	300.000
186.85	220.000
187.23	-66.667
187.61	-1200.000
187.98	-80.000
188.36	175.000
188.74	150.000
189.12	-200.000
189.49	62.500
189.87	-100.000
190.25	100.000
190.63	40.000
191.00	-144.444
191.38	0.000
191.76	-275.000
192.14	-66.667
192.51	250.000
192.89	-16.667
193.27	0.000
193.65	-42.857
194.02	-1900.000
194.40	-57.143
194.78	42.857
195.15	0.000
195.53	-18.182
195.91	0.000
196.29	-100.000
196.66	0.000
197.04	-1000.000
197.42	57.143
197.79	-400.000
198.17	-37.500
198.55	-71.429
198.92	-33.333
199.30	-87.500
199.68	0.000
200.05	28.571
200.43	-150.000
200.81	228.571
201.18	0.000
201.56	133.333
201.94	0.000
202.31	500.000
202.69	-122.222
203.07	-0.000
203.44	122.222
203.82	-350.000
204.19	-66.667
204.57	-66.667
204.95	-25.000
205.32	300.000
205.70	50.000
206.08	66.667
206.45	16.667
206.83	360.000
207.20	-16.667
207.58	-120.000
207.96	-83.333
208.33	66.667
208.71	33.333
209.08	33.333
209.46	0.000
209.84	250.000
210.21	-0.000
210.59	250.000
210.96	200.000
211.34	-50.000
211.71	-12.500
212.09	-400.000
212.46	0.000
212.84	300.000
213.22	-140.000
213.59	-125.000
213.97	60.000
214.34	-33.333
214.72	83.333
215.09	-300.000
215.47	0.000
215.84	100.000
216.22	250.000
216.59	100.000
216.97	-220.000
217.34	-150.000
217.72	-37.500
218.09	-150.000
218.47	175.000
218.84	0.000
219.22	60.000
219.59	41.176
219.97	30.000
220.34	400.000
220.72	-55.556
221.09	15.385
221.47	-100.000
221.84	40.000
222.22	-157.143
222.59	0.000
222.97	50.000
223.34	-80.000
223.72	-600.000
224.09	-250.000
224.46	-175.000
224.84	60.000
225.21	-142.857
225.59	-25.000
225.96	-200.000
226.34	-7.692
226.71	100.000
227.08	-150.000
227.46	-40.000
227.83	-225.000
228.21	31.579
228.58	-0.000
228.95	100.000
229.33	75.000
229.70	0.000
230.08	68.421
230.45	90.000
230.82	-166.667
231.20	14.286
231.57	-75.000
231.95	-81.818
232.32	0.000
232.69	-5.000
233.07	-325.000
233.44	-11.765
233.81	-40.000
234.19	44.444
234.56	36.364
234.93	20.690
235.31	0.000
235.68	-11.111
236.05	-70.000
236.43	26.923
236.80	44.000
237.17	3.704
237.55	12.121
237.92	-80.000
238.29	-32.258
238.67	0.000
239.04	-5.556
239.41	0.000
239.79	15.217
240.16	-5.556
240.53	-13.043
240.91	-13.725
241.28	8.197
241.65	22.388
242.02	8.108
242.40	9.231
242.77	1.333
243.14	1.220
243.51	-7.895
243.89	-12.821
244.26	18.812
244.63	12.745
245.00	5.607
245.38	12.281
245.75	-8.850
246.12	4.762
246.49	-0.775
246.87	12.143
247.24	7.285
247.61	15.789
247.98	2.013
248.36	-0.617
248.73	4.908
249.10	6.557
249.47	16.915
249.84	8.901
250.22	7.772
250.59	6.111
250.96	10.000
251.33	4.082
251.70	11.966
252.08	12.917
252.45	9.016
252.82	6.198
253.19	5.078
253.56	7.224
253.94	5.769
254.31	7.576
254.68	11.888
255.05	11.401
255.42	9.864
255.79	4.531
256.16	7.947
256.54	5.629
256.91	9.508
257.28	6.885
257.65	5.732
258.02	5.900
258.39	7.123
258.76	11.315
259.14	8.046
259.51	7.493
259.88	7.932
260.25	9.722
260.62	9.863
260.99	10.383
261.36	10.188
261.73	6.897
262.10	9.066
262.47	8.847
262.85	12.879
263.22	7.013
263.59	5.000
263.96	11.765
264.33	7.161
264.70	11.111
265.07	10.740
265.44	12.018
265.81	7.176
266.18	9.070
266.55	9.598
266.92	7.517
267.29	10.284
267.66	9.313
268.03	7.205
268.40	7.933
268.77	6.834
269.14	6.388
269.51	8.772
269.88	10.041
270.25	11.066
270.62	11.181
270.99	11.313
271.36	12.277
271.73	10.216
272.10	10.621
272.47	8.016
272.84	8.233
273.21	9.419
273.58	9.879
273.95	10.192
274.32	9.506
274.69	6.963
275.06	9.524
275.43	9.242
275.80	8.113
276.17	7.222
276.54	9.701
276.91	7.513
277.28	9.946
277.65	8.618
278.02	9.559
278.39	8.514
278.76	9.139
279.13	9.574
279.50	10.825
279.87	9.302
280.23	7.394
280.60	8.305
280.97	8.717
281.34	8.659
281.71	10.491
282.08	8.638
282.45	8.838
282.82	9.262
283.19	7.754
283.56	8.361
283.92	8.258
284.29	12.164
284.66	9.688
285.03	7.692
285.40	8.346
285.77	8.514
286.14	9.771
286.51	9.741
286.87	8.057
287.24	10.843
287.61	7.025
287.98	7.553
288.35	7.988
288.72	8.876
289.08	9.956
289.45	7.840
289.82	8.886
290.19	8.190
290.56	9.577
290.93	9.130
291.29	8.127
291.66	8.678
292.03	6.920
292.40	8.571
292.77	7.817
293.13	9.472
293.50	9.067
293.87	6.711
294.24	8.933
294.60	8.976
294.97	6.846
295.34	7.939
295.71	6.683
296.08	8.140
296.44	6.985
296.81	8.404
297.18	8.095
297.55	7.429
297.91	7.117
298.28	7.820
298.65	7.253
299.02	6.966
299.38	8.352
299.75	7.944
300.12	6.019
300.48	7.488
300.85	8.436
301.22	7.606
301.59	8.219
301.95	7.684
302.32	8.111
302.69	6.681
303.05	7.943
303.42	8.426
303.79	8.229
304.15	7.571
304.52	8.140
304.89	7.958
305.25	9.420
305.62	7.941
305.99	8.969
306.35	8.367
306.72	7.963
307.09	8.528
307.45	7.867
307.82	8.678
308.19	7.770
308.55	8.968
308.92	8.666
309.29	9.100
309.65	8.382
310.02	8.317
310.38	8.661
310.75	10.971
311.12	10.067
311.48	9.775
311.85	9.877
312.22	10.911
312.58	9.390
312.95	8.604
313.31	10.298
313.68	10.989
314.05	10.659
314.41	11.749
314.78	11.898
315.14	12.795
315.51	12.373
315.87	12.781
316.24	12.694
316.61	14.032
316.97	12.670
317.34	13.139
317.70	14.498
318.07	14.021
318.43	15.731
318.80	15.719
319.16	14.163
319.53	14.139
319.89	14.636
320.26	16.370
320.62	15.603
320.99	16.898
321.35	16.636
321.72	18.047
322.08	17.674
322.45	17.344
322.81	18.863
323.18	18.761
323.54	18.879
323.91	20.819
324.27	20.052
324.64	20.571
325.00	20.896
325.37	22.113
325.73	22.645
326.10	22.709
326.46	24.430
326.83	24.420
327.19	24.961
327.56	24.506
327.92	24.784
328.29	25.242
328.65	25.209
329.01	25.719
329.38	27.127
329.74	28.425
330.11	29.024
330.47	27.717
330.84	27.476
331.20	29.250
331.56	29.029
331.93	28.703
332.29	29.068
332.66	28.987
333.02	29.229
333.38	29.362
333.75	29.293
334.11	29.608
334.48	29.620
334.84	31.096
335.20	30.395
335.57	31.029
335.93	31.653
336.29	28.453
336.66	30.530
337.02	30.936
337.38	31.803
337.75	30.165
338.11	31.203
338.47	31.844
338.84	30.964
339.20	32.013
339.56	31.301
339.93	32.102
340.29	30.757
340.65	29.603
341.02	31.844
341.38	33.711
341.74	30.831
342.11	31.698
342.47	30.580
342.83	32.448
343.20	32.625
343.56	31.836
343.92	33.227
344.28	31.719
344.65	32.093
345.01	32.917
345.37	33.515
345.73	31.956
346.10	32.917
346.46	32.437
346.82	33.708
347.19	33.461
347.55	32.625
347.91	33.730
348.27	32.398
348.63	34.730
349.00	33.706
349.36	33.680
349.72	33.631
350.08	34.473
350.45	33.536
350.81	34.163
351.17	33.910
351.53	35.330
351.89	35.232
352.26	34.925
352.62	33.881
352.98	34.885
353.34	33.831
353.70	34.977
354.07	34.948
354.43	35.763
354.79	34.630
355.15	35.394
355.51	36.257
355.87	35.453
356.24	35.970
356.60	35.255
356.96	36.990
357.32	34.647
357.68	35.286
358.04	35.105
358.40	35.896
358.77	36.623
359.13	36.780
359.49	36.357
359.85	37.056
360.21	35.796
360.57	37.258
360.93	36.530
361.29	35.789
361.66	37.799
362.02	37.578
362.38	37.597
362.74	39.106
363.10	37.895
363.46	39.266
363.82	37.784
364.18	38.424
364.54	39.212
364.90	39.264
365.26	38.414
365.62	39.600
365.98	39.074
366.35	39.463
366.71	39.592
367.07	39.445
367.43	39.724
367.79	39.482
368.15	40.803
368.51	40.122
368.87	40.235
369.23	40.933
369.59	41.803
369.95	40.568
370.31	41.458
370.67	40.234
371.03	41.967
371.39	40.900
371.75	42.710
372.11	42.615
372.47	41.300
372.83	41.034
373.19	41.895
373.55	41.802
373.91	42.195
374.27	42.044
374.63	43.572
374.99	43.568
375.35	43.766
375.71	43.226
376.07	43.835
376.42	43.199
376.78	43.567
377.14	43.543
377.50	45.414
377.86	44.951
378.22	44.012
378.58	44.887
378.94	44.366
379.30	43.644
379.66	44.974
380.02	45.239
380.38	46.256
380.74	45.915
381.09	45.935
381.45	45.398
381.81	47.073
382.17	46.378
382.53	45.205
382.89	46.388
383.25	47.773
383.61	46.586
383.97	46.231
384.32	47.129
384.68	46.462
385.04	47.426
385.40	47.437
385.76	47.890
386.12	47.516
386.48	48.059
386.83	48.510
387.19	47.683
387.55	47.418
387.91	48.002
388.27	47.921
388.62	48.454
388.98	47.377
389.34	49.558
389.70	49.564
390.06	48.313
390.42	48.976
390.77	50.572
391.13	49.883
391.49	48.853
391.85	49.758
392.20	49.348
392.56	49.852
392.92	49.073
393.28	49.309
393.64	48.659
393.99	51.249
394.35	50.234
394.71	51.018
395.07	49.760
395.42	50.485
395.78	51.493
396.14	50.386
396.50	50.950
396.85	50.209
397.21	50.651
397.57	50.118
397.92	50.000
398.28	48.778
398.64	50.629
399.00	50.681
399.35	50.576
399.71	50.924
400.07	51.095
400.42	50.640
400.78	51.100
401.14	51.053
401.49	51.109
401.85	52.907
402.21	51.738
402.57	51.291
402.92	51.655
403.28	51.054
403.63	52.625
403.99	51.722
404.35	50.824
404.70	51.615
405.06	50.272
405.42	51.347
405.77	52.236
406.13	51.486
406.49	52.646
406.84	51.302
407.20	50.922
407.55	52.090
407.91	53.237
408.27	51.767
408.62	52.763
408.98	52.409
409.34	51.554
409.69	52.596
410.05	52.462
410.40	52.726
410.76	51.711
411.11	53.010
411.47	52.150
411.83	52.792
412.18	53.795
412.54	52.045
412.89	52.445
413.25	52.991
413.60	53.016
413.96	53.030
414.31	52.238
414.67	53.071
415.03	52.738
415.38	52.207
415.74	52.474
416.09	53.671
416.45	50.470
416.80	53.182
417.16	52.810
417.51	51.806
417.87	53.219
418.22	52.994
418.58	52.416
418.93	54.133
419.29	53.576
419.64	53.121
420.00	53.591
420.35	52.667
420.71	52.556
421.06	52.559
421.42	52.810
421.77	51.966
422.12	51.321
422.48	52.944
422.83	52.410
423.19	52.944
423.54	54.093
423.90	52.733
424.25	53.547
424.61	53.215
424.96	53.377
425.31	53.185
425.67	52.067
426.02	52.352
426.38	53.042
426.73	53.292
427.09	53.749
427.44	53.140
427.79	52.681
428.15	54.053
428.50	52.135
428.85	52.641
429.21	52.660
429.56	53.060
429.92	52.285
430.27	52.241
430.62	52.125
430.98	52.386
431.33	52.053
431.68	53.017
432.04	53.276
432.39	53.133
432.74	53.082
433.10	53.326
433.45	51.951
433.80	54.024
434.16	52.428
434.51	55.087
434.86	54.289
435.22	54.304
435.57	54.304
435.92	54.146
436.28	53.356
436.63	54.560
436.98	53.194
437.34	54.622
437.69	54.375
438.04	53.517
438.39	54.049
438.75	53.846
439.10	53.858
439.45	53.717
439.81	53.559
440.16	53.834
440.51	52.899
440.86	52.918
441.22	52.894
441.57	54.350
441.92	53.055
442.27	54.495
442.63	53.701
442.98	54.162
443.33	54.287
443.68	53.915
444.03	54.657
444.39	54.230
444.74	53.650
445.09	54.334
445.44	54.636
445.79	54.358
446.15	53.700
446.50	54.780
446.85	53.356
447.20	53.433
447.55	54.550
447.91	52.827
448.26	53.330
448.61	54.038
448.96	55.311
449.31	52.916
449.66	54.412
450.02	53.745
450.37	54.555
450.72	54.090
451.07	54.328
451.42	54.419
451.77	53.530
452.12	54.233
452.47	53.298
452.83	54.279
453.18	53.765
453.53	53.245
453.88	53.230
454.23	54.181
454.58	53.511
454.93	53.580
455.28	54.666
455.63	54.065
455.98	53.017
456.34	53.710
456.69	54.262
457.04	55.260
457.39	53.215
457.74	55.425
458.09	53.926
458.44	54.472
458.79	52.089
459.14	52.334
459.49	54.952
459.84	53.882
460.19	52.693
460.54	55.650
460.89	54.262
461.24	53.103
461.59	54.842
461.94	52.481
462.29	54.479
462.64	52.505
462.99	54.614
463.34	53.666
463.69	53.283
464.04	54.197
464.39	53.980
464.74	52.623
465.09	53.345
465.44	52.843
465.79	52.935
466.14	52.892
466.49	52.368
466.84	53.003
467.19	52.428
467.54	52.115
467.89	53.966
468.24	53.296
468.59	52.577
468.94	52.273
469.29	52.669
469.64	53.020
469.99	54.238
470.34	53.465
470.68	53.930
471.03	54.748
471.38	53.172
471.73	52.536
472.08	54.822
472.43	52.800
472.78	53.967
473.13	53.350
473.48	53.353
473.83	54.266
474.17	53.048
474.52	53.337
474.87	52.381
475.22	53.634
475.57	52.233
475.92	52.862
476.27	53.035
476.61	51.298
476.96	53.285
477.31	52.327
477.66	53.200
478.01	52.771
478.36	51.944
478.70	52.611
479.05	53.119
479.40	52.962
479.75	53.122
480.10	52.866
480.45	51.048
480.79	51.927
481.14	51.608
481.49	52.522
481.84	51.741
482.19	52.172
482.53	53.039
482.88	52.503
483.23	52.379
483.58	51.266
483.92	51.729
484.27	51.016
484.62	51.114
484.97	51.205
485.31	49.595
485.66	47.799
486.01	46.704
486.36	47.176
486.70	48.699
487.05	50.059
487.40	49.803
487.75	49.491
488.09	51.254
488.44	50.000
488.79	50.556
489.13	51.593
489.48	50.175
489.83	49.336
490.17	50.061
490.52	50.616
490.87	51.692
491.22	50.823
491.56	51.024
491.91	52.028
492.26	51.233
492.60	50.809
492.95	50.900
493.30	52.039
493.64	50.635
493.99	51.096
494.34	50.784
494.68	50.749
495.03	51.366
495.37	51.975
495.72	51.066
496.07	51.139
496.41	50.536
496.76	50.167
497.11	50.488
497.45	50.022
497.80	50.822
498.14	51.383
498.49	51.149
498.84	49.909
499.18	50.472
499.53	50.852
499.87	50.154
500.22	49.154
500.56	50.067
500.91	51.213
501.26	50.909
501.60	49.757
501.95	49.805
502.29	50.900
502.64	49.891
502.98	49.482
503.33	48.812
503.67	49.280
504.02	50.088
504.36	50.045
504.71	49.977
505.06	49.386
505.40	49.452
505.75	50.364
506.09	50.276
506.44	50.696
506.78	50.413
507.13	50.576
507.47	50.876
507.82	50.710
508.16	49.713
508.51	49.226
508.85	51.252
509.19	49.976
509.54	50.576
509.88	50.510
510.23	50.267
510.57	51.184
510.92	50.363
511.26	49.158
511.61	48.914
511.95	49.829
512.30	50.566
512.64	49.725
512.98	50.675
513.33	50.605
513.67	49.414
514.02	51.814
514.36	50.742
514.70	50.885
515.05	50.782
515.39	50.866
515.74	52.015
516.08	49.657
516.42	50.811
516.77	51.262
517.11	49.871
517.46	50.371
517.80	51.577
518.14	51.469
518.49	52.440
518.83	49.441
519.17	50.673
519.52	50.052
519.86	51.373
520.20	49.468
520.55	49.781
520.89	50.450
521.23	50.865
521.58	51.582
521.92	50.935
522.26	50.745
522.61	50.405
522.95	50.980
523.29	51.207
523.64	50.504
523.98	50.941
524.32	52.722
524.66	51.224
525.01	50.510
525.35	49.971
525.69	50.696
526.04	48.967
526.38	49.943
526.72	49.596
527.06	51.320
527.41	50.612
527.75	52.078
528.09	50.708
528.43	49.615
528.78	49.480
529.12	49.656
529.46	49.241
529.80	49.600
530.15	49.971
530.49	51.068
530.83	50.000
531.17	49.343
531.51	50.301
531.86	51.382
532.20	51.402
532.54	49.611
532.88	50.364
533.22	49.971
533.57	50.894
533.91	48.485
534.25	49.576
534.59	48.621
534.93	47.538
535.27	49.352
535.62	49.233
535.96	50.261
536.30	49.647
536.64	49.730
536.98	49.754
537.32	49.012
537.66	49.782
538.01	47.915
538.35	48.112
538.69	49.099
539.03	48.927
539.37	48.940
539.71	47.868
540.05	48.681
540.39	49.389
540.73	48.209
541.07	49.418
541.42	47.903
541.76	48.221
542.10	48.010
542.44	48.295
542.78	48.297
543.12	48.510
543.46	47.802
543.80	47.542
544.14	46.918
544.48	47.222
544.82	48.534
545.16	47.645
545.50	47.454
545.84	47.704
546.18	48.827
546.52	48.344
546.86	47.799
547.20	47.710
547.54	47.129
547.88	47.077
548.22	46.901
548.56	46.987
548.90	47.403
549.24	46.565
549.58	48.202
549.92	47.130
550.26	47.767
550.60	47.288
550.94	48.254
551.28	47.789
551.62	48.720
551.96	46.602
552.30	47.929
552.64	47.666
552.98	47.723
553.32	48.103
553.66	46.624
554.00	47.541
554.34	47.555
554.68	46.804
555.02	47.503
555.36	48.126
555.69	46.188
556.03	46.154
556.37	46.871
556.71	45.656
557.05	46.326
557.39	46.317
557.73	47.292
558.07	47.152
558.41	48.040
558.75	46.788
559.08	48.017
559.42	47.119
559.76	46.676
560.10	46.484
560.44	46.306
560.78	47.250
561.12	46.244
561.45	46.290
561.79	46.459
562.13	46.026
562.47	45.068
562.81	45.886
563.15	47.159
563.48	45.743
563.82	46.433
564.16	44.821
564.50	43.862
564.84	44.838
565.17	45.235
565.51	43.556
565.85	45.131
566.19	44.931
566.52	44.529
566.86	44.256
567.20	42.904
567.54	43.548
567.88	43.833
568.21	43.182
568.55	42.830
568.89	41.988
569.23	40.938
569.56	40.367
569.90	40.520
570.24	40.101
570.57	39.609
570.91	38.885
571.25	38.212
571.59	39.159
571.92	38.673
572.26	38.618
572.60	38.930
572.93	38.909
573.27	38.438
573.61	37.586
573.95	37.922
574.28	37.188
574.62	37.199
574.96	36.634
575.29	36.792
575.63	37.283
575.97	36.647
576.30	37.552
576.64	37.151
576.98	36.925
577.31	36.531
577.65	37.123
577.98	35.994
578.32	35.282
578.66	35.658
578.99	36.023
579.33	36.505
579.67	36.582
580.00	36.727
580.34	35.798
580.67	36.430
581.01	36.110
581.35	35.282
581.68	35.102
582.02	35.456
582.35	35.712
582.69	35.443
583.02	35.825
583.36	36.168
583.70	36.060
584.03	36.573
584.37	36.485
584.70	35.477
585.04	35.085
585.37	35.749
585.71	35.318
586.04	35.755
586.38	35.631
586.72	35.573
587.05	35.610
587.39	35.752
587.72	35.789
588.06	35.711
588.39	35.499
588.73	35.159
589.06	36.202
589.40	36.724
589.73	36.086
590.07	37.069
590.40	37.086
590.73	36.409
591.07	37.491
591.40	36.625
591.74	37.560
592.07	36.947
592.41	36.080
592.74	35.712
593.08	36.115
593.41	35.871
593.75	35.575
594.08	35.504
594.41	35.577
594.75	36.068
595.08	35.363
595.42	35.455
595.75	35.389
596.09	36.089
596.42	36.080
596.75	36.434
597.09	36.444
597.42	35.638
597.75	36.182
598.09	36.151
598.42	35.867
598.76	35.155
599.09	34.567
599.42	34.697
599.76	34.698
600.09	34.902
600.42	34.568
600.76	34.577
601.09	34.418
601.42	34.192
601.76	34.655
602.09	35.311
602.42	34.642
602.76	34.945
603.09	35.426
603.42	34.790
603.76	34.003
604.09	35.557
604.42	34.862
604.76	34.209
605.09	35.181
605.42	35.207
605.75	35.115
606.09	34.453
606.42	33.601
606.75	33.958
607.09	34.485
607.42	34.451
607.75	34.584
608.08	34.254
608.42	33.857
608.75	35.033
609.08	34.762
609.41	35.201
609.75	33.661
610.08	34.741
610.41	34.707
610.74	34.580
611.07	33.837
611.41	34.933
611.74	34.965
612.07	34.596
612.40	34.506
612.73	35.355
613.07	34.230
613.40	34.889
613.73	35.388
614.06	35.083
614.39	33.965
614.72	35.468
615.06	33.494
615.39	33.398
615.72	34.171
616.05	34.288
616.38	34.965
616.71	35.475
617.05	33.919
617.38	35.206
617.71	35.205
618.04	34.808
618.37	35.246
618.70	35.690
619.03	35.484
619.36	36.190
619.69	36.195
620.03	36.158
620.36	35.153
620.69	35.163
621.02	37.008
621.35	37.518
621.68	37.310
622.01	35.658
622.34	35.286
622.67	36.907
623.00	35.560
623.33	34.970
623.66	35.473
623.99	36.471
624.32	37.037
624.65	34.170
624.99	35.891
625.32	37.165
625.65	36.750
625.98	35.729
626.31	36.499
626.64	37.289
626.97	37.059
627.30	35.687
627.63	36.309
627.96	36.937
628.29	36.654
628.62	37.364
628.95	37.774
629.28	36.619
629.61	36.869
629.94	37.238
630.26	36.610
630.59	36.528
630.92	37.229
631.25	37.567
631.58	38.983
631.91	38.800
632.24	37.944
632.57	37.192
632.90	38.315
633.23	38.980
633.56	40.204
633.89	38.636
634.22	39.605
634.55	39.666
634.88	39.177
635.20	39.720
635.53	41.017
635.86	39.762
636.19	39.555
636.52	40.084
636.85	37.794
637.18	36.694
637.51	38.495
637.83	39.535
638.16	39.862
638.49	38.732
638.82	39.684
639.15	38.717
639.48	37.413
639.81	38.799
640.13	38.869
640.46	35.636
640.79	38.113
641.12	38.882
641.45	38.519
641.77	40.436
642.10	38.714
642.43	42.154
642.76	40.379
643.09	40.137
643.41	41.737
643.74	40.828
644.07	40.414
644.40	38.190
644.73	41.655
645.05	39.060
645.38	38.705
645.71	40.029
646.04	41.894
646.36	38.832
646.69	41.258
647.02	40.214
647.35	40.458
647.67	42.995
648.00	41.720
648.33	39.790
648.66	39.515
648.98	34.558
649.31	38.160
649.64	37.849
649.96	37.401
650.29	36.857
650.62	38.897
650.94	37.988
651.27	38.473
651.60	38.889
651.92	36.626
652.25	37.771
652.58	38.239
652.90	37.355
653.23	38.873
653.56	37.090
653.88	39.185
654.21	36.197
654.54	35.838
654.86	38.244
655.19	34.630
655.52	32.243
655.84	26.733
656.17	30.367
656.49	41.796
656.82	45.830
657.15	35.766
657.47	27.046
657.80	20.305
658.13	15.614
658.45	20.924
658.78	25.845
659.10	25.176
659.43	25.613
659.75	25.618
660.08	26.611
660.41	28.619
660.73	30.445
661.06	35.095
661.38	36.523
661.71	38.276
662.03	36.332
662.36	39.356
662.68	36.773
663.01	38.230
663.33	38.374
663.66	38.095
663.98	38.846
664.31	37.899
664.63	35.645
664.96	40.472
665.28	38.294
665.61	38.636
665.93	38.036
666.26	35.663
666.58	36.716
666.91	40.000
667.23	38.095
667.56	38.462
667.88	38.000
668.21	35.156
668.53	35.714
668.86	39.686
669.18	36.049
669.50	37.177
669.83	35.000
670.15	37.205
670.48	38.492
670.80	35.564
671.13	37.618
671.45	36.811
671.77	38.418
672.10	34.333
672.42	34.466
672.75	33.641
673.07	33.582
673.39	31.741
673.72	35.570
674.04	35.345
674.37	36.852
674.69	35.979
675.01	34.286
675.34	34.351
675.66	36.517
675.98	36.194
676.31	35.547
676.63	36.312
676.95	39.464
677.28	35.887
677.60	35.827
677.92	39.155
678.25	36.563
678.57	36.299
678.89	34.642
679.22	35.192
679.54	33.675
679.86	32.373
680.18	34.328
680.51	31.918
680.83	33.552
681.15	33.966
681.48	34.715
681.80	34.715
682.12	33.392
682.44	33.723
682.77	33.511
683.09	33.902
683.41	34.884
683.73	32.827
684.06	33.948
684.38	32.379
684.70	34.650
685.02	34.940
685.34	30.283
685.67	31.388
685.99	30.061
686.31	29.506
686.63	30.174
686.96	31.861
687.28	28.502
687.60	31.650
687.92	30.386
688.24	32.554
688.56	31.897
688.89	33.938
689.21	36.008
689.53	33.137
689.85	32.742
690.17	31.852
690.49	33.267
690.82	32.673
691.14	29.960
691.46	31.166
691.78	32.965
692.10	33.761
692.42	30.893
692.74	29.401
693.06	27.222
693.39	31.879
693.71	31.391
694.03	31.784
694.35	31.810
694.67	34.702
694.99	32.340
695.31	33.113
695.63	35.714
695.95	36.646
696.27	33.407
696.59	34.735
696.91	32.432
697.23	32.967
697.56	31.568
697.88	29.167
698.20	30.885
698.52	33.523
698.84	33.264
699.16	34.082
699.48	33.264
699.80	28.936
700.12	31.004
700.44	32.028
700.76	32.304
701.08	36.077
701.40	37.047
701.72	34.826
702.04	32.620
702.36	30.366
702.68	32.274
703.00	30.562
703.32	29.803
703.64	31.051
703.96	35.084
704.28	33.415
704.60	33.924
704.91	32.143
705.23	33.151
705.55	34.262
705.87	34.242
706.19	36.810
706.51	28.614
706.83	33.429
707.15	29.101
707.47	30.841
707.79	28.384
708.11	27.754
708.43	29.032
708.74	29.018
709.06	28.306
709.38	31.221
709.70	33.747
710.02	32.817
710.34	32.447
710.66	29.609
710.98	32.514
711.29	30.495
711.61	32.768
711.93	33.618
712.25	28.378
712.57	37.168
712.89	35.588
713.20	30.473
713.52	33.526
713.84	30.919
714.16	29.474
714.48	27.835
714.80	30.649
715.11	31.759
715.43	28.117
715.75	32.105
716.07	27.072
716.39	30.601
716.70	30.120
717.02	30.164
717.34	32.404
717.66	27.517
717.97	27.397
718.29	30.241
718.61	31.250
718.93	31.392
719.24	30.745
719.56	25.767
719.88	31.832
720.20	27.097
720.51	26.398
720.83	28.438
721.15	28.618
721.46	25.000
721.78	31.000
722.10	31.715
722.42	26.846
722.73	26.129
723.05	30.175
723.37	32.986
723.68	34.767
724.00	32.130
724.32	25.000
724.63	30.769
724.95	34.043
725.27	29.617
725.58	26.148
725.90	28.276
726.22	27.273
726.53	27.597
726.85	29.560
727.16	26.284
727.48	30.887
727.80	29.139
728.11	26.855
728.43	31.650
728.74	27.425
729.06	32.119
729.38	26.623
729.69	27.517
730.01	27.083
730.32	25.152
730.64	25.786
730.96	28.261
731.27	27.095
731.59	25.275
731.90	25.195
732.22	24.740
732.53	24.033
732.85	24.286
733.16	30.499
733.48	24.390
733.80	28.134
734.11	23.932
734.43	28.378
734.74	30.380
735.06	24.874
735.37	24.324
735.69	25.676
736.00	28.249
736.32	25.606
736.63	26.667
736.95	25.287
737.26	28.182
737.58	25.152
737.89	25.882
738.21	25.076
738.52	23.607
738.83	25.939
739.15	28.014
739.46	26.871
739.78	23.620
740.09	22.636
740.41	27.114
740.72	26.333
741.04	28.155
741.35	29.123
741.66	32.157
741.98	31.148
742.29	25.523
742.61	31.579
742.92	25.000
743.23	25.632
743.55	26.357
743.86	28.000
744.18	23.967
744.49	28.270
744.80	31.276
745.12	29.958
745.43	29.675
745.74	20.259
746.06	24.576
746.37	29.958
746.68	33.333
747.00	27.083
747.31	30.043
747.62	27.692
747.94	24.291
748.25	22.490
748.56	24.082
748.88	23.504
749.19	25.862
749.50	27.273
749.82	28.514
750.13	28.470
750.44	24.667
750.75	25.231
751.07	24.308
751.38	24.921
751.69	25.240
752.01	22.006
752.32	26.797
752.63	26.531
752.94	27.336
753.26	23.792
753.57	26.667
753.88	24.719
754.19	23.151
754.51	26.045
754.82	29.260
755.13	26.885
755.44	24.573
755.75	22.368
756.07	25.373
756.38	22.013
756.69	25.602
757.00	21.330
757.31	21.311
757.63	22.762
757.94	22.300
758.25	24.153
758.56	23.529
758.87	24.091
759.18	21.600
759.50	24.363
759.81	26.331
760.12	22.372
760.43	25.000
760.74	21.429
761.05	21.750
761.36	20.000
761.67	19.797
761.99	24.054
762.30	20.427
762.61	20.462
762.92	23.507
763.23	25.468
763.54	24.101
763.85	24.055
764.16	25.589
764.47	22.887
764.78	24.601
765.10	22.581
765.41	22.051
765.72	19.841
766.03	21.751
766.34	20.690
766.65	22.300
766.96	21.514
767.27	23.963
767.58	22.388
767.89	28.365
768.20	24.413
768.51	21.759
768.82	27.711
769.13	23.864
769.44	19.615
769.75	25.271
770.06	23.462
770.37	23.228
770.68	22.128
770.99	16.194
771.30	27.037
771.61	27.757
771.92	20.741
772.23	26.316
772.54	19.444
772.85	24.885
773.16	26.190
773.47	19.577
773.78	19.459
774.09	21.023
774.39	28.000
774.70	26.776
775.01	21.951
775.32	17.647
775.63	22.699
775.94	20.382
776.25	31.613
776.56	26.923
776.87	34.694
777.18	25.517
777.48	30.070
777.79	27.703
778.10	22.794
778.41	21.528
778.72	20.690
779.03	18.519
779.34	26.667
779.65	21.244
779.95	25.556
780.26	24.432
780.57	20.645
780.88	28.986
781.19	24.516
781.50	31.765
781.80	27.419
782.11	22.751
782.42	16.162
782.73	17.964
783.04	22.905
783.34	23.030
783.65	20.261
783.96	19.876
784.27	23.810
784.57	24.503
784.88	27.143
785.19	18.110
785.50	22.835
785.81	18.797
786.11	25.385
786.42	28.777
786.73	15.827
787.04	27.068
787.34	17.213
787.65	20.800
787.96	22.388
788.26	34.266
788.57	29.371
788.88	23.026
789.19	21.569
789.49	21.918
789.80	28.369
790.11	29.921
790.41	25.000
790.72	22.881
791.03	3.883
791.33	23.478
791.64	26.316
791.95	27.679
792.25	20.000
792.56	13.393
792.87	13.542
793.17	17.857
793.48	18.750
793.79	21.687
794.09	19.266
794.40	13.761
794.70	26.531
795.01	21.429
795.32	14.384
795.62	18.310
795.93	12.879
796.23	25.410
796.54	15.179
796.85	11.702
797.15	17.391
797.46	30.137
797.76	22.500
798.07	19.565
798.37	4.124
798.68	14.286
798.99	25.287
799.29	23.596
799.60	14.894
799.90	18.072
800.21	26.154
800.51	25.373
800.82	14.706
801.12	12.329
801.43	10.294
801.73	18.644
802.04	27.273
802.34	8.333
802.65	16.949
802.95	25.373
803.26	20.339
803.56	10.959
803.87	21.429
804.17	17.808
804.48	22.807
804.78	9.722
805.09	13.793
805.39	22.973
805.70	4.225
806.00	23.171
806.30	28.916
806.61	20.548
806.91	24.038
807.22	26.667
807.52	0.000
807.83	37.500
808.13	19.277
808.43	26.966
808.74	18.750
809.04	1.471
809.35	4.000
809.65	24.286
809.95	13.699
810.26	-3.509
810.56	31.034
810.86	27.941
811.17	14.035
811.47	13.115
811.77	37.778
812.08	22.034
812.38	33.333
812.69	34.483
812.99	11.321
813.29	0.000
813.59	10.000
813.90	15.789
814.20	25.455
814.50	30.986
814.81	17.949
815.11	40.984
815.41	10.448
815.72	18.966
816.02	21.429
816.32	8.889
816.62	34.091
816.93	2.222
817.23	18.519
817.53	19.149
817.84	30.952
818.14	17.647
818.44	24.490
818.74	33.333
819.04	2.564
819.35	5.714
819.65	-19.231
819.95	22.642
820.25	22.222
820.56	0.000
820.86	15.625
821.16	7.692
821.46	16.279
821.76	-4.000
822.07	14.286
822.37	-13.043
822.67	29.787
822.97	18.919
823.27	-7.500
823.57	20.408
823.88	33.333
824.18	12.500
824.48	-23.333
824.78	20.000
825.08	0.000
825.38	20.000
825.69	12.766
825.99	22.222
826.29	-22.857
826.59	10.256
826.89	0.000
827.19	16.000
827.49	17.647
827.79	39.583
828.09	-8.108
828.39	6.667
828.70	24.390
829.00	0.000
829.30	-10.714
829.60	35.294
829.90	19.565
830.20	40.000
830.50	10.345
830.80	-16.667
831.10	-15.385
831.40	17.647
831.70	42.857
832.00	12.903
832.30	-76.471
832.60	0.000
832.90	-115.385
833.20	57.895
833.50	20.000
833.80	63.158
834.10	-42.857
834.40	-2.778
834.70	18.750
835.00	-22.857
835.30	0.000
835.60	23.333
835.90	-4.000
836.20	-45.455
836.50	-32.000
836.80	-33.333
837.10	-3.704
837.40	33.333
837.70	-18.750
838.00	7.143
838.30	-30.435
838.60	-13.793
838.90	-50.000
839.19	-43.478
839.49	8.333
839.79	-21.739
840.09	-43.750
840.39	5.000
840.69	22.581
840.99	-3.571
841.29	20.000
841.59	15.789
841.88	51.282
842.18	-34.615
842.48	-50.000
842.78	20.000
843.08	30.000
843.38	12.903
843.68	-44.444
843.97	38.235
844.27	56.250
844.57	-21.053
844.87	40.000
845.17	26.667
845.47	33.333
845.76	-33.333
846.06	22.222
846.36	-17.647
846.66	3.846
846.96	-33.333
847.25	-47.059
847.55	39.130
847.85	35.000
848.15	58.824
848.44	72.727
848.74	28.571
849.04	8.333
849.34	-18.750
849.63	4.348
849.93	700.000
850.23	-33.333
850.53	26.923
850.82	9.091
851.12	31.818
851.42	9.091
851.71	53.846
852.01	-10.000
852.31	46.154
852.61	26.316
852.90	16.667
853.20	38.889
853.50	-77.778
853.79	-14.286
854.09	9.091
854.39	-100.000
854.68	16.129
854.98	7.692
855.28	5.556
855.57	-28.571
855.87	0.000
856.17	4.545
856.46	22.222
856.76	-11.111
857.05	8.696
857.35	-29.167
857.65	-53.846
857.94	23.810
858.24	-7.407
858.53	13.043
858.83	5.882
859.13	-23.529
859.42	0.000
859.72	50.000
860.01	5.000
860.31	22.222
860.60	-30.000
860.90	-73.333
861.20	-11.111
861.49	-38.462
861.79	10.000
862.08	-69.231
862.38	46.875
862.67	29.412
862.97	-56.250
863.26	-11.111
863.56	-60.000
863.85	-45.455
864.15	0.000
864.44	-66.667
864.74	28.571
865.03	-37.500
865.33	-80.000
865.62	-16.129
865.92	9.091
866.21	8.696
866.51	7.143
866.80	0.000
867.10	-16.667
867.39	-58.333
867.69	1000.000
867.98	-14.286
868.27	52.941
868.57	-1200.000
868.86	-40.000
869.16	14.286
869.45	12.500
869.75	-27.273
870.04	-157.143
870.33	58.333
870.63	-157.143
870.92	100.000
871.22	-162.500
871.51	-172.727
871.80	-533.333
872.10	-500.000
>>>>>End Processed Spectral Data<<<<<
