SpectraSuite Data File
++++++++++++++++++++++++++++++++++++
Date: Thu May 14 16:37:52 PDT 2015
User: schluterlab
Dark Spectrum Present: Yes
Reference Spectrum Present: Yes
Number of Sampled Component Spectra: 1
Spectrometers: USB2E3373
Integration Time (usec): 3000 (USB2E3373)
Spectra Averaged: 3 (USB2E3373)
Boxcar Smoothing: 0 (USB2E3373)
Correct for Electrical Dark: No (USB2E3373)
Strobe/Lamp Enabled: No (USB2E3373)
Correct for Detector Non-linearity: No (USB2E3373)
Correct for Stray Light: No (USB2E3373)
Number of Pixels in Processed Spectrum: 2048
>>>>>Begin Processed Spectral Data<<<<<
178.53	0.000
178.91	128.571
179.29	-2300.000
179.67	-400.000
180.04	114.286
180.42	120.000
180.80	180.000
181.18	-100.000
181.56	700.000
181.94	225.000
182.31	-225.000
182.69	-33.333
183.07	-300.000
183.45	75.000
183.83	-116.667
184.20	33.333
184.58	-0.000
184.96	-225.000
185.34	-133.333
185.72	20.000
186.09	44.444
186.47	300.000
186.85	160.000
187.23	-66.667
187.61	-300.000
187.98	-60.000
188.36	-25.000
188.74	200.000
189.12	66.667
189.49	31.250
189.87	-62.500
190.25	-33.333
190.63	20.000
191.00	-44.444
191.38	0.000
191.76	-300.000
192.14	-100.000
192.51	50.000
192.89	0.000
193.27	0.000
193.65	-28.571
194.02	-1400.000
194.40	-71.429
194.78	14.286
195.15	0.000
195.53	-81.818
195.91	0.000
196.29	-225.000
196.66	-15.385
197.04	-1400.000
197.42	71.429
197.79	-400.000
198.17	-50.000
198.55	-142.857
198.92	-33.333
199.30	-87.500
199.68	18.182
200.05	114.286
200.43	-350.000
200.81	142.857
201.18	0.000
201.56	188.889
201.94	0.000
202.31	300.000
202.69	-66.667
203.07	500.000
203.44	66.667
203.82	0.000
204.19	0.000
204.57	-133.333
204.95	-162.500
205.32	-300.000
205.70	-75.000
206.08	-183.333
206.45	0.000
206.83	320.000
207.20	33.333
207.58	-120.000
207.96	-50.000
208.33	-33.333
208.71	150.000
209.08	0.000
209.46	0.000
209.84	100.000
210.21	400.000
210.59	-100.000
210.96	333.333
211.34	175.000
211.71	0.000
212.09	-1100.000
212.46	0.000
212.84	1200.000
213.22	-160.000
213.59	50.000
213.97	30.000
214.34	0.000
214.72	233.333
215.09	-250.000
215.47	0.000
215.84	-57.143
216.22	400.000
216.59	-120.000
216.97	20.000
217.34	-50.000
217.72	37.500
218.09	0.000
218.47	-150.000
218.84	0.000
219.22	-20.000
219.59	17.647
219.97	10.000
220.34	450.000
220.72	-33.333
221.09	-23.077
221.47	-333.333
221.84	0.000
222.22	-85.714
222.59	0.000
222.97	37.500
223.34	-220.000
223.72	-1400.000
224.09	25.000
224.46	-250.000
224.84	-80.000
225.21	-114.286
225.59	25.000
225.96	-125.000
226.34	7.692
226.71	150.000
227.08	-50.000
227.46	-20.000
227.83	-75.000
228.21	10.526
228.58	150.000
228.95	400.000
229.33	50.000
229.70	70.000
230.08	52.632
230.45	60.000
230.82	0.000
231.20	-57.143
231.57	25.000
231.95	9.091
232.32	36.364
232.69	70.000
233.07	-250.000
233.44	5.882
233.81	-50.000
234.19	61.111
234.56	13.636
234.93	17.241
235.31	15.789
235.68	83.333
236.05	0.000
236.43	42.308
236.80	20.000
237.17	18.519
237.55	18.182
237.92	-50.000
238.29	9.677
238.67	-4.545
239.04	19.444
239.41	19.048
239.79	8.696
240.16	14.815
240.53	30.435
240.91	-7.843
241.28	32.787
241.65	31.343
242.02	22.973
242.40	9.231
242.77	5.333
243.14	9.756
243.51	11.842
243.89	11.538
244.26	38.614
244.63	26.471
245.00	19.626
245.38	22.807
245.75	11.504
246.12	20.635
246.49	18.605
246.87	27.143
247.24	21.192
247.61	25.658
247.98	20.805
248.36	22.222
248.73	19.632
249.10	23.497
249.47	21.891
249.84	23.560
250.22	22.798
250.59	23.333
250.96	24.091
251.33	20.408
251.70	17.521
252.08	22.917
252.45	25.000
252.82	26.033
253.19	24.219
253.56	23.194
253.94	19.231
254.31	18.561
254.68	28.322
255.05	25.081
255.42	20.068
255.79	25.890
256.16	17.550
256.54	24.834
256.91	23.607
257.28	20.656
257.65	19.108
258.02	22.124
258.39	22.792
258.76	27.217
259.14	24.713
259.51	26.513
259.88	22.663
260.25	22.222
260.62	22.192
260.99	26.230
261.36	22.788
261.73	24.138
262.10	24.451
262.47	24.129
262.85	24.747
263.22	23.117
263.59	22.105
263.96	26.087
264.33	22.251
264.70	26.914
265.07	24.821
265.44	25.397
265.81	21.759
266.18	25.397
266.55	25.000
266.92	21.868
267.29	28.665
267.66	23.725
268.03	23.799
268.40	25.678
268.77	23.235
269.14	20.925
269.51	23.684
269.88	27.254
270.25	22.736
270.62	25.316
270.99	24.646
271.36	26.139
271.73	24.754
272.10	24.248
272.47	23.647
272.84	22.892
273.21	21.242
273.58	25.403
273.95	25.192
274.32	22.053
274.69	22.437
275.06	22.711
275.43	21.811
275.80	24.162
276.17	21.852
276.54	23.134
276.91	23.971
277.28	21.881
277.65	23.519
278.02	23.897
278.39	21.920
278.76	23.023
279.13	23.050
279.50	23.883
279.87	21.825
280.23	20.599
280.60	22.881
280.97	24.671
281.34	20.543
281.71	25.042
282.08	21.262
282.45	21.113
282.82	21.821
283.19	22.456
283.56	22.623
283.92	24.024
284.29	24.961
284.66	24.138
285.03	21.635
285.40	22.875
285.77	21.827
286.14	21.069
286.51	21.005
286.87	23.223
287.24	22.289
287.61	20.777
287.98	20.393
288.35	22.781
288.72	21.450
289.08	22.255
289.45	20.118
289.82	19.880
290.19	20.977
290.56	22.535
290.93	21.113
291.29	21.763
291.66	20.937
292.03	19.539
292.40	21.769
292.77	18.733
293.13	20.704
293.50	20.894
293.87	19.866
294.24	20.933
294.60	20.607
294.97	17.450
295.34	19.078
295.71	18.033
296.08	18.088
296.44	17.647
296.81	18.636
297.18	18.804
297.55	17.335
297.91	17.912
298.28	16.588
298.65	18.193
299.02	17.710
299.38	19.451
299.75	17.290
300.12	15.741
300.48	18.203
300.85	17.435
301.22	17.114
301.59	16.438
301.95	16.949
302.32	17.000
302.69	16.758
303.05	16.975
303.42	15.965
303.79	16.250
304.15	17.245
304.52	17.230
304.89	16.963
305.25	18.323
305.62	17.868
305.99	15.361
306.35	18.347
306.72	17.270
307.09	15.939
307.45	17.909
307.82	17.356
308.19	16.549
308.55	16.586
308.92	17.040
309.29	16.284
309.65	15.595
310.02	14.554
310.38	16.043
310.75	16.408
311.12	16.491
311.48	16.813
311.85	16.809
312.22	16.034
312.58	16.995
312.95	15.296
313.31	16.260
313.68	15.201
314.05	16.983
314.41	17.213
314.78	15.985
315.14	17.060
315.51	16.990
315.87	16.112
316.24	15.525
316.61	16.696
316.97	15.475
317.34	16.490
317.70	16.332
318.07	15.432
318.43	15.051
318.80	17.224
319.16	16.223
319.53	14.653
319.89	16.126
320.26	16.192
320.62	14.007
320.99	15.051
321.35	15.065
321.72	17.488
322.08	14.698
322.45	15.266
322.81	14.892
323.18	15.310
323.54	14.569
323.91	15.480
324.27	14.802
324.64	16.121
325.00	14.925
325.37	15.561
325.73	15.455
326.10	16.058
326.46	15.228
326.83	15.853
327.19	15.354
327.56	16.364
327.92	15.578
328.29	15.081
328.65	14.322
329.01	15.905
329.38	15.754
329.74	16.182
330.11	14.469
330.47	14.912
330.84	14.643
331.20	16.250
331.56	15.771
331.93	15.816
332.29	14.322
332.66	15.282
333.02	15.829
333.38	14.849
333.75	15.488
334.11	15.013
334.48	14.274
334.84	14.868
335.20	14.694
335.57	16.189
335.93	15.289
336.29	13.810
336.66	15.559
337.02	14.632
337.38	15.901
337.75	14.050
338.11	14.886
338.47	15.219
338.84	14.298
339.20	14.659
339.56	14.415
339.93	15.025
340.29	15.217
340.65	14.112
341.02	15.642
341.38	15.926
341.74	14.044
342.11	15.205
342.47	14.297
342.83	14.493
343.20	14.391
343.56	14.034
343.92	14.171
344.28	15.234
344.65	14.651
345.01	14.353
345.37	15.008
345.73	14.731
346.10	14.899
346.46	13.687
346.82	14.906
347.19	14.591
347.55	13.885
347.91	15.007
348.27	14.188
348.63	15.080
349.00	13.721
349.36	14.721
349.72	14.658
350.08	14.859
350.45	14.373
350.81	13.876
351.17	13.534
351.53	13.723
351.89	14.275
352.26	14.179
352.62	14.030
352.98	13.664
353.34	13.518
353.70	13.867
354.07	13.934
354.43	13.667
354.79	14.510
355.15	13.687
355.51	13.304
355.87	13.912
356.24	13.916
356.60	13.673
356.96	14.085
357.32	13.680
357.68	13.177
358.04	12.725
358.40	13.284
358.77	13.670
359.13	13.368
359.49	12.565
359.85	13.778
360.21	13.128
360.57	13.209
360.93	13.188
361.29	13.333
361.66	12.962
362.02	13.431
362.38	13.352
362.74	12.989
363.10	13.549
363.46	13.366
363.82	13.423
364.18	12.667
364.54	13.140
364.90	13.512
365.26	11.862
365.62	13.067
365.98	13.206
366.35	13.490
366.71	13.401
367.07	13.599
367.43	13.986
367.79	13.670
368.15	13.043
368.51	12.855
368.87	13.390
369.23	13.600
369.59	13.183
369.95	13.252
370.31	13.572
370.67	13.205
371.03	12.950
371.39	12.492
371.75	13.618
372.11	13.211
372.47	13.135
372.83	13.351
373.19	14.209
373.55	12.737
373.91	13.497
374.27	13.519
374.63	12.585
374.99	12.798
375.35	12.857
375.71	12.710
376.07	13.557
376.42	13.665
376.78	13.611
377.14	12.477
377.50	12.840
377.86	13.177
378.22	13.653
378.58	12.842
378.94	12.500
379.30	12.771
379.66	12.757
380.02	12.637
380.38	13.306
380.74	12.901
381.09	12.485
381.45	12.727
381.81	13.466
382.17	13.183
382.53	12.456
382.89	13.205
383.25	12.778
383.61	12.269
383.97	12.956
384.32	13.218
384.68	11.659
385.04	12.955
385.40	13.377
385.76	13.072
386.12	12.926
386.48	12.941
386.83	13.886
387.19	12.862
387.55	12.911
387.91	12.272
388.27	13.164
388.62	12.658
388.98	12.239
389.34	13.377
389.70	13.016
390.06	12.433
390.42	12.349
390.77	12.462
391.13	12.617
391.49	12.319
391.85	12.606
392.20	12.989
392.56	13.408
392.92	12.541
393.28	13.378
393.64	12.235
393.99	13.481
394.35	12.617
394.71	12.994
395.07	12.455
395.42	12.393
395.78	13.285
396.14	12.775
396.50	12.292
396.85	13.298
397.21	12.899
397.57	13.015
397.92	12.887
398.28	11.787
398.64	12.586
399.00	11.937
399.35	12.199
399.71	12.337
400.07	11.903
400.42	12.282
400.78	12.384
401.14	12.692
401.49	12.280
401.85	12.907
402.21	12.746
402.57	12.500
402.92	12.825
403.28	12.237
403.63	12.172
403.99	12.233
404.35	12.735
404.70	13.428
405.06	12.120
405.42	11.885
405.77	12.105
406.13	13.074
406.49	11.318
406.84	12.410
407.20	12.689
407.55	12.235
407.91	11.754
408.27	12.485
408.62	12.682
408.98	12.652
409.34	11.730
409.69	12.237
410.05	13.540
410.40	12.413
410.76	12.170
411.11	12.624
411.47	13.329
411.83	12.640
412.18	12.711
412.54	12.330
412.89	13.038
413.25	12.472
413.60	12.981
413.96	12.879
414.31	12.861
414.67	12.582
415.03	12.308
415.38	13.052
415.74	12.706
416.09	12.461
416.45	13.212
416.80	11.812
417.16	12.388
417.51	12.951
417.87	12.569
418.22	12.096
418.58	12.887
418.93	12.689
419.29	12.269
419.64	12.365
420.00	12.226
420.35	12.746
420.71	11.603
421.06	11.961
421.42	12.213
421.77	11.955
422.12	12.685
422.48	12.289
422.83	13.253
423.19	12.149
423.54	12.002
423.90	12.203
424.25	12.747
424.61	12.170
424.96	13.070
425.31	13.004
425.67	12.024
426.02	12.175
426.38	12.285
426.73	12.612
427.09	13.668
427.44	12.288
427.79	11.996
428.15	12.329
428.50	12.191
428.85	12.514
429.21	13.351
429.56	11.945
429.92	11.892
430.27	12.530
430.62	13.190
430.98	11.953
431.33	12.610
431.68	11.973
432.04	12.494
432.39	12.266
432.74	11.416
433.10	12.872
433.45	11.706
433.80	12.661
434.16	12.552
434.51	12.898
434.86	13.355
435.22	12.221
435.57	12.736
435.92	12.410
436.28	13.083
436.63	12.234
436.98	11.863
437.34	12.176
437.69	12.328
438.04	12.427
438.39	12.694
438.75	12.286
439.10	12.844
439.45	12.633
439.81	11.977
440.16	12.815
440.51	12.709
440.86	12.229
441.22	12.915
441.57	12.841
441.92	12.124
442.27	12.475
442.63	13.015
442.98	13.127
443.33	11.783
443.68	12.785
444.03	13.358
444.39	12.390
444.74	13.374
445.09	12.367
445.44	12.065
445.79	12.692
446.15	13.361
446.50	12.093
446.85	12.695
447.20	12.959
447.55	12.814
447.91	12.304
448.26	12.156
448.61	12.487
448.96	13.627
449.31	12.672
449.66	12.309
450.02	12.605
450.37	12.627
450.72	11.572
451.07	13.041
451.42	11.785
451.77	13.341
452.12	12.867
452.47	12.121
452.83	12.275
453.18	12.142
453.53	11.890
453.88	12.258
454.23	12.090
454.58	12.710
454.93	12.500
455.28	13.064
455.63	13.132
455.98	12.737
456.34	12.662
456.69	13.051
457.04	12.766
457.39	13.027
457.74	11.969
458.09	12.795
458.44	13.631
458.79	11.501
459.14	12.638
459.49	12.960
459.84	13.012
460.19	12.438
460.54	12.209
460.89	13.182
461.24	12.414
461.59	13.171
461.94	12.322
462.29	12.822
462.64	12.613
462.99	12.680
463.34	12.719
463.69	12.837
464.04	12.785
464.39	12.276
464.74	12.657
465.09	12.111
465.44	12.339
465.79	13.009
466.14	12.767
466.49	12.316
466.84	12.231
467.19	12.370
467.54	11.868
467.89	11.839
468.24	12.742
468.59	12.334
468.94	11.772
469.29	12.298
469.64	11.952
469.99	12.556
470.34	12.686
470.68	12.509
471.03	12.705
471.38	12.165
471.73	12.029
472.08	12.246
472.43	12.402
472.78	12.972
473.13	12.642
473.48	13.051
473.83	12.710
474.17	12.837
474.52	12.327
474.87	13.178
475.22	13.014
475.57	11.475
475.92	12.743
476.27	12.939
476.61	12.409
476.96	11.731
477.31	12.772
477.66	12.539
478.01	12.659
478.36	12.562
478.70	12.660
479.05	12.117
479.40	12.488
479.75	12.824
480.10	12.648
480.45	12.853
480.79	12.608
481.14	12.914
481.49	12.903
481.84	13.229
482.19	12.559
482.53	12.855
482.88	13.115
483.23	12.895
483.58	12.314
483.92	12.323
484.27	12.489
484.62	13.078
484.97	12.597
485.31	12.038
485.66	12.395
486.01	12.465
486.36	12.659
486.70	13.247
487.05	12.916
487.40	12.723
487.75	12.748
488.09	12.285
488.44	12.269
488.79	12.479
489.13	12.310
489.48	11.845
489.83	12.314
490.17	12.151
490.52	11.905
490.87	12.394
491.22	12.262
491.56	12.713
491.91	12.647
492.26	13.241
492.60	12.505
492.95	13.032
493.30	11.699
493.64	12.308
493.99	12.632
494.34	12.848
494.68	12.334
495.03	12.775
495.37	12.650
495.72	13.152
496.07	12.358
496.41	11.969
496.76	12.385
497.11	12.527
497.45	12.732
497.80	13.283
498.14	12.381
498.49	12.776
498.84	12.294
499.18	12.731
499.53	13.139
499.87	12.967
500.22	12.689
500.56	12.236
500.91	12.128
501.26	12.773
501.60	12.815
501.95	12.853
502.29	12.198
502.64	11.850
502.98	12.554
503.33	12.570
503.67	12.429
504.02	12.172
504.36	12.869
504.71	12.265
505.06	12.460
505.40	12.706
505.75	12.705
506.09	12.799
506.44	13.045
506.78	12.752
507.13	13.324
507.47	12.506
507.82	12.547
508.16	11.663
508.51	12.002
508.85	12.801
509.19	12.695
509.54	13.689
509.88	11.850
510.23	12.288
510.57	13.436
510.92	13.111
511.26	11.833
511.61	12.120
511.95	12.640
512.30	12.752
512.64	12.394
512.98	12.506
513.33	13.004
513.67	12.647
514.02	12.877
514.36	13.299
514.70	12.865
515.05	12.826
515.39	12.808
515.74	13.362
516.08	12.203
516.42	13.553
516.77	12.513
517.11	11.810
517.46	13.097
517.80	14.217
518.14	12.786
518.49	12.527
518.83	12.773
519.17	12.709
519.52	13.103
519.86	13.094
520.20	13.046
520.55	12.486
520.89	12.725
521.23	12.786
521.58	12.825
521.92	12.748
522.26	12.199
522.61	12.616
522.95	12.687
523.29	12.414
523.64	12.556
523.98	12.721
524.32	13.868
524.66	13.090
525.01	11.608
525.35	12.522
525.69	12.529
526.04	12.514
526.38	13.218
526.72	12.341
527.06	12.493
527.41	13.236
527.75	12.827
528.09	12.397
528.43	12.789
528.78	12.659
529.12	12.041
529.46	12.310
529.80	13.330
530.15	12.870
530.49	11.981
530.83	13.164
531.17	12.664
531.51	12.635
531.86	13.161
532.20	13.049
532.54	11.849
532.88	12.242
533.22	12.728
533.57	14.599
533.91	12.738
534.25	12.889
534.59	12.931
534.93	13.016
535.27	13.239
535.62	13.530
535.96	12.435
536.30	12.573
536.64	13.213
536.98	13.530
537.32	12.963
537.66	12.851
538.01	13.112
538.35	12.972
538.69	12.620
539.03	13.734
539.37	12.780
539.71	13.453
540.05	13.129
540.39	13.264
540.73	12.508
541.07	12.140
541.42	12.817
541.76	12.159
542.10	12.545
542.44	11.754
542.78	13.929
543.12	13.170
543.46	12.759
543.80	12.950
544.14	12.747
544.48	13.002
544.82	12.507
545.16	12.999
545.50	12.822
545.84	12.370
546.18	13.642
546.52	13.121
546.86	12.704
547.20	13.295
547.54	12.734
547.88	12.598
548.22	11.754
548.56	13.166
548.90	12.716
549.24	12.888
549.58	13.186
549.92	13.074
550.26	12.751
550.60	12.891
550.94	13.325
551.28	12.739
551.62	13.140
551.96	13.139
552.30	12.556
552.64	12.943
552.98	12.976
553.32	13.248
553.66	13.312
554.00	13.682
554.34	12.162
554.68	11.685
555.02	12.286
555.36	13.412
555.69	12.748
556.03	12.610
556.37	12.891
556.71	12.809
557.05	12.716
557.39	11.679
557.73	12.153
558.07	11.921
558.41	12.492
558.75	12.373
559.08	11.969
559.42	12.414
559.76	13.229
560.10	12.525
560.44	13.193
560.78	13.250
561.12	12.869
561.45	12.835
561.79	13.065
562.13	13.432
562.47	12.145
562.81	12.405
563.15	13.068
563.48	12.617
563.82	12.576
564.16	12.901
564.50	12.872
564.84	12.743
565.17	13.588
565.51	12.658
565.85	12.055
566.19	13.076
566.52	12.873
566.86	12.564
567.20	11.746
567.54	13.064
567.88	13.252
568.21	13.538
568.55	12.422
568.89	13.073
569.23	13.688
569.56	12.544
569.90	12.830
570.24	12.917
570.57	13.053
570.91	12.523
571.25	13.104
571.59	13.192
571.92	13.006
572.26	13.129
572.60	13.213
572.93	12.970
573.27	12.897
573.61	13.261
573.95	12.697
574.28	12.824
574.62	13.051
574.96	12.858
575.29	13.087
575.63	12.797
575.97	12.814
576.30	12.929
576.64	12.646
576.98	12.574
577.31	12.943
577.65	13.083
577.98	13.215
578.32	12.686
578.66	12.891
578.99	12.922
579.33	13.006
579.67	13.078
580.00	12.902
580.34	12.762
580.67	12.335
581.01	13.068
581.35	12.858
581.68	13.114
582.02	13.078
582.35	13.532
582.69	13.548
583.02	12.951
583.36	12.960
583.70	12.793
584.03	12.791
584.37	12.096
584.70	12.885
585.04	12.625
585.37	13.257
585.71	12.816
586.04	13.012
586.38	12.976
586.72	12.961
587.05	12.177
587.39	12.989
587.72	13.062
588.06	13.129
588.39	13.119
588.73	12.698
589.06	12.613
589.40	12.938
589.73	12.661
590.07	13.362
590.40	13.016
590.73	12.655
591.07	13.031
591.40	13.142
591.74	12.838
592.07	12.749
592.41	12.697
592.74	12.638
593.08	13.280
593.41	13.386
593.75	12.902
594.08	13.208
594.41	13.013
594.75	12.886
595.08	12.349
595.42	13.247
595.75	12.980
596.09	12.708
596.42	12.863
596.75	13.161
597.09	12.687
597.42	13.151
597.75	12.387
598.09	12.897
598.42	12.786
598.76	12.801
599.09	12.745
599.42	13.309
599.76	12.710
600.09	13.213
600.42	12.880
600.76	12.748
601.09	12.911
601.42	13.045
601.76	12.966
602.09	12.545
602.42	12.505
602.76	12.989
603.09	12.739
603.42	12.536
603.76	12.650
604.09	12.952
604.42	13.028
604.76	12.671
605.09	12.565
605.42	13.437
605.75	12.808
606.09	12.579
606.42	12.039
606.75	12.444
607.09	12.596
607.42	13.025
607.75	13.482
608.08	12.904
608.42	12.979
608.75	12.769
609.08	12.564
609.41	13.189
609.75	12.589
610.08	13.281
610.41	12.574
610.74	13.319
611.07	12.655
611.41	13.274
611.74	12.656
612.07	12.716
612.40	12.500
612.73	12.372
613.07	12.861
613.40	13.234
613.73	12.807
614.06	13.248
614.39	12.391
614.72	12.373
615.06	12.897
615.39	13.050
615.72	13.128
616.05	13.016
616.38	13.068
616.71	13.166
617.05	11.981
617.38	13.162
617.71	12.203
618.04	13.330
618.37	13.115
618.70	12.839
619.03	12.067
619.36	12.330
619.69	12.364
620.03	12.680
620.36	12.577
620.69	12.708
621.02	12.598
621.35	13.208
621.68	13.955
622.01	12.954
622.34	11.994
622.67	13.746
623.00	10.864
623.33	12.541
623.66	14.008
623.99	12.837
624.32	13.580
624.65	12.291
624.99	12.874
625.32	13.586
625.65	13.486
625.98	12.000
626.31	12.119
626.64	13.553
626.97	10.878
627.30	11.465
627.63	12.678
627.96	13.063
628.29	11.907
628.62	13.098
628.95	13.585
629.28	11.385
629.61	12.542
629.94	11.715
630.26	12.203
630.59	12.003
630.92	12.035
631.25	13.685
631.58	12.524
631.91	12.184
632.24	12.104
632.57	12.144
632.90	11.735
633.23	12.653
633.56	13.061
633.89	11.570
634.22	12.786
634.55	13.257
634.88	12.879
635.20	12.379
635.53	11.864
635.86	13.976
636.19	12.937
636.52	12.236
636.85	12.564
637.18	12.474
637.51	12.366
637.83	13.843
638.16	12.788
638.49	11.854
638.82	13.078
639.15	12.944
639.48	13.164
639.81	12.125
640.13	12.014
640.46	10.909
640.79	10.907
641.12	12.422
641.45	11.669
641.77	14.377
642.10	11.680
642.43	14.894
642.76	12.060
643.09	11.507
643.41	12.465
643.74	13.793
644.07	12.414
644.40	11.315
644.73	13.498
645.05	11.307
645.38	12.518
645.71	13.490
646.04	14.204
646.36	11.095
646.69	12.117
647.02	12.080
647.35	14.809
647.67	13.849
648.00	12.739
648.33	12.613
648.66	12.553
648.98	13.469
649.31	12.720
649.64	13.546
649.96	12.334
650.29	11.266
650.62	12.306
650.94	12.012
651.27	11.677
651.60	11.404
651.92	11.094
652.25	11.722
652.58	13.893
652.90	10.756
653.23	13.239
653.56	12.268
653.88	14.185
654.21	13.803
654.54	11.272
654.86	13.173
655.19	13.049
655.52	13.408
655.84	13.720
656.17	16.515
656.49	23.122
656.82	25.477
657.15	19.199
657.47	14.163
657.80	10.059
658.13	7.582
658.45	10.101
658.78	11.858
659.10	11.475
659.43	11.041
659.75	11.431
660.08	11.204
660.41	11.414
660.73	9.578
661.06	11.454
661.38	11.483
661.71	11.897
662.03	11.111
662.36	12.522
662.68	10.131
663.01	13.097
663.33	11.531
663.66	14.652
663.98	12.115
664.31	11.069
664.63	10.212
664.96	12.886
665.28	10.708
665.61	12.937
665.93	11.071
666.26	12.366
666.58	10.701
666.91	10.093
667.23	14.667
667.56	13.215
667.88	11.400
668.21	9.570
668.53	11.197
668.86	10.806
669.18	10.794
669.50	9.742
669.83	11.400
670.15	12.795
670.48	13.095
670.80	10.707
671.13	9.830
671.45	12.598
671.77	13.559
672.10	13.167
672.42	11.650
672.75	11.367
673.07	12.537
673.39	10.169
673.72	14.262
674.04	10.862
674.37	12.165
674.69	14.462
675.01	11.619
675.34	10.878
675.66	11.985
675.98	13.246
676.31	12.109
676.63	13.118
676.95	13.602
677.28	11.694
677.60	8.071
677.92	12.092
678.25	10.969
678.57	11.922
678.89	13.311
679.22	11.498
679.54	14.017
679.86	10.000
680.18	12.106
680.51	11.950
680.83	13.093
681.15	9.655
681.48	12.608
681.80	12.953
682.12	9.441
682.44	10.518
682.77	12.057
683.09	12.689
683.41	11.434
683.73	11.954
684.06	11.439
684.38	7.871
684.70	12.029
685.02	11.188
685.34	9.817
685.67	11.199
685.99	11.503
686.31	11.628
686.63	11.374
686.96	10.726
687.28	11.889
687.60	11.111
687.92	10.932
688.24	12.688
688.56	13.103
688.89	10.526
689.21	10.763
689.53	9.608
689.85	9.862
690.17	12.037
690.49	12.550
690.82	11.881
691.14	10.729
691.46	11.090
691.78	11.602
692.10	11.376
692.42	9.643
692.74	11.071
693.06	9.815
693.39	12.144
693.71	13.346
694.03	11.152
694.35	9.905
694.67	12.115
694.99	11.064
695.31	10.817
695.63	11.039
695.95	10.145
696.27	10.989
696.59	11.504
696.91	11.486
697.23	10.989
697.56	9.572
697.88	10.985
698.20	12.994
698.52	13.068
698.84	11.019
699.16	14.286
699.48	13.389
699.80	10.000
700.12	12.882
700.44	11.290
700.76	13.777
701.08	14.770
701.40	9.326
701.72	13.184
702.04	11.497
702.36	9.424
702.68	11.491
703.00	9.780
703.32	12.808
703.64	12.714
703.96	14.081
704.28	10.319
704.60	11.899
704.91	11.480
705.23	10.137
705.55	11.978
705.87	13.333
706.19	12.883
706.51	9.036
706.83	9.798
707.15	8.466
707.47	10.748
707.79	10.917
708.11	9.534
708.43	10.538
708.74	9.821
709.06	10.673
709.38	15.728
709.70	13.896
710.02	12.145
710.34	13.298
710.66	11.173
710.98	11.475
711.29	9.066
711.61	8.475
711.93	10.541
712.25	12.703
712.57	11.209
712.89	14.118
713.20	8.284
713.52	8.960
713.84	11.142
714.16	14.211
714.48	12.887
714.80	14.805
715.11	12.861
715.43	11.936
715.75	13.421
716.07	12.707
716.39	13.115
716.70	12.349
717.02	9.508
717.34	5.923
717.66	9.732
717.97	7.192
718.29	9.966
718.61	8.882
718.93	12.298
719.24	11.180
719.56	12.577
719.88	10.511
720.20	11.613
720.51	10.559
720.83	9.688
721.15	7.237
721.46	7.877
721.78	10.667
722.10	8.738
722.42	10.738
722.73	10.000
723.05	12.982
723.37	11.806
723.68	13.978
724.00	14.801
724.32	8.451
724.63	12.937
724.95	12.411
725.27	9.059
725.58	9.541
725.90	13.448
726.22	11.285
726.53	9.416
726.85	13.522
727.16	9.970
727.48	11.621
727.80	9.603
728.11	9.541
728.43	8.754
728.74	11.706
729.06	10.927
729.38	12.338
729.69	11.409
730.01	10.714
730.32	10.909
730.64	14.465
730.96	8.696
731.27	13.687
731.59	13.187
731.90	9.870
732.22	11.719
732.53	9.116
732.85	11.429
733.16	10.557
733.48	9.146
733.80	8.914
734.11	9.117
734.43	12.703
734.74	14.430
735.06	11.558
735.37	14.054
735.69	11.892
736.00	11.017
736.32	11.590
736.63	10.278
736.95	10.920
737.26	14.242
737.58	9.394
737.89	13.824
738.21	11.621
738.52	9.508
738.83	12.969
739.15	13.475
739.46	12.245
739.78	12.270
740.09	10.029
740.41	13.994
740.72	11.333
741.04	10.680
741.35	11.579
741.66	10.588
741.98	12.705
742.29	11.297
742.61	7.895
742.92	10.769
743.23	13.357
743.55	13.178
743.86	13.200
744.18	7.025
744.49	10.549
744.80	17.695
745.12	7.173
745.43	9.350
745.74	6.897
746.06	11.864
746.37	13.080
746.68	10.163
747.00	11.250
747.31	9.013
747.62	15.385
747.94	7.692
748.25	10.040
748.56	10.204
748.88	9.829
749.19	10.776
749.50	6.061
749.82	14.056
750.13	13.523
750.44	8.667
750.75	12.615
751.07	14.154
751.38	15.773
751.69	14.696
752.01	12.621
752.32	13.072
752.63	10.884
752.94	13.149
753.26	10.409
753.57	9.259
753.88	9.363
754.19	14.148
754.51	11.254
754.82	15.756
755.13	13.443
755.44	11.604
755.75	12.500
756.07	15.224
756.38	10.063
756.69	14.759
757.00	9.972
757.31	12.022
757.63	9.974
757.94	12.207
758.25	14.221
758.56	12.636
758.87	12.955
759.18	9.600
759.50	13.031
759.81	12.885
760.12	12.129
760.43	13.542
760.74	16.010
761.05	12.000
761.36	11.807
761.67	9.898
761.99	10.000
762.30	9.756
762.61	9.901
762.92	13.433
763.23	10.112
763.54	13.669
763.85	10.653
764.16	11.785
764.47	14.437
764.78	13.738
765.10	10.264
765.41	14.359
765.72	10.582
766.03	10.169
766.34	8.777
766.65	8.014
766.96	10.359
767.27	10.138
767.58	5.970
767.89	17.788
768.20	9.390
768.51	9.722
768.82	9.237
769.13	12.879
769.44	9.231
769.75	14.079
770.06	11.923
770.37	13.780
770.68	8.085
770.99	10.121
771.30	19.259
771.61	9.886
771.92	9.259
772.23	13.765
772.54	12.037
772.85	13.364
773.16	14.286
773.47	6.349
773.78	4.865
774.09	7.955
774.39	20.000
774.70	12.022
775.01	7.927
775.32	7.647
775.63	11.043
775.94	4.459
776.25	9.677
776.56	14.744
776.87	12.925
777.18	8.276
777.48	12.587
777.79	7.432
778.10	8.088
778.41	12.500
778.72	15.862
779.03	8.025
779.34	13.939
779.65	13.472
779.95	8.889
780.26	12.500
780.57	16.129
780.88	13.043
781.19	14.839
781.50	15.294
781.80	12.903
782.11	10.582
782.42	8.081
782.73	11.976
783.04	11.732
783.34	9.091
783.65	1.307
783.96	4.969
784.27	7.143
784.57	14.570
784.88	10.714
785.19	8.661
785.50	12.598
785.81	13.534
786.11	11.538
786.42	4.317
786.73	5.755
787.04	8.271
787.34	6.557
787.65	13.600
787.96	8.209
788.26	17.483
788.57	9.790
788.88	7.895
789.19	20.261
789.49	17.123
789.80	9.220
790.11	12.598
790.41	9.375
790.72	12.712
791.03	0.971
791.33	8.696
791.64	14.035
791.95	1.786
792.25	12.381
792.56	14.286
792.87	8.333
793.17	10.714
793.48	10.417
793.79	-2.410
794.09	6.422
794.40	13.761
794.70	17.687
795.01	14.935
795.32	7.534
795.62	11.268
795.93	13.636
796.23	9.016
796.54	10.714
796.85	12.766
797.15	2.174
797.46	9.589
797.76	-1.250
798.07	8.696
798.37	8.247
798.68	-10.390
798.99	16.092
799.29	-1.124
799.60	9.574
799.90	10.843
800.21	-13.846
800.51	-8.955
800.82	-2.941
801.12	-9.589
801.43	-11.765
801.73	-3.390
802.04	15.152
802.34	-5.000
802.65	1.695
802.95	4.478
803.26	-10.169
803.56	8.219
803.87	5.714
804.17	9.589
804.48	-19.298
804.78	11.111
805.09	-24.138
805.39	18.919
805.70	4.225
806.00	13.415
806.30	15.663
806.61	6.849
806.91	21.154
807.22	1.111
807.52	-2.299
807.83	16.667
808.13	18.072
808.43	13.483
808.74	2.500
809.04	7.353
809.35	1.333
809.65	-5.714
809.95	15.068
810.26	1.754
810.56	3.448
810.86	23.529
811.17	1.754
811.47	-8.197
811.77	0.000
812.08	11.864
812.38	16.667
812.69	27.586
812.99	13.208
813.29	-20.513
813.59	4.000
813.90	3.509
814.20	-1.818
814.50	29.577
814.81	20.513
815.11	13.115
815.41	17.910
815.72	20.690
816.02	25.000
816.32	20.000
816.62	-13.636
816.93	-2.222
817.23	27.778
817.53	4.255
817.84	14.286
818.14	23.529
818.44	10.204
818.74	6.667
819.04	-15.385
819.35	-20.000
819.65	-19.231
819.95	-1.887
820.25	17.778
820.56	11.905
820.86	-3.125
821.16	12.821
821.46	11.628
821.76	-14.000
822.07	1.786
822.37	4.348
822.67	0.000
822.97	-48.649
823.27	-12.500
823.57	6.122
823.88	13.333
824.18	20.000
824.48	-20.000
824.78	4.000
825.08	9.091
825.38	37.778
825.69	8.511
825.99	27.778
826.29	-28.571
826.59	12.821
826.89	-11.628
827.19	8.000
827.49	11.765
827.79	-6.250
828.09	-29.730
828.39	6.667
828.70	2.439
829.00	4.651
829.30	0.000
829.60	26.471
829.90	15.217
830.20	-8.571
830.50	-24.138
830.80	0.000
831.10	0.000
831.40	2.941
831.70	23.810
832.00	6.452
832.30	-64.706
832.60	-37.500
832.90	-115.385
833.20	-52.632
833.50	-30.000
833.80	-31.579
834.10	-61.905
834.40	19.444
834.70	15.625
835.00	-25.714
835.30	-8.824
835.60	0.000
835.90	-28.000
836.20	-68.182
836.50	28.000
836.80	-36.364
837.10	-22.222
837.40	-14.815
837.70	-106.250
838.00	7.143
838.30	-34.783
838.60	6.897
838.90	0.000
839.19	-104.348
839.49	-108.333
839.79	-8.696
840.09	-56.250
840.39	-5.000
840.69	0.000
840.99	0.000
841.29	6.667
841.59	-68.421
841.88	33.333
842.18	-19.231
842.48	-70.000
842.78	-25.000
843.08	-10.000
843.38	-3.226
843.68	-50.000
843.97	8.824
844.27	0.000
844.57	5.263
844.87	-130.000
845.17	-53.333
845.47	71.429
845.76	0.000
846.06	-188.889
846.36	-52.941
846.66	42.308
846.96	-40.000
847.25	-82.353
847.55	34.783
847.85	15.000
848.15	35.294
848.44	-90.909
848.74	14.286
849.04	-45.833
849.34	-56.250
849.63	-8.696
849.93	500.000
850.23	-26.667
850.53	19.231
850.82	-27.273
851.12	-9.091
851.42	-81.818
851.71	-46.154
852.01	-30.000
852.31	-61.538
852.61	-5.263
852.90	-83.333
853.20	11.111
853.50	-44.444
853.79	-14.286
854.09	-54.545
854.39	-83.333
854.68	-29.032
854.98	-15.385
855.28	-38.889
855.57	-3.571
855.87	24.000
856.17	-27.273
856.46	33.333
856.76	33.333
857.05	-39.130
857.35	-8.333
857.65	-61.538
857.94	-4.762
858.24	18.519
858.53	4.348
858.83	-41.176
859.13	-11.765
859.42	-29.412
859.72	35.714
860.01	0.000
860.31	-33.333
860.60	-40.000
860.90	-20.000
861.20	-38.889
861.49	0.000
861.79	20.000
862.08	-69.231
862.38	15.625
862.67	5.882
862.97	-25.000
863.26	-111.111
863.56	-40.000
863.85	18.182
864.15	0.000
864.44	-266.667
864.74	-21.429
865.03	-25.000
865.33	-110.000
865.62	-16.129
865.92	54.545
866.21	13.043
866.51	14.286
866.80	-340.000
867.10	-83.333
867.39	-33.333
867.69	1100.000
867.98	-42.857
868.27	11.765
868.57	-1400.000
868.86	-120.000
869.16	-47.619
869.45	16.667
869.75	-100.000
870.04	42.857
870.33	16.667
870.63	-200.000
870.92	75.000
871.22	12.500
871.51	-9.091
871.80	-766.667
872.10	-450.000
>>>>>End Processed Spectral Data<<<<<
