SpectraSuite Data File
++++++++++++++++++++++++++++++++++++
Date: Thu May 14 16:36:18 PDT 2015
User: schluterlab
Dark Spectrum Present: Yes
Reference Spectrum Present: Yes
Number of Sampled Component Spectra: 1
Spectrometers: USB2E3373
Integration Time (usec): 3000 (USB2E3373)
Spectra Averaged: 3 (USB2E3373)
Boxcar Smoothing: 0 (USB2E3373)
Correct for Electrical Dark: No (USB2E3373)
Strobe/Lamp Enabled: No (USB2E3373)
Correct for Detector Non-linearity: No (USB2E3373)
Correct for Stray Light: No (USB2E3373)
Number of Pixels in Processed Spectrum: 2048
>>>>>Begin Processed Spectral Data<<<<<
178.53	0.000
178.91	157.143
179.29	-1800.000
179.67	-100.000
180.04	114.286
180.42	50.000
180.80	100.000
181.18	-200.000
181.56	0.000
181.94	200.000
182.31	-50.000
182.69	300.000
183.07	250.000
183.45	275.000
183.83	-166.667
184.20	-333.333
184.58	1400.000
184.96	-100.000
185.34	-22.222
185.72	100.000
186.09	111.111
186.47	700.000
186.85	420.000
187.23	-133.333
187.61	-300.000
187.98	100.000
188.36	25.000
188.74	-200.000
189.12	-300.000
189.49	43.750
189.87	-137.500
190.25	-22.222
190.63	80.000
191.00	-188.889
191.38	0.000
191.76	-225.000
192.14	-16.667
192.51	350.000
192.89	-50.000
193.27	0.000
193.65	-100.000
194.02	-1100.000
194.40	-14.286
194.78	-0.000
195.15	0.000
195.53	-9.091
195.91	0.000
196.29	75.000
196.66	-53.846
197.04	-1600.000
197.42	-57.143
197.79	-400.000
198.17	-162.500
198.55	-71.429
198.92	22.222
199.30	-100.000
199.68	-18.182
200.05	0.000
200.43	-700.000
200.81	200.000
201.18	0.000
201.56	111.111
201.94	0.000
202.31	400.000
202.69	-66.667
203.07	1600.000
203.44	-77.778
203.82	-175.000
204.19	0.000
204.57	33.333
204.95	-112.500
205.32	-1200.000
205.70	225.000
206.08	-166.667
206.45	33.333
206.83	480.000
207.20	-16.667
207.58	-260.000
207.96	-133.333
208.33	-33.333
208.71	75.000
209.08	0.000
209.46	0.000
209.84	250.000
210.21	450.000
210.59	250.000
210.96	366.667
211.34	25.000
211.71	-25.000
212.09	-200.000
212.46	0.000
212.84	850.000
213.22	-100.000
213.59	-75.000
213.97	50.000
214.34	-100.000
214.72	216.667
215.09	-350.000
215.47	0.000
215.84	-28.571
216.22	450.000
216.59	-40.000
216.97	-40.000
217.34	-100.000
217.72	-12.500
218.09	-225.000
218.47	-125.000
218.84	0.000
219.22	240.000
219.59	-11.765
219.97	30.000
220.34	550.000
220.72	-44.444
221.09	0.000
221.47	66.667
221.84	-80.000
222.22	-114.286
222.59	0.000
222.97	62.500
223.34	-120.000
223.72	-800.000
224.09	-300.000
224.46	-225.000
224.84	20.000
225.21	-242.857
225.59	-200.000
225.96	-325.000
226.34	-15.385
226.71	116.667
227.08	-100.000
227.46	6.667
227.83	0.000
228.21	-21.053
228.58	137.500
228.95	400.000
229.33	0.000
229.70	-30.000
230.08	26.316
230.45	170.000
230.82	-100.000
231.20	-7.143
231.57	25.000
231.95	-54.545
232.32	36.364
232.69	25.000
233.07	-100.000
233.44	-35.294
233.81	-50.000
234.19	22.222
234.56	0.000
234.93	-3.448
235.31	31.579
235.68	0.000
236.05	-25.000
236.43	42.308
236.80	24.000
237.17	-3.704
237.55	24.242
237.92	-10.000
238.29	12.903
238.67	11.364
239.04	19.444
239.41	0.000
239.79	19.565
240.16	11.111
240.53	10.870
240.91	19.608
241.28	14.754
241.65	16.418
242.02	24.324
242.40	9.231
242.77	9.333
243.14	12.195
243.51	0.000
243.89	16.667
244.26	16.832
244.63	18.627
245.00	17.757
245.38	10.526
245.75	1.770
246.12	16.667
246.49	13.953
246.87	13.571
247.24	15.894
247.61	17.763
247.98	14.765
248.36	14.198
248.73	14.110
249.10	12.568
249.47	25.871
249.84	19.372
250.22	16.062
250.59	23.333
250.96	17.273
251.33	13.776
251.70	15.812
252.08	18.333
252.45	18.852
252.82	14.876
253.19	14.453
253.56	19.392
253.94	14.615
254.31	19.318
254.68	17.483
255.05	21.824
255.42	17.687
255.79	20.065
256.16	15.232
256.54	15.232
256.91	20.328
257.28	17.705
257.65	15.287
258.02	15.929
258.39	17.379
258.76	23.853
259.14	20.115
259.51	15.274
259.88	17.564
260.25	17.222
260.62	19.178
260.99	18.579
261.36	21.448
261.73	19.098
262.10	16.758
262.47	18.499
262.85	20.455
263.22	18.442
263.59	17.368
263.96	20.205
264.33	21.483
264.70	22.222
265.07	22.196
265.44	23.129
265.81	18.519
266.18	20.181
266.55	17.857
266.92	16.401
267.29	21.007
267.66	19.956
268.03	20.306
268.40	19.833
268.77	17.084
269.14	18.722
269.51	18.640
269.88	20.492
270.25	17.505
270.62	20.464
270.99	20.000
271.36	18.614
271.73	19.253
272.10	19.439
272.47	19.439
272.84	18.474
273.21	19.439
273.58	18.952
273.95	18.654
274.32	17.490
274.69	18.956
275.06	18.864
275.43	18.484
275.80	18.871
276.17	18.148
276.54	19.216
276.91	18.247
277.28	19.168
277.65	18.133
278.02	18.382
278.39	17.935
278.76	19.332
279.13	19.681
279.50	18.900
279.87	18.605
280.23	17.430
280.60	18.136
280.97	17.599
281.34	18.676
281.71	20.135
282.08	16.279
282.45	18.003
282.82	18.838
283.19	15.832
283.56	16.885
283.92	18.919
284.29	18.641
284.66	18.555
285.03	16.827
285.40	17.311
285.77	17.647
286.14	18.626
286.51	17.504
286.87	16.114
287.24	17.620
287.61	16.891
287.98	16.465
288.35	15.976
288.72	17.456
289.08	16.545
289.45	14.645
289.82	15.060
290.19	16.092
290.56	16.761
290.93	15.549
291.29	16.253
291.66	15.289
292.03	14.518
292.40	15.510
292.77	15.633
293.13	15.968
293.50	14.717
293.87	14.899
294.24	15.867
294.60	16.688
294.97	13.557
295.34	15.365
295.71	15.637
296.08	14.470
296.44	13.848
296.81	13.764
297.18	15.068
297.55	13.325
297.91	13.286
298.28	11.256
298.65	13.080
299.02	13.459
299.38	14.302
299.75	13.435
300.12	11.690
300.48	13.710
300.85	13.161
301.22	13.758
301.59	12.215
301.95	14.124
302.32	13.333
302.69	12.048
303.05	12.514
303.42	13.747
303.79	13.229
304.15	13.565
304.52	13.953
304.89	12.984
305.25	12.940
305.62	11.808
305.99	13.505
306.35	12.601
306.72	13.857
307.09	11.777
307.45	12.422
307.82	11.705
308.19	13.017
308.55	12.633
308.92	12.950
309.29	12.644
309.65	12.573
310.02	12.376
310.38	12.894
310.75	12.039
311.12	11.409
311.48	12.805
311.85	12.915
312.22	11.765
312.58	13.146
312.95	11.950
313.31	12.556
313.68	12.546
314.05	13.640
314.41	12.477
314.78	13.170
315.14	12.432
315.51	11.727
315.87	12.511
316.24	12.511
316.61	13.410
316.97	11.131
317.34	11.993
317.70	12.838
318.07	13.051
318.43	13.605
318.80	13.462
319.16	12.961
319.53	10.883
319.89	12.445
320.26	12.989
320.62	11.791
320.99	11.819
321.35	11.738
321.72	12.744
322.08	12.083
322.45	11.834
322.81	12.635
323.18	11.593
323.54	12.500
323.91	12.633
324.27	11.962
324.64	13.350
325.00	11.940
325.37	12.531
325.73	12.645
326.10	11.679
326.46	12.704
326.83	13.611
327.19	12.913
327.56	12.648
327.92	12.116
328.29	11.935
328.65	12.060
329.01	11.675
329.38	13.479
329.74	12.500
330.11	11.558
330.47	13.311
330.84	12.231
331.20	13.083
331.56	12.392
331.93	12.636
332.29	13.390
332.66	12.292
333.02	11.474
333.38	11.997
333.75	12.121
334.11	12.427
334.48	12.376
334.84	12.319
335.20	12.175
335.57	12.395
335.93	12.149
336.29	11.814
336.66	11.859
337.02	11.789
337.38	13.350
337.75	10.992
338.11	11.438
338.47	12.655
338.84	12.014
339.20	11.289
339.56	11.944
339.93	11.987
340.29	13.124
340.65	11.922
341.02	12.769
341.38	11.803
341.74	12.026
342.11	11.022
342.47	11.358
342.83	11.836
343.20	11.856
343.56	12.189
343.92	12.330
344.28	11.250
344.65	12.171
345.01	12.402
345.37	11.897
345.73	10.912
346.10	11.700
346.46	10.759
346.82	13.109
347.19	11.077
347.55	12.595
347.91	12.333
348.27	10.622
348.63	12.262
349.00	11.111
349.36	12.342
349.72	11.607
350.08	11.664
350.45	10.875
350.81	11.538
351.17	11.955
351.53	11.979
351.89	11.997
352.26	11.791
352.62	11.194
352.98	11.221
353.34	10.978
353.70	10.863
354.07	10.730
354.43	11.314
354.79	10.920
355.15	11.258
355.51	12.719
355.87	10.696
356.24	11.027
356.60	11.160
356.96	10.452
357.32	11.152
357.68	11.420
358.04	10.404
358.40	11.269
358.77	11.550
359.13	10.340
359.49	9.591
359.85	10.877
360.21	10.258
360.57	11.558
360.93	11.213
361.29	11.649
361.66	11.586
362.02	11.900
362.38	10.190
362.74	11.313
363.10	10.798
363.46	11.911
363.82	12.003
364.18	11.541
364.54	10.581
364.90	11.371
365.26	10.207
365.62	12.067
365.98	10.960
366.35	10.537
366.71	10.408
367.07	11.231
367.43	10.965
367.79	11.480
368.15	11.037
368.51	10.555
368.87	11.234
369.23	10.467
369.59	10.587
369.95	11.494
370.31	11.141
370.67	10.935
371.03	10.734
371.39	11.350
371.75	11.004
372.11	10.976
372.47	11.374
372.83	10.471
373.19	10.740
373.55	10.501
373.91	10.429
374.27	11.190
374.63	10.893
374.99	10.544
375.35	10.844
375.71	10.710
376.07	11.491
376.42	10.831
376.78	11.187
377.14	10.730
377.50	11.006
377.86	10.899
378.22	11.138
378.58	11.118
378.94	10.270
379.30	10.310
379.66	10.700
380.02	10.906
380.38	10.945
380.74	10.873
381.09	10.627
381.45	11.080
381.81	11.475
382.17	10.748
382.53	10.936
382.89	11.287
383.25	10.668
383.61	10.417
383.97	10.012
384.32	11.065
384.68	9.745
385.04	10.642
385.40	11.373
385.76	10.551
386.12	11.071
386.48	10.706
386.83	11.323
387.19	10.487
387.55	10.622
387.91	10.103
388.27	10.624
388.62	10.825
388.98	9.870
389.34	10.371
389.70	10.633
390.06	11.368
390.42	10.904
390.77	11.379
391.13	10.681
391.49	11.051
391.85	10.364
392.20	10.439
392.56	10.809
392.92	10.742
393.28	10.503
393.64	10.056
393.99	10.691
394.35	10.864
394.71	11.557
395.07	9.940
395.42	10.908
395.78	11.213
396.14	10.992
396.50	10.511
396.85	10.912
397.21	11.302
397.57	11.131
397.92	11.397
398.28	9.832
398.64	10.297
399.00	10.157
399.35	10.942
399.71	10.598
400.07	11.005
400.42	10.186
400.78	10.359
401.14	10.131
401.49	10.574
401.85	10.581
402.21	10.660
402.57	11.561
402.92	10.816
403.28	9.895
403.63	10.322
403.99	10.154
404.35	10.802
404.70	11.218
405.06	9.946
405.42	10.539
405.77	11.396
406.13	11.129
406.49	10.923
406.84	10.803
407.20	10.453
407.55	9.933
407.91	10.434
408.27	11.484
408.62	10.995
408.98	10.911
409.34	10.205
409.69	11.001
410.05	11.137
410.40	11.137
410.76	11.441
411.11	11.397
411.47	10.811
411.83	11.464
412.18	11.145
412.54	10.492
412.89	11.932
413.25	11.061
413.60	10.741
413.96	10.723
414.31	9.745
414.67	11.151
415.03	11.446
415.38	11.349
415.74	10.446
416.09	11.598
416.45	10.770
416.80	10.649
417.16	10.792
417.51	10.461
417.87	11.159
418.22	11.138
418.58	10.967
418.93	11.525
419.29	11.467
419.64	10.564
420.00	10.682
420.35	11.342
420.71	11.200
421.06	10.811
421.42	11.296
421.77	10.232
422.12	10.571
422.48	10.753
422.83	11.446
423.19	10.981
423.54	11.338
423.90	11.209
424.25	10.933
424.61	9.989
424.96	11.203
425.31	11.359
425.67	10.521
426.02	10.625
426.38	10.850
426.73	11.384
427.09	11.361
427.44	11.469
427.79	11.001
428.15	10.788
428.50	10.955
428.85	11.137
429.21	11.755
429.56	10.661
429.92	11.106
430.27	11.084
430.62	10.943
430.98	11.117
431.33	10.606
431.68	10.920
432.04	10.513
432.39	11.194
432.74	11.016
433.10	10.438
433.45	10.256
433.80	11.588
434.16	10.899
434.51	10.843
434.86	10.478
435.22	11.371
435.57	10.790
435.92	11.352
436.28	10.182
436.63	11.087
436.98	11.702
437.34	11.612
437.69	10.897
438.04	11.052
438.39	11.373
438.75	11.455
439.10	11.522
439.45	11.235
439.81	10.508
440.16	11.046
440.51	11.594
440.86	10.673
441.22	10.772
441.57	11.268
441.92	11.009
442.27	10.707
442.63	11.078
442.98	11.953
443.33	11.152
443.68	11.497
444.03	12.465
444.39	11.697
444.74	11.383
445.09	11.657
445.44	11.117
445.79	11.830
446.15	11.100
446.50	11.628
446.85	11.868
447.20	11.750
447.55	11.192
447.91	11.414
448.26	11.364
448.61	11.318
448.96	12.446
449.31	11.506
449.66	10.730
450.02	11.392
450.37	11.348
450.72	12.056
451.07	11.959
451.42	11.438
451.77	11.618
452.12	11.456
452.47	10.517
452.83	11.430
453.18	10.741
453.53	11.258
453.88	11.596
454.23	11.864
454.58	11.898
454.93	11.044
455.28	11.680
455.63	11.825
455.98	12.570
456.34	11.484
456.69	11.993
457.04	11.702
457.39	10.920
457.74	11.745
458.09	12.356
458.44	12.446
458.79	11.862
459.14	12.375
459.49	11.828
459.84	12.697
460.19	11.494
460.54	11.584
460.89	12.388
461.24	11.667
461.59	12.286
461.94	11.295
462.29	12.486
462.64	11.708
462.99	11.990
463.34	11.097
463.69	12.544
464.04	12.785
464.39	12.612
464.74	12.657
465.09	12.226
465.44	12.017
465.79	12.586
466.14	12.454
466.49	12.316
466.84	11.680
467.19	12.486
467.54	11.222
467.89	12.414
468.24	12.355
468.59	11.697
468.94	11.713
469.29	11.698
469.64	12.524
469.99	12.428
470.34	12.438
470.68	13.876
471.03	13.229
471.38	12.819
471.73	12.744
472.08	12.754
472.43	12.583
472.78	12.972
473.13	12.832
473.48	12.447
473.83	14.045
474.17	12.720
474.52	12.688
474.87	13.289
475.22	12.789
475.57	12.409
475.92	12.444
476.27	12.993
476.61	12.409
476.96	11.887
477.31	13.416
477.66	12.749
478.01	12.964
478.36	12.463
478.70	12.020
479.05	12.986
479.40	12.586
479.75	13.305
480.10	12.838
480.45	13.355
480.79	12.834
481.14	12.316
481.49	12.358
481.84	12.533
482.19	12.258
482.53	13.380
482.88	13.292
483.23	12.228
483.58	12.402
483.92	12.855
484.27	12.743
484.62	13.243
484.97	12.597
485.31	12.214
485.66	11.639
486.01	11.099
486.36	11.312
486.70	11.850
487.05	12.242
487.40	12.282
487.75	11.807
488.09	11.806
488.44	11.961
488.79	12.108
489.13	12.491
489.48	12.388
489.83	12.837
490.17	13.082
490.52	13.300
490.87	13.832
491.22	12.782
491.56	12.756
491.91	13.301
492.26	13.068
492.60	13.336
492.95	13.164
493.30	13.402
493.64	13.710
493.99	13.289
494.34	13.153
494.68	13.490
495.03	12.731
495.37	13.715
495.72	13.560
496.07	13.760
496.41	12.784
496.76	13.428
497.11	13.291
497.45	13.164
497.80	13.816
498.14	12.971
498.49	13.557
498.84	13.300
499.18	13.630
499.53	13.677
499.87	13.451
500.22	12.956
500.56	13.405
500.91	12.815
501.26	14.000
501.60	13.345
501.95	13.808
502.29	13.602
502.64	13.380
502.98	13.417
503.33	13.218
503.67	12.996
504.02	13.398
504.36	13.986
504.71	13.643
505.06	13.415
505.40	13.665
505.75	13.843
506.09	14.411
506.44	13.974
506.78	14.312
507.13	14.431
507.47	13.785
507.82	13.684
508.16	13.432
508.51	13.830
508.85	13.462
509.19	14.259
509.54	14.265
509.88	13.696
510.23	14.279
510.57	14.596
510.92	14.272
511.26	14.190
511.61	14.099
511.95	14.007
512.30	14.574
512.64	13.593
512.98	14.307
513.33	14.869
513.67	13.463
514.02	14.461
514.36	14.783
514.70	14.062
515.05	14.338
515.39	14.541
515.74	14.899
516.08	15.320
516.42	15.437
516.77	14.826
517.11	13.873
517.46	15.005
517.80	15.446
518.14	15.288
518.49	15.239
518.83	15.061
519.17	14.324
519.52	14.832
519.86	14.995
520.20	15.122
520.55	14.677
520.89	16.385
521.23	15.410
521.58	15.085
521.92	14.731
522.26	15.178
522.61	15.509
522.95	15.225
523.29	15.690
523.64	15.415
523.98	15.687
524.32	15.989
524.66	15.196
525.01	15.912
525.35	15.566
525.69	15.487
526.04	14.925
526.38	15.402
526.72	15.917
527.06	15.425
527.41	16.210
527.75	16.093
528.09	15.230
528.43	14.861
528.78	15.145
529.12	15.252
529.46	15.121
529.80	14.989
530.15	15.710
530.49	14.709
530.83	15.407
531.17	16.010
531.51	15.223
531.86	15.986
532.20	16.037
532.54	15.380
532.88	15.636
533.22	15.793
533.57	15.638
533.91	15.208
534.25	14.811
534.59	15.747
534.93	14.884
535.27	15.775
535.62	15.520
535.96	15.979
536.30	15.981
536.64	16.577
536.98	15.314
537.32	15.988
537.66	15.533
538.01	15.227
538.35	14.921
538.69	15.925
539.03	15.880
539.37	16.196
539.71	15.315
540.05	16.007
540.39	15.098
540.73	14.997
541.07	15.083
541.42	15.357
541.76	14.472
542.10	15.682
542.44	14.799
542.78	15.146
543.12	15.197
543.46	15.079
543.80	14.688
544.14	15.200
544.48	16.076
544.82	15.141
545.16	15.385
545.50	15.398
545.84	15.554
546.18	16.543
546.52	15.287
546.86	15.409
547.20	16.158
547.54	14.919
547.88	14.949
548.22	15.205
548.56	14.745
548.90	15.881
549.24	15.076
549.58	15.268
549.92	14.860
550.26	16.828
550.60	14.997
550.94	15.459
551.28	15.710
551.62	17.251
551.96	16.181
552.30	15.870
552.64	15.059
552.98	16.032
553.32	16.977
553.66	15.820
554.00	14.817
554.34	16.152
554.68	15.171
555.02	15.900
555.36	17.226
555.69	15.247
556.03	15.826
556.37	16.083
556.71	15.536
557.05	15.783
557.39	14.599
557.73	15.852
558.07	16.689
558.41	16.080
558.75	16.160
559.08	16.771
559.42	16.392
559.76	16.350
560.10	17.080
560.44	16.887
560.78	15.688
561.12	15.086
561.45	15.633
561.79	14.713
562.13	16.389
562.47	15.290
562.81	13.924
563.15	15.720
563.48	16.408
563.82	15.296
564.16	15.021
564.50	15.793
564.84	15.516
565.17	15.882
565.51	15.420
565.85	15.677
566.19	15.783
566.52	16.267
566.86	14.714
567.20	14.410
567.54	15.242
567.88	14.985
568.21	14.970
568.55	15.156
568.89	14.662
569.23	14.237
569.56	13.951
569.90	13.542
570.24	13.052
570.57	13.438
570.91	12.645
571.25	13.364
571.59	13.220
571.92	12.767
572.26	12.335
572.60	12.913
572.93	12.886
573.27	12.616
573.61	12.705
573.95	12.794
574.28	12.310
574.62	12.187
574.96	12.131
575.29	12.205
575.63	12.566
575.97	12.479
576.30	12.361
576.64	12.145
576.98	12.141
577.31	12.067
577.65	12.196
577.98	11.860
578.32	11.987
578.66	11.647
578.99	12.001
579.33	12.228
579.67	11.922
580.00	11.755
580.34	12.304
580.67	12.114
581.01	12.029
581.35	12.059
581.68	11.872
582.02	11.889
582.35	11.937
582.69	12.094
583.02	11.904
583.36	12.056
583.70	11.884
584.03	12.095
584.37	12.269
584.70	11.883
585.04	11.579
585.37	12.086
585.71	12.319
586.04	12.087
586.38	12.419
586.72	11.933
587.05	11.844
587.39	12.241
587.72	12.464
588.06	12.403
588.39	12.099
588.73	12.275
589.06	12.472
589.40	12.508
589.73	12.725
590.07	12.765
590.40	13.286
590.73	12.867
591.07	13.328
591.40	13.025
591.74	13.275
592.07	14.089
592.41	12.815
592.74	12.851
593.08	12.898
593.41	12.715
593.75	12.615
594.08	12.481
594.41	12.981
594.75	12.720
595.08	12.887
595.42	12.662
595.75	12.883
596.09	13.046
596.42	12.934
596.75	13.547
597.09	13.051
597.42	13.270
597.75	13.759
598.09	12.857
598.42	13.872
598.76	13.259
599.09	12.994
599.42	12.672
599.76	12.380
600.09	12.813
600.42	12.846
600.76	12.616
601.09	12.645
601.42	12.736
601.76	13.034
602.09	12.437
602.42	12.723
602.76	12.731
603.09	12.922
603.42	12.825
603.76	12.932
604.09	13.449
604.42	13.211
604.76	12.900
605.09	13.363
605.42	13.118
605.75	13.308
606.09	13.326
606.42	12.842
606.75	12.744
607.09	13.018
607.42	13.603
607.75	13.286
608.08	13.575
608.42	13.180
608.75	13.640
609.08	13.158
609.41	13.719
609.75	13.973
610.08	13.412
610.41	13.381
610.74	12.857
611.07	13.588
611.41	13.318
611.74	13.718
612.07	14.025
612.40	13.260
612.73	14.377
613.07	14.132
613.40	13.426
613.73	14.107
614.06	13.886
614.39	14.286
614.72	13.925
615.06	13.667
615.39	13.726
615.72	14.218
616.05	13.987
616.38	13.925
616.71	14.838
617.05	14.111
617.38	15.356
617.71	14.471
618.04	14.571
618.37	14.863
618.70	14.876
619.03	14.576
619.36	15.043
619.69	15.503
620.03	14.626
620.36	15.521
620.69	14.867
621.02	15.354
621.35	16.038
621.68	16.269
622.01	16.370
622.34	15.481
622.67	15.533
623.00	13.023
623.33	15.859
623.66	15.435
623.99	14.681
624.32	16.179
624.65	14.479
624.99	15.345
625.32	15.611
625.65	16.183
625.98	15.254
626.31	16.088
626.64	16.410
626.97	15.154
627.30	15.642
627.63	15.604
627.96	15.766
628.29	16.031
628.62	15.197
628.95	17.178
629.28	16.313
629.61	16.751
629.94	16.318
630.26	16.525
630.59	16.580
630.92	16.450
631.25	16.905
631.58	18.738
631.91	16.589
632.24	18.156
632.57	17.552
632.90	17.753
633.23	17.959
633.56	18.061
633.89	17.045
634.22	18.503
634.55	17.850
634.88	18.182
635.20	19.806
635.53	19.322
635.86	16.468
636.19	20.573
636.52	17.932
636.85	17.773
637.18	18.503
637.51	17.634
637.83	18.051
638.16	21.313
638.49	18.779
638.82	18.715
639.15	16.953
639.48	21.247
639.81	17.552
640.13	19.670
640.46	18.424
640.79	17.770
641.12	19.379
641.45	19.072
641.77	22.978
642.10	20.472
642.43	20.878
642.76	19.512
643.09	20.137
643.41	20.868
643.74	20.828
644.07	20.828
644.40	19.802
644.73	19.884
645.05	19.090
645.38	21.151
645.71	19.355
646.04	21.234
646.36	20.730
646.69	19.632
647.02	19.419
647.35	19.847
647.67	21.578
648.00	20.541
648.33	21.321
648.66	20.970
648.98	18.912
649.31	18.945
649.64	18.991
649.96	20.159
650.29	17.942
650.62	18.670
650.94	18.919
651.27	19.461
651.60	21.491
651.92	21.884
652.25	18.234
652.58	18.982
652.90	18.023
653.23	19.577
653.56	18.973
653.88	21.489
654.21	18.028
654.54	18.353
654.86	18.272
655.19	17.691
655.52	16.201
655.84	11.929
656.17	13.334
656.49	18.504
656.82	20.158
657.15	15.108
657.47	11.186
657.80	8.329
658.13	6.395
658.45	8.192
658.78	10.354
659.10	10.000
659.43	10.323
659.75	10.296
660.08	11.373
660.41	14.061
660.73	14.937
661.06	15.859
661.38	19.458
661.71	20.000
662.03	20.282
662.36	23.077
662.68	20.826
663.01	21.062
663.33	21.550
663.66	21.978
663.98	18.462
664.31	22.702
664.63	20.231
664.96	21.597
665.28	20.871
665.61	22.552
665.93	19.643
666.26	20.251
666.58	19.557
666.91	22.991
667.23	20.190
667.56	20.907
667.88	21.400
668.21	18.750
668.53	19.498
668.86	20.825
669.18	19.348
669.50	19.881
669.83	19.800
670.15	21.850
670.48	23.214
670.80	18.929
671.13	20.605
671.45	19.685
671.77	22.222
672.10	17.833
672.42	18.770
672.75	18.280
673.07	18.955
673.39	16.487
673.72	19.463
674.04	18.621
674.37	20.036
674.69	20.282
675.01	20.762
675.34	21.756
675.66	23.408
675.98	21.828
676.31	19.336
676.63	20.722
676.95	24.330
677.28	22.379
677.60	19.685
677.92	20.345
678.25	21.207
678.57	23.310
678.89	21.160
679.22	17.770
679.54	18.632
679.86	16.271
680.18	18.408
680.51	16.038
680.83	19.804
681.15	18.276
681.48	18.653
681.80	19.689
682.12	20.280
682.44	19.032
682.77	18.262
683.09	19.129
683.41	21.705
683.73	20.683
684.06	18.450
684.38	14.848
684.70	20.108
685.02	18.761
685.34	16.140
685.67	14.984
685.99	19.018
686.31	15.988
686.63	18.167
686.96	17.192
687.28	17.427
687.60	16.835
687.92	17.042
688.24	17.028
688.56	15.862
688.89	20.508
689.21	17.808
689.53	17.059
689.85	18.146
690.17	19.259
690.49	18.127
690.82	17.624
691.14	16.802
691.46	18.929
691.78	21.179
692.10	19.083
692.42	15.893
692.74	17.967
693.06	15.741
693.39	18.027
693.71	17.481
694.03	18.773
694.35	20.571
694.67	19.302
694.99	20.851
695.31	18.543
695.63	22.078
695.95	18.012
696.27	19.121
696.59	23.009
696.91	20.045
697.23	19.560
697.56	19.145
697.88	17.045
698.20	18.267
698.52	20.833
698.84	19.127
699.16	20.612
699.48	19.456
699.80	17.872
700.12	20.524
700.44	18.433
700.76	19.952
701.08	21.792
701.40	20.725
701.72	17.910
702.04	18.984
702.36	20.942
702.68	17.848
703.00	17.848
703.32	18.719
703.64	19.315
703.96	18.854
704.28	19.902
704.60	22.025
704.91	21.684
705.23	22.192
705.55	21.448
705.87	21.818
706.19	24.233
706.51	18.072
706.83	21.614
707.15	16.667
707.47	18.224
707.79	17.467
708.11	14.831
708.43	16.344
708.74	15.179
709.06	18.097
709.38	17.606
709.70	21.340
710.02	21.964
710.34	20.213
710.66	16.760
710.98	20.765
711.29	16.758
711.61	16.102
711.93	18.519
712.25	17.838
712.57	20.944
712.89	20.294
713.20	20.414
713.52	20.809
713.84	19.777
714.16	19.211
714.48	18.041
714.80	19.481
715.11	17.848
715.43	16.976
715.75	20.000
716.07	19.613
716.39	21.585
716.70	17.771
717.02	18.689
717.34	18.118
717.66	16.107
717.97	17.466
718.29	21.306
718.61	22.697
718.93	17.476
719.24	18.634
719.56	21.472
719.88	17.718
720.20	22.258
720.51	20.497
720.83	18.750
721.15	19.737
721.46	15.068
721.78	20.667
722.10	16.828
722.42	15.772
722.73	18.710
723.05	17.193
723.37	19.444
723.68	21.505
724.00	21.300
724.32	18.662
724.63	19.231
724.95	24.823
725.27	15.679
725.58	20.141
725.90	19.655
726.22	20.376
726.53	18.182
726.85	18.868
727.16	21.148
727.48	19.878
727.80	22.517
728.11	13.428
728.43	18.182
728.74	12.375
729.06	16.887
729.38	19.805
729.69	16.107
730.01	17.262
730.32	16.970
730.64	20.440
730.96	11.801
731.27	15.363
731.59	17.033
731.90	15.844
732.22	14.844
732.53	12.431
732.85	17.714
733.16	14.956
733.48	16.463
733.80	15.042
734.11	17.949
734.43	15.135
734.74	18.734
735.06	16.834
735.37	17.297
735.69	18.378
736.00	18.362
736.32	14.016
736.63	21.111
736.95	16.667
737.26	18.485
737.58	16.667
737.89	18.235
738.21	13.456
738.52	12.131
738.83	21.502
739.15	19.149
739.46	22.449
739.78	18.712
740.09	12.894
740.41	18.367
740.72	14.667
741.04	19.417
741.35	17.193
741.66	17.255
741.98	26.230
742.29	18.410
742.61	21.053
742.92	21.538
743.23	19.495
743.55	15.504
743.86	20.400
744.18	18.182
744.49	19.409
744.80	18.107
745.12	17.722
745.43	19.919
745.74	19.397
746.06	13.983
746.37	21.097
746.68	23.984
747.00	19.167
747.31	21.459
747.62	20.000
747.94	18.219
748.25	20.080
748.56	17.959
748.88	17.949
749.19	19.828
749.50	17.316
749.82	20.482
750.13	18.149
750.44	13.667
750.75	15.692
751.07	16.615
751.38	18.297
751.69	18.850
752.01	14.239
752.32	17.647
752.63	17.687
752.94	18.685
753.26	16.729
753.57	17.037
753.88	14.607
754.19	16.720
754.51	15.113
754.82	18.971
755.13	22.951
755.44	18.771
755.75	17.105
756.07	17.313
756.38	19.497
756.69	15.060
757.00	11.911
757.31	15.027
757.63	11.765
757.94	12.911
758.25	16.704
758.56	15.686
758.87	14.091
759.18	14.400
759.50	19.830
759.81	16.807
760.12	15.903
760.43	15.104
760.74	14.532
761.05	15.250
761.36	11.807
761.67	14.975
761.99	14.054
762.30	15.244
762.61	13.201
762.92	17.537
763.23	14.232
763.54	15.108
763.85	11.684
764.16	16.835
764.47	18.310
764.78	13.419
765.10	17.595
765.41	18.205
765.72	12.169
766.03	15.254
766.34	13.166
766.65	11.498
766.96	14.741
767.27	17.972
767.58	15.920
767.89	20.192
768.20	23.005
768.51	16.204
768.82	18.474
769.13	18.561
769.44	10.000
769.75	17.690
770.06	15.385
770.37	16.929
770.68	15.319
770.99	13.765
771.30	20.000
771.61	16.350
771.92	11.111
772.23	17.409
772.54	10.648
772.85	21.198
773.16	17.143
773.47	16.931
773.78	12.432
774.09	17.045
774.39	23.500
774.70	21.311
775.01	6.707
775.32	14.706
775.63	15.337
775.94	9.554
776.25	20.645
776.56	25.641
776.87	17.007
777.18	20.690
777.48	18.182
777.79	16.892
778.10	15.441
778.41	25.000
778.72	15.172
779.03	19.753
779.34	14.545
779.65	16.062
779.95	15.556
780.26	18.182
780.57	18.710
780.88	15.217
781.19	20.645
781.50	22.941
781.80	18.280
782.11	13.228
782.42	7.071
782.73	10.180
783.04	16.760
783.34	9.697
783.65	5.229
783.96	14.907
784.27	15.476
784.57	17.219
784.88	15.000
785.19	17.323
785.50	17.323
785.81	19.549
786.11	15.385
786.42	14.388
786.73	17.266
787.04	18.045
787.34	13.115
787.65	9.600
787.96	14.925
788.26	22.378
788.57	16.084
788.88	12.500
789.19	19.608
789.49	21.233
789.80	14.184
790.11	13.386
790.41	14.062
790.72	2.542
791.03	2.913
791.33	19.130
791.64	14.912
791.95	16.964
792.25	14.286
792.56	25.000
792.87	14.583
793.17	19.643
793.48	16.667
793.79	7.229
794.09	12.844
794.40	5.505
794.70	14.966
795.01	9.091
795.32	11.644
795.62	13.380
795.93	4.545
796.23	5.738
796.54	11.607
796.85	13.830
797.15	7.609
797.46	-4.110
797.76	8.750
798.07	18.478
798.37	10.309
798.68	2.597
798.99	19.540
799.29	15.730
799.60	27.660
799.90	18.072
800.21	-1.538
800.51	5.970
800.82	13.235
801.12	5.479
801.43	1.471
801.73	25.424
802.04	15.152
802.34	3.333
802.65	0.000
802.95	14.925
803.26	33.898
803.56	23.288
803.87	10.000
804.17	19.178
804.48	-8.772
804.78	22.222
805.09	-8.621
805.39	16.216
805.70	15.493
806.00	15.854
806.30	12.048
806.61	-1.370
806.91	15.385
807.22	17.778
807.52	13.793
807.83	16.667
808.13	10.843
808.43	13.483
808.74	10.000
809.04	0.000
809.35	16.000
809.65	11.429
809.95	12.329
810.26	1.754
810.56	31.034
810.86	16.176
811.17	24.561
811.47	4.918
811.77	-8.889
812.08	8.475
812.38	0.000
812.69	22.414
812.99	9.434
813.29	-5.128
813.59	20.000
813.90	35.088
814.20	20.000
814.50	11.268
814.81	14.103
815.11	27.869
815.41	11.940
815.72	34.483
816.02	5.357
816.32	17.778
816.62	31.818
816.93	11.111
817.23	11.111
817.53	12.766
817.84	16.667
818.14	14.706
818.44	16.327
818.74	11.111
819.04	0.000
819.35	-5.714
819.65	23.077
819.95	24.528
820.25	22.222
820.56	9.524
820.86	18.750
821.16	-7.692
821.46	6.977
821.76	-4.000
822.07	28.571
822.37	6.522
822.67	4.255
822.97	-2.703
823.27	2.500
823.57	24.490
823.88	42.222
824.18	27.500
824.48	-16.667
824.78	16.000
825.08	9.091
825.38	37.778
825.69	14.894
825.99	0.000
826.29	-37.143
826.59	10.256
826.89	0.000
827.19	20.000
827.49	2.941
827.79	18.750
828.09	18.919
828.39	10.000
828.70	4.878
829.00	18.605
829.30	-10.714
829.60	32.353
829.90	-2.174
830.20	-5.714
830.50	0.000
830.80	-61.111
831.10	0.000
831.40	5.882
831.70	33.333
832.00	45.161
832.30	-41.176
832.60	-25.000
832.90	-115.385
833.20	-15.789
833.50	-20.000
833.80	-21.053
834.10	-28.571
834.40	22.222
834.70	31.250
835.00	-11.429
835.30	11.765
835.60	-13.333
835.90	8.000
836.20	-45.455
836.50	-12.000
836.80	-24.242
837.10	18.519
837.40	-18.519
837.70	-43.750
838.00	10.714
838.30	-26.087
838.60	6.897
838.90	-35.714
839.19	-47.826
839.49	-100.000
839.79	-4.348
840.09	-56.250
840.39	15.000
840.69	38.710
840.99	-7.143
841.29	-46.667
841.59	-47.368
841.88	53.846
842.18	-26.923
842.48	-160.000
842.78	-15.000
843.08	0.000
843.38	12.903
843.68	-50.000
843.97	2.941
844.27	-12.500
844.57	-5.263
844.87	-110.000
845.17	6.667
845.47	38.095
845.76	-19.048
846.06	-66.667
846.36	-64.706
846.66	3.846
846.96	-86.667
847.25	5.882
847.55	8.696
847.85	5.000
848.15	29.412
848.44	-72.727
848.74	33.333
849.04	-8.333
849.34	18.750
849.63	-4.348
849.93	350.000
850.23	-13.333
850.53	15.385
850.82	-54.545
851.12	31.818
851.42	-27.273
851.71	30.769
852.01	-75.000
852.31	30.769
852.61	15.789
852.90	100.000
853.20	27.778
853.50	-133.333
853.79	-4.762
854.09	-40.909
854.39	-158.333
854.68	-19.355
854.98	-26.923
855.28	11.111
855.57	-17.857
855.87	28.000
856.17	-9.091
856.46	-11.111
856.76	-27.778
857.05	-8.696
857.35	0.000
857.65	-30.769
857.94	4.762
858.24	22.222
858.53	30.435
858.83	35.294
859.13	-11.765
859.42	52.941
859.72	28.571
860.01	-15.000
860.31	-55.556
860.60	-60.000
860.90	-6.667
861.20	-16.667
861.49	-61.538
861.79	0.000
862.08	-53.846
862.38	9.375
862.67	29.412
862.97	-18.750
863.26	-44.444
863.56	-10.000
863.85	-18.182
864.15	-50.000
864.44	-433.333
864.74	0.000
865.03	6.250
865.33	-70.000
865.62	-9.677
865.92	13.636
866.21	13.043
866.51	-28.571
866.80	-160.000
867.10	-33.333
867.39	-33.333
867.69	1800.000
867.98	-28.571
868.27	17.647
868.57	-1300.000
868.86	20.000
869.16	-4.762
869.45	8.333
869.75	109.091
870.04	14.286
870.33	-58.333
870.63	-171.429
870.92	-25.000
871.22	-125.000
871.51	-18.182
871.80	-533.333
872.10	-500.000
>>>>>End Processed Spectral Data<<<<<
