SpectraSuite Data File
++++++++++++++++++++++++++++++++++++
Date: Thu May 14 16:30:07 PDT 2015
User: schluterlab
Dark Spectrum Present: Yes
Reference Spectrum Present: Yes
Number of Sampled Component Spectra: 1
Spectrometers: USB2E3373
Integration Time (usec): 3000 (USB2E3373)
Spectra Averaged: 3 (USB2E3373)
Boxcar Smoothing: 0 (USB2E3373)
Correct for Electrical Dark: No (USB2E3373)
Strobe/Lamp Enabled: No (USB2E3373)
Correct for Detector Non-linearity: No (USB2E3373)
Correct for Stray Light: No (USB2E3373)
Number of Pixels in Processed Spectrum: 2048
>>>>>Begin Processed Spectral Data<<<<<
178.53	0.000
178.91	57.143
179.29	-1300.000
179.67	-600.000
180.04	150.000
180.42	-40.000
180.80	40.000
181.18	-500.000
181.56	400.000
181.94	-350.000
182.31	0.000
182.69	100.000
183.07	-100.000
183.45	200.000
183.83	33.333
184.20	200.000
184.58	300.000
184.96	125.000
185.34	-22.222
185.72	120.000
186.09	111.111
186.47	150.000
186.85	220.000
187.23	-55.556
187.61	-900.000
187.98	60.000
188.36	50.000
188.74	-75.000
189.12	-133.333
189.49	12.500
189.87	-12.500
190.25	133.333
190.63	80.000
191.00	-111.111
191.38	0.000
191.76	-150.000
192.14	16.667
192.51	400.000
192.89	216.667
193.27	0.000
193.65	14.286
194.02	-900.000
194.40	-42.857
194.78	-28.571
195.15	0.000
195.53	18.182
195.91	0.000
196.29	75.000
196.66	-53.846
197.04	-600.000
197.42	-42.857
197.79	700.000
198.17	75.000
198.55	-114.286
198.92	33.333
199.30	-75.000
199.68	-9.091
200.05	64.286
200.43	-100.000
200.81	157.143
201.18	0.000
201.56	22.222
201.94	0.000
202.31	100.000
202.69	-100.000
203.07	-100.000
203.44	11.111
203.82	-200.000
204.19	58.333
204.57	-50.000
204.95	-87.500
205.32	-600.000
205.70	-50.000
206.08	-16.667
206.45	66.667
206.83	300.000
207.20	-33.333
207.58	-200.000
207.96	-150.000
208.33	0.000
208.71	-58.333
209.08	116.667
209.46	0.000
209.84	116.667
210.21	-150.000
210.59	50.000
210.96	-200.000
211.34	200.000
211.71	-87.500
212.09	-1300.000
212.46	0.000
212.84	400.000
213.22	-120.000
213.59	50.000
213.97	40.000
214.34	-33.333
214.72	66.667
215.09	75.000
215.47	0.000
215.84	-57.143
216.22	350.000
216.59	140.000
216.97	-20.000
217.34	-125.000
217.72	50.000
218.09	25.000
218.47	-25.000
218.84	0.000
219.22	-100.000
219.59	58.824
219.97	30.000
220.34	400.000
220.72	22.222
221.09	69.231
221.47	-133.333
221.84	20.000
222.22	57.143
222.59	0.000
222.97	12.500
223.34	20.000
223.72	0.000
224.09	150.000
224.46	-75.000
224.84	160.000
225.21	-128.571
225.59	-150.000
225.96	-50.000
226.34	50.000
226.71	33.333
227.08	-300.000
227.46	13.333
227.83	225.000
228.21	84.211
228.58	125.000
228.95	300.000
229.33	-16.667
229.70	-20.000
230.08	73.684
230.45	30.000
230.82	66.667
231.20	64.286
231.57	58.333
231.95	-54.545
232.32	63.636
232.69	50.000
233.07	225.000
233.44	11.765
233.81	50.000
234.19	61.111
234.56	22.727
234.93	24.138
235.31	0.000
235.68	72.222
236.05	-10.000
236.43	73.077
236.80	76.000
237.17	33.333
237.55	27.273
237.92	-10.000
238.29	16.129
238.67	6.818
239.04	36.111
239.41	40.476
239.79	28.261
240.16	42.593
240.53	13.043
240.91	7.843
241.28	27.869
241.65	41.791
242.02	25.676
242.40	38.462
242.77	18.667
243.14	15.854
243.51	21.053
243.89	17.949
244.26	33.663
244.63	29.412
245.00	28.972
245.38	23.684
245.75	3.540
246.12	28.571
246.49	20.930
246.87	30.714
247.24	31.788
247.61	28.289
247.98	28.859
248.36	24.691
248.73	22.086
249.10	26.230
249.47	34.826
249.84	31.937
250.22	26.425
250.59	30.000
250.96	30.909
251.33	28.061
251.70	26.923
252.08	29.583
252.45	29.508
252.82	22.727
253.19	23.828
253.56	29.658
253.94	26.538
254.31	26.515
254.68	30.070
255.05	28.013
255.42	30.272
255.79	28.803
256.16	26.821
256.54	28.146
256.91	28.525
257.28	29.836
257.65	28.662
258.02	27.729
258.39	26.211
258.76	30.581
259.14	30.460
259.51	32.853
259.88	25.779
260.25	28.611
260.62	32.329
260.99	31.421
261.36	30.295
261.73	28.382
262.10	29.396
262.47	28.954
262.85	31.566
263.22	29.610
263.59	26.053
263.96	29.923
264.33	27.366
264.70	28.395
265.07	31.742
265.44	30.385
265.81	26.157
266.18	30.612
266.55	28.348
266.92	30.296
267.29	30.416
267.66	29.047
268.03	30.349
268.40	26.931
268.77	28.246
269.14	27.533
269.51	29.167
269.88	29.713
270.25	28.773
270.62	29.747
270.99	27.475
271.36	28.911
271.73	25.737
272.10	29.058
272.47	28.657
272.84	28.313
273.21	29.259
273.58	29.234
273.95	25.577
274.32	29.087
274.69	27.466
275.06	28.022
275.43	25.508
275.80	27.866
276.17	27.778
276.54	26.679
276.91	27.370
277.28	28.752
277.65	27.110
278.02	26.471
278.39	28.261
278.76	26.186
279.13	27.482
279.50	27.491
279.87	27.013
280.23	24.472
280.60	27.458
280.97	26.974
281.34	25.637
281.71	28.426
282.08	25.748
282.45	27.169
282.82	25.118
283.19	23.586
283.56	26.885
283.92	27.928
284.29	27.962
284.66	26.929
285.03	23.077
285.40	25.502
285.77	27.245
286.14	27.023
286.51	24.658
286.87	24.013
287.24	27.711
287.61	25.710
287.98	24.018
288.35	26.775
288.72	24.704
289.08	25.622
289.45	23.964
289.82	24.548
290.19	23.851
290.56	25.352
290.93	24.822
291.29	24.380
291.66	23.278
292.03	22.795
292.40	24.218
292.77	21.294
293.13	21.922
293.50	22.733
293.87	22.550
294.24	23.067
294.60	23.135
294.97	20.805
295.34	23.047
295.71	20.933
296.08	21.447
296.44	21.814
296.81	21.437
297.18	22.167
297.55	20.165
297.91	21.590
298.28	20.261
298.65	21.879
299.02	20.897
299.38	19.794
299.75	19.743
300.12	20.023
300.48	20.276
300.85	20.135
301.22	20.022
301.59	18.493
301.95	19.096
302.32	20.333
302.69	18.729
303.05	18.934
303.42	19.069
303.79	19.167
304.15	19.558
304.52	17.759
304.89	18.743
305.25	19.151
305.62	17.973
305.99	19.381
306.35	18.851
306.72	20.476
307.09	18.579
307.45	18.944
307.82	18.466
308.19	17.457
308.55	18.708
308.92	17.624
309.29	18.487
309.65	16.862
310.02	19.208
310.38	18.012
310.75	17.961
311.12	18.121
311.48	17.986
311.85	17.949
312.22	16.983
312.58	17.653
312.95	17.017
313.31	18.519
313.68	18.864
314.05	18.880
314.41	18.579
314.78	17.984
315.14	18.875
315.51	17.729
315.87	17.822
316.24	18.447
316.61	18.739
316.97	18.190
317.34	18.078
317.70	17.817
318.07	17.196
318.43	17.942
318.80	18.060
319.16	17.682
319.53	16.624
319.89	18.230
320.26	17.616
320.62	17.376
320.99	16.251
321.35	18.577
321.72	19.442
322.08	18.215
322.45	18.970
322.81	18.141
323.18	17.876
323.54	18.534
323.91	19.929
324.27	16.781
324.64	18.304
325.00	16.915
325.37	18.837
325.73	18.099
326.10	17.680
326.46	18.567
326.83	20.176
327.19	18.898
327.56	18.735
327.92	16.837
328.29	17.742
328.65	18.090
329.01	17.428
329.38	18.113
329.74	17.894
330.11	18.236
330.47	18.281
330.84	17.485
331.20	17.667
331.56	18.631
331.93	18.410
332.29	17.966
332.66	18.272
333.02	17.420
333.38	18.121
333.75	17.845
334.11	17.181
334.48	17.244
334.84	17.757
335.20	16.793
335.57	17.960
335.93	18.347
336.29	17.138
336.66	17.914
337.02	18.896
337.38	17.602
337.75	16.777
338.11	17.998
338.47	18.197
338.84	17.682
339.20	16.512
339.56	16.557
339.93	18.309
340.29	16.828
340.65	17.275
341.02	18.117
341.38	17.462
341.74	17.111
342.11	16.331
342.47	16.442
342.83	17.472
343.20	17.171
343.56	17.482
343.92	17.454
344.28	17.656
344.65	17.132
345.01	16.849
345.37	16.096
345.73	16.913
346.10	16.537
346.46	17.168
346.82	16.629
347.19	17.876
347.55	16.995
347.91	16.419
348.27	16.009
348.63	16.679
349.00	15.884
349.36	15.836
349.72	16.667
350.08	16.048
350.45	16.350
350.81	16.290
351.17	16.842
351.53	16.831
351.89	16.705
352.26	16.493
352.62	15.597
352.98	16.260
353.34	15.609
353.70	15.485
354.07	15.648
354.43	15.869
354.79	15.782
355.15	16.041
355.51	16.667
355.87	15.632
356.24	16.198
356.60	15.373
356.96	15.864
357.32	15.985
357.68	15.520
358.04	15.419
358.40	15.821
358.77	16.155
359.13	16.691
359.49	15.242
359.85	15.446
360.21	16.284
360.57	15.721
360.93	15.585
361.29	15.579
361.66	16.148
362.02	16.354
362.38	15.531
362.74	15.363
363.10	17.194
363.46	16.066
363.82	15.838
364.18	15.341
364.54	16.321
364.90	15.318
365.26	15.517
365.62	16.200
365.98	16.270
366.35	15.503
366.71	15.714
367.07	15.697
367.43	14.905
367.79	14.930
368.15	16.388
368.51	15.088
368.87	15.284
369.23	15.667
369.59	15.984
369.95	15.416
370.31	15.327
370.67	15.199
371.03	15.443
371.39	15.111
371.75	15.337
372.11	14.905
372.47	15.775
372.83	15.838
373.19	15.143
373.55	15.583
373.91	15.610
374.27	15.071
374.63	15.359
374.99	15.119
375.35	15.325
375.71	14.645
376.07	15.365
376.42	15.806
376.78	15.973
377.14	14.972
377.50	13.978
377.86	16.010
378.22	15.389
378.58	15.220
378.94	15.200
379.30	15.173
379.66	14.638
380.02	14.830
380.38	15.207
380.74	14.761
381.09	14.808
381.45	14.830
381.81	15.164
382.17	14.667
382.53	14.795
382.89	14.616
383.25	16.061
383.61	13.252
383.97	15.194
384.32	15.431
384.68	13.689
385.04	15.385
385.40	14.968
385.76	14.947
386.12	14.363
386.48	14.765
386.83	15.316
387.19	14.426
387.55	14.789
387.91	13.927
388.27	14.607
388.62	14.662
388.98	13.988
389.34	14.850
389.70	14.701
390.06	14.269
390.42	14.217
390.77	15.653
391.13	14.026
391.49	14.312
391.85	13.455
392.20	14.057
392.56	13.999
392.92	14.667
393.28	15.091
393.64	14.581
393.99	14.817
394.35	14.603
394.71	15.090
395.07	13.114
395.42	14.220
395.78	14.442
396.14	14.617
396.50	14.549
396.85	14.669
397.21	15.207
397.57	13.663
397.92	14.318
398.28	14.177
398.64	13.844
399.00	13.613
399.35	14.660
399.71	14.022
400.07	14.992
400.42	14.785
400.78	13.657
401.14	15.253
401.49	14.440
401.85	15.581
402.21	14.426
402.57	14.613
402.92	14.835
403.28	13.759
403.63	14.439
403.99	14.430
404.35	13.360
404.70	14.334
405.06	13.370
405.42	14.520
405.77	14.831
406.13	13.614
406.49	14.414
406.84	14.294
407.20	14.142
407.55	13.144
407.91	14.079
408.27	14.311
408.62	14.834
408.98	14.510
409.34	13.314
409.69	13.659
410.05	13.658
410.40	14.443
410.76	14.750
411.11	14.611
411.47	14.005
411.83	14.874
412.18	14.157
412.54	14.226
412.89	14.377
413.25	14.673
413.60	14.072
413.96	13.811
414.31	13.484
414.67	14.729
415.03	14.400
415.38	14.187
415.74	14.356
416.09	13.695
416.45	14.152
416.80	14.137
417.16	14.623
417.51	14.197
417.87	14.347
418.22	14.910
418.58	13.941
418.93	14.843
419.29	14.180
419.64	12.965
420.00	14.243
420.35	14.879
420.71	14.532
421.06	14.031
421.42	14.335
421.77	13.678
422.12	14.535
422.48	13.774
422.83	14.403
423.19	14.377
423.54	14.436
423.90	13.805
424.25	14.773
424.61	13.490
424.96	14.662
425.31	14.915
425.67	14.063
426.02	14.333
426.38	14.581
426.73	14.453
427.09	15.629
427.44	12.998
427.79	14.317
428.15	13.527
428.50	13.876
428.85	13.490
429.21	14.574
429.56	13.919
429.92	14.103
430.27	14.313
430.62	13.190
430.98	13.133
431.33	13.734
431.68	13.123
432.04	14.424
432.39	14.730
432.74	13.356
433.10	14.170
433.45	13.712
433.80	14.002
434.16	14.360
434.51	14.183
434.86	14.441
435.22	14.240
435.57	14.151
435.92	14.469
436.28	13.709
436.63	14.200
436.98	13.902
437.34	14.205
437.69	13.649
438.04	13.855
438.39	14.245
438.75	13.392
439.10	14.535
439.45	14.366
439.81	13.503
440.16	13.834
440.51	13.545
440.86	13.619
441.22	13.987
441.57	14.151
441.92	13.919
442.27	14.848
442.63	13.612
442.98	14.941
443.33	14.308
443.68	14.767
444.03	14.770
444.39	14.239
444.74	14.446
445.09	14.192
445.44	14.647
445.79	13.841
446.15	13.977
446.50	13.798
446.85	14.105
447.20	14.362
447.55	14.801
447.91	14.660
448.26	14.165
448.61	14.718
448.96	14.700
449.31	14.369
449.66	13.671
450.02	14.715
450.37	14.651
450.72	13.940
451.07	14.294
451.42	14.385
451.77	13.674
452.12	14.898
452.47	13.666
452.83	14.189
453.18	14.653
453.53	14.130
453.88	14.633
454.23	14.576
454.58	14.568
454.93	13.835
455.28	14.931
455.63	14.440
455.98	14.749
456.34	13.486
456.69	14.227
457.04	14.421
457.39	15.244
457.74	14.821
458.09	14.717
458.44	14.278
458.79	13.925
459.14	13.896
459.49	14.431
459.84	14.376
460.19	13.881
460.54	13.913
460.89	14.293
461.24	13.506
461.59	14.776
461.94	14.261
462.29	14.390
462.64	14.363
462.99	13.873
463.34	14.082
463.69	14.889
464.04	15.175
464.39	14.854
464.74	14.481
465.09	14.648
465.44	14.646
465.79	14.913
466.14	13.757
466.49	14.105
466.84	13.664
467.19	14.566
467.54	14.101
467.89	14.368
468.24	13.463
468.59	14.186
468.94	14.044
469.29	13.797
469.64	13.859
469.99	13.830
470.34	14.047
470.68	14.354
471.03	13.556
471.38	13.669
471.73	14.044
472.08	13.832
472.43	13.426
472.78	14.547
473.13	13.780
473.48	14.441
473.83	14.800
474.17	13.892
474.52	15.213
474.87	14.286
475.22	14.535
475.57	14.226
475.92	14.783
476.27	14.217
476.61	13.759
476.96	14.025
477.31	14.307
477.66	14.533
478.01	14.743
478.36	13.410
478.70	14.039
479.05	14.213
479.40	13.870
479.75	13.689
480.10	13.974
480.45	13.810
480.79	14.376
481.14	13.971
481.49	14.266
481.84	14.056
482.19	13.849
482.53	14.386
482.88	14.089
483.23	14.273
483.58	14.323
483.92	13.431
484.27	14.395
484.62	14.398
484.97	14.386
485.31	14.572
485.66	13.530
486.01	13.592
486.36	13.929
486.70	14.290
487.05	14.263
487.40	14.627
487.75	14.504
488.09	14.567
488.44	14.334
488.79	14.772
489.13	14.301
489.48	13.398
489.83	13.602
490.17	13.447
490.52	13.998
490.87	14.509
491.22	13.648
491.56	14.548
491.91	14.697
492.26	14.193
492.60	13.511
492.95	14.656
493.30	13.895
493.64	14.148
493.99	14.035
494.34	13.502
494.68	13.876
495.03	14.361
495.37	13.848
495.72	13.878
496.07	13.672
496.41	13.642
496.76	14.304
497.11	13.970
497.45	13.552
497.80	14.394
498.14	13.605
498.49	13.603
498.84	13.894
499.18	14.035
499.53	13.946
499.87	14.593
500.22	13.446
500.56	14.575
500.91	13.913
501.26	14.409
501.60	13.610
501.95	13.765
502.29	13.822
502.64	14.254
502.98	14.150
503.33	13.521
503.67	13.912
504.02	13.310
504.36	13.852
504.71	13.826
505.06	14.188
505.40	13.528
505.75	14.026
506.09	13.950
506.44	13.510
506.78	13.899
507.13	14.523
507.47	14.543
507.82	13.589
508.16	13.576
508.51	13.643
508.85	14.029
509.19	13.974
509.54	15.082
509.88	13.890
510.23	13.842
510.57	13.871
510.92	13.933
511.26	13.901
511.61	13.906
511.95	14.690
512.30	14.229
512.64	13.893
512.98	13.357
513.33	14.466
513.67	13.616
514.02	13.592
514.36	14.066
514.70	13.802
515.05	14.286
515.39	14.226
515.74	14.952
516.08	13.576
516.42	14.338
516.77	14.143
517.11	14.131
517.46	13.680
517.80	13.896
518.14	14.091
518.49	14.425
518.83	13.890
519.17	13.139
519.52	14.780
519.86	14.731
520.20	14.058
520.55	14.841
520.89	14.133
521.23	14.405
521.58	14.633
521.92	14.731
522.26	13.517
522.61	14.178
522.95	13.437
523.29	13.793
523.64	14.350
523.98	14.147
524.32	14.613
524.66	13.660
525.01	14.439
525.35	13.728
525.69	14.211
526.04	13.892
526.38	14.310
526.72	14.648
527.06	14.604
527.41	13.819
527.75	14.786
528.09	13.636
528.43	13.854
528.78	13.815
529.12	13.647
529.46	13.828
529.80	14.073
530.15	13.797
530.49	14.591
530.83	14.286
531.17	14.098
531.51	13.598
531.86	14.784
532.20	14.085
532.54	14.123
532.88	13.636
533.22	14.025
533.57	14.310
533.91	15.208
534.25	14.358
534.59	14.483
534.93	13.243
535.27	14.648
535.62	14.724
535.96	14.294
536.30	14.336
536.64	14.595
536.98	14.207
537.32	14.444
537.66	14.598
538.01	14.139
538.35	13.886
538.69	13.642
539.03	14.470
539.37	14.782
539.71	14.174
540.05	14.928
540.39	14.914
540.73	13.783
541.07	13.550
541.42	14.294
541.76	14.472
542.10	13.088
542.44	12.972
542.78	14.294
543.12	14.005
543.46	14.225
543.80	13.429
544.14	14.243
544.48	14.243
544.82	14.722
545.16	14.132
545.50	13.960
545.84	14.268
546.18	14.877
546.52	14.076
546.86	14.591
547.20	14.059
547.54	14.732
547.88	13.562
548.22	14.503
548.56	14.570
548.90	14.866
549.24	15.076
549.58	13.628
549.92	14.222
550.26	14.434
550.60	14.742
550.94	14.424
551.28	14.323
551.62	15.162
551.96	13.981
552.30	14.149
552.64	14.001
552.98	14.535
553.32	14.341
553.66	13.891
554.00	14.943
554.34	14.221
554.68	14.203
555.02	14.520
555.36	14.530
555.69	13.709
556.03	14.376
556.37	14.831
556.71	14.838
557.05	14.888
557.39	14.930
557.73	14.465
558.07	14.636
558.41	14.219
558.75	14.266
559.08	14.127
559.42	14.472
559.76	14.993
560.10	14.133
560.44	14.446
560.78	15.625
561.12	14.224
561.45	15.085
561.79	14.469
562.13	15.096
562.47	14.303
562.81	14.684
563.15	13.636
563.48	14.730
563.82	14.933
564.16	13.749
564.50	14.064
564.84	14.100
565.17	14.647
565.51	14.212
565.85	13.539
566.19	14.631
566.52	13.868
566.86	14.544
567.20	13.921
567.54	14.817
567.88	14.985
568.21	14.773
568.55	14.436
568.89	15.025
569.23	14.322
569.56	14.771
569.90	14.540
570.24	14.772
570.57	14.208
570.91	14.207
571.25	13.914
571.59	14.667
571.92	14.739
572.26	14.796
572.60	14.578
572.93	14.306
573.27	14.695
573.61	14.796
573.95	14.324
574.28	14.669
574.62	14.507
574.96	14.138
575.29	14.629
575.63	14.507
575.97	14.251
576.30	14.532
576.64	14.293
576.98	14.601
577.31	14.367
577.65	14.816
577.98	14.966
578.32	14.506
578.66	14.568
578.99	14.704
579.33	14.606
579.67	14.529
580.00	14.520
580.34	14.398
580.67	14.784
581.01	14.712
581.35	14.494
581.68	14.499
582.02	14.528
582.35	14.847
582.69	14.728
583.02	14.577
583.36	14.664
583.70	14.588
584.03	14.591
584.37	14.712
584.70	14.377
585.04	14.811
585.37	14.384
585.71	14.455
586.04	14.817
586.38	14.369
586.72	14.490
587.05	14.070
587.39	15.034
587.72	14.833
588.06	14.724
588.39	14.787
588.73	14.101
589.06	14.560
589.40	14.874
589.73	14.428
590.07	14.589
590.40	14.435
590.73	14.387
591.07	15.227
591.40	14.386
591.74	14.746
592.07	15.063
592.41	14.669
592.74	14.661
593.08	14.841
593.41	14.640
593.75	14.483
594.08	14.662
594.41	15.000
594.75	14.879
595.08	14.704
595.42	14.545
595.75	14.950
596.09	15.046
596.42	14.547
596.75	14.589
597.09	15.030
597.42	14.978
597.75	14.073
598.09	14.841
598.42	14.877
598.76	14.559
599.09	14.311
599.42	14.583
599.76	14.460
600.09	14.815
600.42	14.248
600.76	14.861
601.09	14.305
601.42	14.487
601.76	14.448
602.09	14.725
602.42	14.249
602.76	14.428
603.09	14.868
603.42	14.595
603.76	14.235
604.09	14.798
604.42	14.936
604.76	14.422
605.09	15.397
605.42	14.633
605.75	14.000
606.09	14.296
606.42	14.484
606.75	14.280
607.09	14.516
607.42	14.258
607.75	14.459
608.08	14.562
608.42	14.430
608.75	14.967
609.08	14.643
609.41	14.689
609.75	14.152
610.08	14.468
610.41	14.826
610.74	14.496
611.07	14.476
611.41	14.753
611.74	14.642
612.07	14.540
612.40	14.449
612.73	15.208
613.07	14.817
613.40	14.774
613.73	14.444
614.06	14.671
614.39	14.334
614.72	14.119
615.06	14.389
615.39	14.355
615.72	14.171
616.05	14.619
616.38	14.329
616.71	14.211
617.05	14.377
617.38	14.821
617.71	14.903
618.04	14.463
618.37	15.246
618.70	14.876
619.03	14.217
619.36	14.797
619.69	14.414
620.03	14.438
620.36	14.110
620.69	14.374
621.02	14.764
621.35	14.949
621.68	14.678
622.01	13.808
622.34	14.086
622.67	14.433
623.00	12.888
623.33	15.594
623.66	14.008
623.99	14.417
624.32	15.984
624.65	13.385
624.99	14.759
625.32	15.807
625.65	14.767
625.98	14.237
626.31	14.529
626.64	15.092
626.97	14.104
627.30	14.123
627.63	13.803
627.96	15.991
628.29	14.786
628.62	13.854
628.95	13.935
629.28	14.528
629.61	15.067
629.94	13.473
630.26	14.153
630.59	13.817
630.92	13.939
631.25	14.401
631.58	14.972
631.91	13.402
632.24	13.833
632.57	15.085
632.90	14.142
633.23	13.980
633.56	15.204
633.89	13.223
634.22	14.033
634.55	14.823
634.88	13.636
635.20	14.209
635.53	16.045
635.86	13.651
636.19	14.210
636.52	15.084
636.85	13.687
637.18	13.410
637.51	15.269
637.83	14.286
638.16	15.438
638.49	12.089
638.82	12.740
639.15	13.860
639.48	15.704
639.81	14.203
640.13	14.252
640.46	13.576
640.79	13.235
641.12	13.665
641.45	13.802
641.77	15.148
642.10	13.255
642.43	15.027
642.76	15.447
643.09	15.479
643.41	14.566
643.74	15.310
644.07	15.310
644.40	14.569
644.73	12.192
645.05	13.510
645.38	13.957
645.71	13.490
646.04	14.921
646.36	12.847
646.69	12.883
647.02	16.361
647.35	14.504
647.67	13.688
648.00	13.854
648.33	14.414
648.66	14.123
648.98	12.925
649.31	15.156
649.64	16.202
649.96	13.660
650.29	13.769
650.62	13.296
650.94	13.514
651.27	13.323
651.60	14.035
651.92	14.286
652.25	13.748
652.58	14.993
652.90	13.081
653.23	14.789
653.56	12.696
653.88	16.713
654.21	14.507
654.54	15.318
654.86	14.448
655.19	13.551
655.52	14.445
655.84	14.607
656.17	17.041
656.49	23.886
656.82	26.419
657.15	20.828
657.47	15.910
657.80	11.968
658.13	9.584
658.45	12.773
658.78	15.862
659.10	15.433
659.43	15.260
659.75	15.282
660.08	13.894
660.41	13.151
660.73	13.227
661.06	12.482
661.38	13.557
661.71	14.310
662.03	14.815
662.36	14.132
662.68	15.572
663.01	14.867
663.33	14.934
663.66	14.835
663.98	14.423
664.31	14.071
664.63	11.753
664.96	14.882
665.28	12.704
665.61	15.734
665.93	14.464
666.26	15.950
666.58	12.362
666.91	15.701
667.23	13.524
667.56	14.004
667.88	15.600
668.21	12.109
668.53	12.355
668.86	16.110
669.18	12.831
669.50	14.115
669.83	12.000
670.15	13.976
670.48	15.476
670.80	12.237
671.13	13.800
671.45	14.567
671.77	13.936
672.10	12.167
672.42	13.430
672.75	14.132
673.07	13.433
673.39	12.789
673.72	14.597
674.04	12.759
674.37	14.848
674.69	17.108
675.01	12.571
675.34	13.550
675.66	11.985
675.98	14.366
676.31	12.109
676.63	15.399
676.95	15.134
677.28	14.718
677.60	14.173
677.92	14.012
678.25	14.260
678.57	16.014
678.89	15.188
679.22	14.111
679.54	13.333
679.86	12.881
680.18	15.091
680.51	14.780
680.83	14.075
681.15	11.897
681.48	14.853
681.80	14.680
682.12	12.413
682.44	13.689
682.77	12.943
683.09	13.636
683.41	13.566
683.73	13.472
684.06	12.731
684.38	13.775
684.70	14.901
685.02	13.769
685.34	12.146
685.67	13.091
685.99	12.270
686.31	14.535
686.63	12.322
686.96	15.457
687.28	13.681
687.60	14.310
687.92	13.505
688.24	14.190
688.56	12.414
688.89	14.882
689.21	12.916
689.53	13.725
689.85	11.243
690.17	11.111
690.49	14.143
690.82	13.861
691.14	10.931
691.46	13.384
691.78	15.285
692.10	13.211
692.42	12.500
692.74	12.341
693.06	10.926
693.39	14.991
693.71	13.534
694.03	14.684
694.35	11.619
694.67	15.811
694.99	11.915
695.31	11.258
695.63	13.636
695.95	15.321
696.27	12.747
696.59	14.602
696.91	12.387
697.23	16.264
697.56	12.016
697.88	11.553
698.20	14.878
698.52	15.530
698.84	14.969
699.16	14.286
699.48	14.435
699.80	12.979
700.12	14.410
700.44	13.134
700.76	14.727
701.08	14.286
701.40	13.472
701.72	13.433
702.04	16.310
702.36	12.827
702.68	16.381
703.00	12.714
703.32	12.069
703.64	15.892
703.96	11.933
704.28	15.725
704.60	15.443
704.91	14.031
705.23	16.164
705.55	11.142
705.87	14.848
706.19	18.712
706.51	9.940
706.83	12.680
707.15	10.582
707.47	11.215
707.79	11.572
708.11	12.076
708.43	13.118
708.74	12.500
709.06	15.081
709.38	14.319
709.70	16.625
710.02	12.920
710.34	14.362
710.66	10.894
710.98	13.388
711.29	11.813
711.61	11.864
711.93	11.966
712.25	14.865
712.57	17.994
712.89	12.353
713.20	14.793
713.52	14.162
713.84	11.142
714.16	15.000
714.48	12.629
714.80	15.844
715.11	12.073
715.43	13.793
715.75	15.263
716.07	11.326
716.39	14.754
716.70	12.048
717.02	14.754
717.34	11.150
717.66	12.416
717.97	10.959
718.29	11.340
718.61	10.855
718.93	14.239
719.24	15.528
719.56	12.270
719.88	13.814
720.20	17.097
720.51	16.149
720.83	12.188
721.15	9.539
721.46	9.247
721.78	14.333
722.10	11.327
722.42	9.396
722.73	11.613
723.05	15.439
723.37	12.847
723.68	15.412
724.00	13.718
724.32	11.620
724.63	14.336
724.95	14.539
725.27	12.544
725.58	15.901
725.90	13.793
726.22	11.912
726.53	14.610
726.85	15.723
727.16	12.387
727.48	14.067
727.80	13.907
728.11	16.254
728.43	12.458
728.74	10.368
729.06	10.265
729.38	14.935
729.69	12.416
730.01	13.690
730.32	14.242
730.64	14.151
730.96	12.422
731.27	16.201
731.59	13.462
731.90	10.649
732.22	12.760
732.53	8.840
732.85	13.429
733.16	11.730
733.48	10.366
733.80	11.142
734.11	14.245
734.43	12.432
734.74	16.456
735.06	11.809
735.37	14.324
735.69	14.054
736.00	13.559
736.32	13.747
736.63	14.167
736.95	12.644
737.26	13.636
737.58	9.091
737.89	16.176
738.21	11.009
738.52	12.459
738.83	13.652
739.15	12.057
739.46	14.966
739.78	14.417
740.09	10.888
740.41	12.536
740.72	12.000
741.04	12.621
741.35	15.088
741.66	15.294
741.98	11.885
742.29	10.460
742.61	14.474
742.92	14.615
743.23	16.606
743.55	10.853
743.86	17.600
744.18	8.264
744.49	7.595
744.80	13.169
745.12	13.080
745.43	15.041
745.74	12.931
746.06	13.983
746.37	15.612
746.68	14.634
747.00	15.417
747.31	15.021
747.62	15.769
747.94	12.551
748.25	8.835
748.56	12.653
748.88	15.812
749.19	18.534
749.50	8.658
749.82	12.851
750.13	16.014
750.44	10.667
750.75	12.923
751.07	12.615
751.38	13.880
751.69	15.974
752.01	11.327
752.32	11.765
752.63	13.605
752.94	14.187
753.26	10.409
753.57	10.741
753.88	14.981
754.19	15.113
754.51	10.611
754.82	15.113
755.13	15.082
755.44	11.604
755.75	13.158
756.07	14.030
756.38	11.321
756.69	12.952
757.00	8.033
757.31	9.836
757.63	10.997
757.94	11.268
758.25	16.479
758.56	13.072
758.87	14.091
759.18	15.467
759.50	15.581
759.81	15.406
760.12	13.747
760.43	13.542
760.74	15.025
761.05	15.000
761.36	12.289
761.67	10.406
761.99	12.973
762.30	13.110
762.61	10.561
762.92	15.672
763.23	14.607
763.54	12.950
763.85	12.715
764.16	11.448
764.47	14.789
764.78	12.780
765.10	13.490
765.41	16.154
765.72	12.169
766.03	14.972
766.34	12.226
766.65	11.847
766.96	15.936
767.27	17.512
767.58	9.950
767.89	17.788
768.20	17.840
768.51	11.111
768.82	12.048
769.13	13.636
769.44	8.462
769.75	15.884
770.06	11.154
770.37	16.142
770.68	12.766
770.99	9.717
771.30	14.815
771.61	17.110
771.92	12.593
772.23	14.170
772.54	7.870
772.85	19.816
773.16	16.190
773.47	8.466
773.78	7.568
774.09	15.341
774.39	23.000
774.70	18.579
775.01	12.195
775.32	5.882
775.63	9.202
775.94	6.369
776.25	14.839
776.56	18.590
776.87	19.048
777.18	14.483
777.48	17.483
777.79	10.811
778.10	9.559
778.41	15.972
778.72	9.655
779.03	14.815
779.34	15.152
779.65	15.544
779.95	20.000
780.26	16.477
780.57	14.839
780.88	21.014
781.19	21.290
781.50	21.176
781.80	20.430
782.11	15.344
782.42	10.101
782.73	8.383
783.04	10.615
783.34	12.121
783.65	5.882
783.96	11.801
784.27	11.905
784.57	8.609
784.88	8.571
785.19	14.173
785.50	14.173
785.81	11.278
786.11	14.615
786.42	10.072
786.73	12.950
787.04	15.789
787.34	13.934
787.65	9.600
787.96	11.194
788.26	23.077
788.57	20.979
788.88	12.500
789.19	13.072
789.49	13.699
789.80	16.312
790.11	20.472
790.41	12.500
790.72	10.169
791.03	0.000
791.33	12.174
791.64	14.035
791.95	2.679
792.25	16.190
792.56	18.750
792.87	9.375
793.17	17.857
793.48	9.375
793.79	6.024
794.09	13.761
794.40	13.761
794.70	8.163
795.01	15.584
795.32	10.274
795.62	26.761
795.93	14.394
796.23	12.295
796.54	14.286
796.85	19.149
797.15	8.696
797.46	9.589
797.76	5.000
798.07	13.043
798.37	11.340
798.68	11.688
798.99	14.943
799.29	10.112
799.60	21.277
799.90	6.024
800.21	15.385
800.51	13.433
800.82	4.412
801.12	-1.370
801.43	-2.941
801.73	3.390
802.04	19.697
802.34	-10.000
802.65	18.644
802.95	8.955
803.26	13.559
803.56	9.589
803.87	25.714
804.17	1.370
804.48	-5.263
804.78	8.333
805.09	-3.448
805.39	4.054
805.70	-12.676
806.00	20.732
806.30	10.843
806.61	2.740
806.91	12.500
807.22	12.222
807.52	4.598
807.83	12.500
808.13	18.072
808.43	10.112
808.74	1.250
809.04	11.765
809.35	10.667
809.65	2.857
809.95	5.479
810.26	-7.018
810.56	10.345
810.86	10.294
811.17	15.789
811.47	-1.639
811.77	-13.333
812.08	15.254
812.38	26.667
812.69	18.966
812.99	20.755
813.29	0.000
813.59	34.000
813.90	14.035
814.20	3.636
814.50	18.310
814.81	10.256
815.11	9.836
815.41	8.955
815.72	13.793
816.02	26.786
816.32	37.778
816.62	27.273
816.93	24.444
817.23	18.519
817.53	-6.383
817.84	7.143
818.14	-2.941
818.44	12.245
818.74	17.778
819.04	-7.692
819.35	-14.286
819.65	-3.846
819.95	15.094
820.25	0.000
820.56	14.286
820.86	-9.375
821.16	-5.128
821.46	11.628
821.76	26.000
822.07	7.143
822.37	2.174
822.67	14.894
822.97	5.405
823.27	-2.500
823.57	30.612
823.88	28.889
824.18	-2.500
824.48	10.000
824.78	8.000
825.08	30.303
825.38	4.444
825.69	0.000
825.99	-13.889
826.29	-17.143
826.59	-7.692
826.89	-13.953
827.19	10.000
827.49	-11.765
827.79	18.750
828.09	-13.514
828.39	13.333
828.70	31.707
829.00	13.953
829.30	-14.286
829.60	11.765
829.90	17.391
830.20	2.857
830.50	13.793
830.80	-11.111
831.10	-3.846
831.40	-2.941
831.70	14.286
832.00	25.806
832.30	-76.471
832.60	-12.500
832.90	-30.769
833.20	21.053
833.50	-20.000
833.80	10.526
834.10	-52.381
834.40	36.111
834.70	28.125
835.00	-17.143
835.30	29.412
835.60	6.667
835.90	-8.000
836.20	-59.091
836.50	12.000
836.80	-42.424
837.10	25.926
837.40	0.000
837.70	12.500
838.00	39.286
838.30	-13.043
838.60	10.345
838.90	57.143
839.19	-26.087
839.49	-133.333
839.79	30.435
840.09	-31.250
840.39	-30.000
840.69	41.935
840.99	17.857
841.29	60.000
841.59	10.526
841.88	30.769
842.18	61.538
842.48	-30.000
842.78	0.000
843.08	-3.333
843.38	29.032
843.68	-66.667
843.97	14.706
844.27	0.000
844.57	-10.526
844.87	-100.000
845.17	-26.667
845.47	33.333
845.76	14.286
846.06	22.222
846.36	-35.294
846.66	3.846
846.96	-13.333
847.25	-23.529
847.55	4.348
847.85	15.000
848.15	11.765
848.44	18.182
848.74	47.619
849.04	-16.667
849.34	-87.500
849.63	-13.043
849.93	550.000
850.23	26.667
850.53	80.769
850.82	-9.091
851.12	72.727
851.42	18.182
851.71	69.231
852.01	-25.000
852.31	-15.385
852.61	5.263
852.90	58.333
853.20	-33.333
853.50	0.000
853.79	-33.333
854.09	-40.909
854.39	-116.667
854.68	6.452
854.98	7.692
855.28	-5.556
855.57	-10.714
855.87	-16.000
856.17	-27.273
856.46	7.407
856.76	0.000
857.05	-21.739
857.35	-41.667
857.65	-23.077
857.94	19.048
858.24	33.333
858.53	30.435
858.83	5.882
859.13	-5.882
859.42	11.765
859.72	-14.286
860.01	-15.000
860.31	22.222
860.60	-20.000
860.90	40.000
861.20	44.444
861.49	-7.692
861.79	33.333
862.08	30.769
862.38	28.125
862.67	-29.412
862.97	-25.000
863.26	-11.111
863.56	30.000
863.85	9.091
864.15	22.222
864.44	66.667
864.74	-14.286
865.03	-25.000
865.33	-110.000
865.62	22.581
865.92	27.273
866.21	26.087
866.51	7.143
866.80	-80.000
867.10	-75.000
867.39	16.667
867.69	-500.000
867.98	28.571
868.27	5.882
868.57	-1600.000
868.86	-100.000
869.16	19.048
869.45	62.500
869.75	54.545
870.04	14.286
870.33	83.333
870.63	-85.714
870.92	0.000
871.22	-137.500
871.51	-54.545
871.80	-300.000
872.10	-150.000
>>>>>End Processed Spectral Data<<<<<
