SpectraSuite Data File
++++++++++++++++++++++++++++++++++++
Date: Thu May 14 16:23:45 PDT 2015
User: schluterlab
Dark Spectrum Present: Yes
Reference Spectrum Present: Yes
Number of Sampled Component Spectra: 1
Spectrometers: USB2E3373
Integration Time (usec): 3000 (USB2E3373)
Spectra Averaged: 3 (USB2E3373)
Boxcar Smoothing: 0 (USB2E3373)
Correct for Electrical Dark: No (USB2E3373)
Strobe/Lamp Enabled: No (USB2E3373)
Correct for Detector Non-linearity: No (USB2E3373)
Correct for Stray Light: No (USB2E3373)
Number of Pixels in Processed Spectrum: 2048
>>>>>Begin Processed Spectral Data<<<<<
178.53	0.000
178.91	85.714
179.29	-600.000
179.67	-1400.000
180.04	171.429
180.42	60.000
180.80	80.000
181.18	-1100.000
181.56	-800.000
181.94	75.000
182.31	-50.000
182.69	233.333
183.07	-200.000
183.45	100.000
183.83	-83.333
184.20	-233.333
184.58	-0.000
184.96	-150.000
185.34	-88.889
185.72	-80.000
186.09	144.444
186.47	250.000
186.85	320.000
187.23	-55.556
187.61	-600.000
187.98	240.000
188.36	200.000
188.74	-275.000
189.12	-100.000
189.49	-31.250
189.87	-125.000
190.25	-55.556
190.63	-80.000
191.00	-100.000
191.38	0.000
191.76	-250.000
192.14	-100.000
192.51	300.000
192.89	33.333
193.27	0.000
193.65	-71.429
194.02	-1300.000
194.40	-57.143
194.78	214.286
195.15	0.000
195.53	36.364
195.91	0.000
196.29	-175.000
196.66	-46.154
197.04	-1400.000
197.42	-114.286
197.79	0.000
198.17	0.000
198.55	-28.571
198.92	-22.222
199.30	-112.500
199.68	-9.091
200.05	-14.286
200.43	-450.000
200.81	228.571
201.18	0.000
201.56	155.556
201.94	0.000
202.31	400.000
202.69	-233.333
203.07	1100.000
203.44	-100.000
203.82	-175.000
204.19	-100.000
204.57	-16.667
204.95	-100.000
205.32	-1400.000
205.70	-0.000
206.08	-133.333
206.45	-66.667
206.83	280.000
207.20	183.333
207.58	20.000
207.96	-83.333
208.33	133.333
208.71	100.000
209.08	66.667
209.46	0.000
209.84	200.000
210.21	150.000
210.59	-0.000
210.96	66.667
211.34	-50.000
211.71	50.000
212.09	-800.000
212.46	0.000
212.84	700.000
213.22	-220.000
213.59	75.000
213.97	50.000
214.34	-100.000
214.72	66.667
215.09	-150.000
215.47	0.000
215.84	57.143
216.22	400.000
216.59	80.000
216.97	-180.000
217.34	-225.000
217.72	-25.000
218.09	-75.000
218.47	-275.000
218.84	0.000
219.22	60.000
219.59	35.294
219.97	35.000
220.34	200.000
220.72	-77.778
221.09	61.538
221.47	-333.333
221.84	-60.000
222.22	-71.429
222.59	0.000
222.97	12.500
223.34	-100.000
223.72	-800.000
224.09	-250.000
224.46	-25.000
224.84	-120.000
225.21	-171.429
225.59	-450.000
225.96	-175.000
226.34	26.923
226.71	166.667
227.08	-600.000
227.46	6.667
227.83	-175.000
228.21	-5.263
228.58	125.000
228.95	50.000
229.33	0.000
229.70	-10.000
230.08	84.211
230.45	40.000
230.82	-266.667
231.20	-57.143
231.57	-8.333
231.95	72.727
232.32	0.000
232.69	20.000
233.07	-100.000
233.44	17.647
233.81	-40.000
234.19	50.000
234.56	-31.818
234.93	3.448
235.31	-36.842
235.68	-22.222
236.05	-25.000
236.43	26.923
236.80	44.000
237.17	-11.111
237.55	3.030
237.92	-10.000
238.29	19.355
238.67	-4.545
239.04	-16.667
239.41	0.000
239.79	8.696
240.16	-1.852
240.53	-17.391
240.91	-21.569
241.28	18.033
241.65	7.463
242.02	10.811
242.40	-13.846
242.77	4.000
243.14	-3.659
243.51	-7.895
243.89	-15.385
244.26	7.921
244.63	4.902
245.00	5.607
245.38	3.509
245.75	-15.044
246.12	-3.175
246.49	-2.326
246.87	-7.857
247.24	3.311
247.61	6.579
247.98	-0.671
248.36	4.321
248.73	-3.681
249.10	4.918
249.47	2.488
249.84	5.236
250.22	-2.073
250.59	4.444
250.96	3.636
251.33	-0.510
251.70	2.564
252.08	1.667
252.45	6.967
252.82	0.413
253.19	-0.391
253.56	-1.521
253.94	0.000
254.31	4.545
254.68	5.944
255.05	3.909
255.42	2.721
255.79	-0.971
256.16	1.656
256.54	1.987
256.91	0.984
257.28	-0.984
257.65	1.911
258.02	0.590
258.39	0.000
258.76	5.199
259.14	4.598
259.51	0.000
259.88	0.850
260.25	2.778
260.62	-0.548
260.99	1.913
261.36	2.681
261.73	1.061
262.10	-0.275
262.47	1.072
262.85	5.051
263.22	1.818
263.59	-0.789
263.96	2.558
264.33	-0.767
264.70	2.222
265.07	5.728
265.44	6.576
265.81	0.463
266.18	1.814
266.55	2.679
266.92	-0.456
267.29	1.969
267.66	0.000
268.03	3.057
268.40	3.340
268.77	1.367
269.14	-0.220
269.51	4.605
269.88	4.303
270.25	4.024
270.62	3.586
270.99	5.253
271.36	3.762
271.73	2.750
272.10	4.810
272.47	0.802
272.84	3.815
273.21	3.006
273.58	2.823
273.95	1.346
274.32	3.042
274.69	0.967
275.06	2.564
275.43	1.479
275.80	3.175
276.17	2.037
276.54	0.746
276.91	3.220
277.28	2.893
277.65	3.950
278.02	1.287
278.39	1.087
278.76	1.406
279.13	2.837
279.50	4.124
279.87	2.326
280.23	1.408
280.60	3.559
280.97	4.112
281.34	1.698
281.71	4.399
282.08	2.658
282.45	3.437
282.82	3.925
283.19	0.485
283.56	1.967
283.92	4.054
284.29	3.949
284.66	2.791
285.03	0.962
285.40	4.946
285.77	1.084
286.14	5.038
286.51	2.131
286.87	2.528
287.24	2.560
287.61	3.139
287.98	1.208
288.35	2.219
288.72	2.219
289.08	3.367
289.45	1.923
289.82	1.958
290.19	3.305
290.56	2.958
290.93	3.852
291.29	2.066
291.66	0.689
292.03	1.357
292.40	3.810
292.77	1.348
293.13	2.165
293.50	1.577
293.87	2.148
294.24	3.200
294.60	3.161
294.97	1.208
295.34	4.353
295.71	1.892
296.08	3.230
296.44	3.431
296.81	2.314
297.18	2.117
297.55	1.533
297.91	3.084
298.28	1.896
298.65	1.665
299.02	2.125
299.38	1.945
299.75	1.752
300.12	1.042
300.48	3.111
300.85	3.037
301.22	2.908
301.59	1.941
301.95	2.260
302.32	3.889
302.69	2.191
303.05	2.612
303.42	1.441
303.79	2.396
304.15	1.998
304.52	2.431
304.89	1.780
305.25	3.106
305.62	3.239
305.99	2.887
306.35	1.411
306.72	2.999
307.09	1.726
307.45	2.899
307.82	1.816
308.19	2.018
308.55	2.989
308.92	3.408
309.29	2.778
309.65	2.437
310.02	2.673
310.38	2.165
310.75	2.913
311.12	3.739
311.48	1.760
311.85	2.089
312.22	2.562
312.58	2.911
312.95	2.677
313.31	4.517
313.68	3.388
314.05	3.342
314.41	3.916
314.78	3.815
315.14	3.811
315.51	5.910
315.87	5.401
316.24	4.749
316.61	5.329
316.97	4.253
317.34	5.026
317.70	5.939
318.07	6.437
318.43	6.888
318.80	6.522
319.16	5.665
319.53	5.998
319.89	5.171
320.26	7.206
320.62	6.560
320.99	7.202
321.35	7.856
321.72	9.953
322.08	8.476
322.45	9.304
322.81	9.928
323.18	10.177
323.54	10.345
323.91	10.943
324.27	9.897
324.64	11.251
325.00	10.614
325.37	12.449
325.73	12.231
326.10	12.328
326.46	13.844
326.83	14.091
327.19	14.016
327.56	14.071
327.92	14.005
328.29	14.194
328.65	15.494
329.01	14.552
329.38	15.164
329.74	15.582
330.11	16.610
330.47	15.754
330.84	15.762
331.20	16.917
331.56	15.945
331.93	17.908
332.29	17.542
332.66	16.944
333.02	16.834
333.38	17.617
333.75	16.582
334.11	17.848
334.48	17.987
334.84	18.352
335.20	18.220
335.57	18.971
335.93	17.851
336.29	17.720
336.66	18.251
337.02	18.227
337.38	18.197
337.75	17.769
338.11	18.419
338.47	19.272
338.84	18.105
339.20	17.355
339.56	17.710
339.93	18.391
340.29	17.633
340.65	17.680
341.02	19.792
341.38	19.402
341.74	18.805
342.11	18.504
342.47	18.268
342.83	19.082
343.20	19.297
343.56	19.086
343.92	18.895
344.28	18.594
344.65	18.682
345.01	18.253
345.37	19.051
345.73	18.161
346.10	19.813
346.46	18.196
346.82	19.401
347.19	19.328
347.55	19.120
347.91	18.128
348.27	17.906
348.63	19.040
349.00	18.046
349.36	18.364
349.72	19.494
350.08	18.202
350.45	18.251
350.81	18.477
351.17	19.098
351.53	18.271
351.89	19.818
352.26	18.955
352.62	18.657
352.98	17.710
353.34	18.372
353.70	19.646
354.07	19.001
354.43	18.147
354.79	18.549
355.15	17.734
355.51	19.371
355.87	17.801
356.24	19.087
356.60	18.256
356.96	18.236
357.32	17.918
357.68	18.887
358.04	18.638
358.40	18.731
358.77	19.298
359.13	18.168
359.49	17.472
359.85	18.782
360.21	18.149
360.57	17.229
360.93	17.772
361.29	18.386
361.66	18.248
362.02	18.720
362.38	19.044
362.74	18.506
363.10	18.157
363.46	19.183
363.82	19.744
364.18	19.423
364.54	19.848
364.90	18.997
365.26	18.483
365.62	19.000
365.98	19.333
366.35	18.322
366.71	18.844
367.07	18.877
367.43	18.647
367.79	19.575
368.15	19.933
368.51	18.945
368.87	18.485
369.23	18.667
369.59	18.306
369.95	18.323
370.31	19.244
370.67	18.432
371.03	19.529
371.39	18.670
371.75	19.807
372.11	19.986
372.47	19.973
372.83	19.110
373.19	18.212
373.55	18.428
373.91	19.018
374.27	19.146
374.63	19.553
374.99	18.700
375.35	19.740
375.71	18.774
376.07	19.109
376.42	19.395
376.78	19.826
377.14	19.651
377.50	19.861
377.86	19.150
378.22	18.982
378.58	19.560
378.94	20.364
379.30	18.571
379.66	19.636
380.02	19.388
380.38	19.355
380.74	18.873
381.09	19.222
381.45	19.602
381.81	19.496
382.17	19.715
382.53	19.649
382.89	19.921
383.25	19.402
383.61	18.345
383.97	19.435
384.32	19.318
384.68	17.981
385.04	19.144
385.40	20.094
385.76	20.457
386.12	19.031
386.48	20.118
386.83	20.024
387.19	18.888
387.55	19.249
387.91	18.893
388.27	18.707
388.62	19.702
388.98	19.628
389.34	19.976
389.70	19.407
390.06	19.420
390.42	19.277
390.77	19.868
391.13	19.484
391.49	19.384
391.85	19.515
392.20	18.743
392.56	19.905
392.92	19.902
393.28	19.016
393.64	19.274
393.99	20.744
394.35	19.977
394.71	19.281
395.07	18.563
395.42	19.132
395.78	20.414
396.14	20.440
396.50	18.943
396.85	18.545
397.21	19.586
397.57	19.376
397.92	19.989
398.28	19.392
398.64	19.279
399.00	18.639
399.35	19.791
399.71	18.750
400.07	19.203
400.42	19.558
400.78	20.197
401.14	19.067
401.49	19.898
401.85	20.407
402.21	19.177
402.57	20.012
402.92	20.331
403.28	19.145
403.63	18.735
403.99	18.765
404.35	19.386
404.70	19.377
405.06	19.511
405.42	18.970
405.77	19.411
406.13	19.071
406.49	19.313
406.84	19.003
407.20	18.558
407.55	19.443
407.91	18.290
408.27	19.317
408.62	19.430
408.98	19.559
409.34	17.771
409.69	19.098
410.05	18.875
410.40	19.142
410.76	18.228
411.11	19.871
411.47	19.779
411.83	19.459
412.18	19.337
412.54	18.672
412.89	19.150
413.25	18.284
413.60	18.380
413.96	19.522
414.31	18.754
414.67	18.843
415.03	18.708
415.38	18.979
415.74	18.571
416.09	18.014
416.45	18.410
416.80	17.442
417.16	18.135
417.51	18.991
417.87	18.332
418.22	19.102
418.58	19.269
418.93	19.441
419.29	18.249
419.64	18.187
420.00	17.982
420.35	19.203
420.71	18.610
421.06	18.401
421.42	19.266
421.77	18.148
422.12	18.446
422.48	18.638
422.83	19.003
423.19	18.302
423.54	17.644
423.90	18.995
424.25	17.813
424.61	18.197
424.96	18.616
425.31	19.002
425.67	18.196
426.02	18.539
426.38	19.173
426.73	17.299
427.09	18.973
427.44	17.477
427.79	18.408
428.15	17.295
428.50	17.753
428.85	18.255
429.21	18.830
429.56	17.818
429.92	17.985
430.27	17.687
430.62	17.684
430.98	17.708
431.33	17.840
431.68	17.241
432.04	18.283
432.39	17.890
432.74	17.751
433.10	18.172
433.45	17.336
433.80	17.918
434.16	18.440
434.51	18.808
434.86	17.752
435.22	17.588
435.57	18.691
435.92	17.863
436.28	18.316
436.63	18.078
436.98	17.230
437.34	18.320
437.69	18.382
438.04	17.715
438.39	18.438
438.75	18.207
439.10	18.182
439.45	18.558
439.81	17.853
440.16	17.962
440.51	18.004
440.86	17.732
441.22	17.471
441.57	18.291
441.92	18.235
442.27	19.091
442.63	18.231
442.98	18.090
443.33	18.517
443.68	18.434
444.03	17.686
444.39	17.522
444.74	17.713
445.09	17.841
445.44	17.861
445.79	18.391
446.15	17.780
446.50	18.191
446.85	17.802
447.20	18.762
447.55	17.992
447.91	17.749
448.26	17.600
448.61	17.960
448.96	17.972
449.31	17.391
449.66	17.048
450.02	17.352
450.37	18.274
450.72	18.030
451.07	17.312
451.42	17.966
451.77	17.454
452.12	18.905
452.47	17.172
452.83	18.300
453.18	17.863
453.53	17.117
453.88	17.891
454.23	17.345
454.58	17.934
454.93	17.840
455.28	17.700
455.63	17.908
455.98	18.715
456.34	18.198
456.69	16.990
457.04	17.671
457.39	16.962
457.74	18.233
458.09	17.298
458.44	17.511
458.79	17.174
459.14	17.724
459.49	17.714
459.84	18.101
460.19	16.768
460.54	18.001
460.89	17.946
461.24	17.414
461.59	18.152
461.94	16.942
462.29	17.581
462.64	16.596
462.99	17.765
463.34	17.391
463.69	17.292
464.04	18.121
464.39	17.489
464.74	16.306
465.09	17.993
465.44	17.114
465.79	17.927
466.14	15.998
466.49	17.000
466.84	17.135
467.19	17.168
467.54	15.687
467.89	16.897
468.24	16.898
468.59	16.445
468.94	16.142
469.29	16.797
469.64	15.830
469.99	15.870
470.34	16.770
470.68	16.200
471.03	16.961
471.38	16.351
471.73	15.475
472.08	16.434
472.43	16.195
472.78	16.562
473.13	15.613
473.48	16.918
473.83	16.309
474.17	15.768
474.52	16.176
474.87	16.224
475.22	15.944
475.57	16.096
475.92	16.775
476.27	16.454
476.61	16.147
476.96	15.902
477.31	16.733
477.66	16.632
478.01	16.014
478.36	16.451
478.70	15.961
479.05	15.849
479.40	15.943
479.75	15.610
480.10	15.396
480.45	16.363
480.79	15.873
481.14	15.441
481.49	15.311
481.84	15.970
482.19	16.387
482.53	16.222
482.88	15.906
483.23	15.607
483.58	15.459
483.92	14.849
484.27	15.241
484.62	15.594
484.97	15.785
485.31	14.854
485.66	15.123
486.01	14.885
486.36	15.292
486.70	15.896
487.05	15.927
487.40	15.231
487.75	15.674
488.09	15.159
488.44	15.197
488.79	15.042
489.13	15.206
489.48	14.680
489.83	14.608
490.17	14.257
490.52	15.558
490.87	14.890
491.22	14.818
491.56	14.676
491.91	14.610
492.26	14.842
492.60	14.779
492.95	15.314
493.30	14.433
493.64	14.279
493.99	14.561
494.34	14.591
494.68	14.775
495.03	14.141
495.37	14.736
495.72	14.331
496.07	14.110
496.41	13.728
496.76	15.179
497.11	14.140
497.45	14.199
497.80	15.460
498.14	14.467
498.49	14.200
498.84	15.448
499.18	14.530
499.53	14.126
499.87	14.110
500.22	14.248
500.56	13.765
500.91	14.416
501.26	13.909
501.60	13.920
501.95	14.373
502.29	13.734
502.64	14.254
502.98	14.280
503.33	13.780
503.67	13.737
504.02	14.142
504.36	14.790
504.71	14.332
505.06	14.188
505.40	14.488
505.75	14.162
506.09	14.457
506.44	12.999
506.78	14.771
507.13	14.016
507.47	13.785
507.82	13.163
508.16	13.337
508.51	13.361
508.85	12.801
509.19	14.022
509.54	13.881
509.88	13.356
510.23	12.967
510.57	14.161
510.92	13.740
511.26	13.324
511.61	12.892
511.95	13.470
512.30	13.934
512.64	13.093
512.98	13.107
513.33	12.500
513.67	12.800
514.02	13.183
514.36	13.248
514.70	13.073
515.05	12.513
515.39	12.493
515.74	13.627
516.08	12.784
516.42	14.024
516.77	12.723
517.11	11.965
517.46	13.627
517.80	13.469
518.14	12.786
518.49	12.364
518.83	12.666
519.17	11.955
519.52	12.893
519.86	13.147
520.20	12.993
520.55	12.651
520.89	13.119
521.23	13.065
521.58	13.107
521.92	12.408
522.26	12.428
522.61	12.963
522.95	12.976
523.29	11.954
523.64	12.444
523.98	13.234
524.32	12.951
524.66	12.521
525.01	12.061
525.35	12.177
525.69	11.659
526.04	11.998
526.38	12.011
526.72	12.918
527.06	11.906
527.41	12.828
527.75	12.114
528.09	11.334
528.43	11.427
528.78	11.850
529.12	11.697
529.46	12.085
529.80	11.613
530.15	12.058
530.49	11.625
530.83	11.511
531.17	12.306
531.51	11.372
531.86	11.959
532.20	12.012
532.54	11.789
532.88	11.576
533.22	11.844
533.57	11.829
533.91	12.851
534.25	11.023
534.59	12.069
534.93	11.262
535.27	11.606
535.62	12.280
535.96	12.318
536.30	11.457
536.64	13.093
536.98	12.116
537.32	12.407
537.66	12.040
538.01	11.964
538.35	11.389
538.69	11.538
539.03	12.078
539.37	11.661
539.71	12.132
540.05	12.050
540.39	11.369
540.73	10.929
541.07	11.649
541.42	11.105
541.76	10.973
542.10	11.821
542.44	10.719
542.78	11.983
543.12	12.098
543.46	10.928
543.80	11.151
544.14	11.670
544.48	11.466
544.82	12.148
545.16	10.912
545.50	10.665
545.84	11.268
546.18	11.852
546.52	10.382
546.86	11.509
547.20	10.814
547.54	11.174
547.88	11.332
548.22	10.702
548.56	11.059
548.90	10.746
549.24	10.881
549.58	10.789
549.92	10.523
550.26	11.003
550.60	11.678
550.94	10.996
551.28	12.079
551.62	11.119
551.96	10.356
552.30	11.090
552.64	12.197
552.98	11.666
553.32	10.418
553.66	10.611
554.00	11.223
554.34	10.682
554.68	10.975
555.02	10.578
555.36	10.454
555.69	10.570
556.03	10.467
556.37	10.889
556.71	10.653
557.05	10.096
557.39	10.883
557.73	10.370
558.07	10.199
558.41	11.096
558.75	11.427
559.08	10.230
559.42	10.768
559.76	10.651
560.10	10.650
560.44	10.356
560.78	11.312
561.12	10.345
561.45	11.618
561.79	10.440
562.13	10.844
562.47	9.618
562.81	10.823
563.15	10.290
563.48	9.820
563.82	10.580
564.16	9.025
564.50	10.191
564.84	9.853
565.17	9.706
565.51	10.472
565.85	8.967
566.19	9.965
566.52	9.772
566.86	10.243
567.20	9.788
567.54	9.984
567.88	10.754
568.21	10.079
568.55	10.935
568.89	10.576
569.23	10.393
569.56	10.434
569.90	10.121
570.24	10.388
570.57	9.910
570.91	9.645
571.25	9.922
571.59	10.103
571.92	9.968
572.26	10.005
572.60	10.128
572.93	10.270
573.27	9.862
573.61	10.323
573.95	10.269
574.28	10.278
574.62	9.936
574.96	9.793
575.29	9.760
575.63	9.633
575.97	10.491
576.30	9.993
576.64	9.687
576.98	9.863
577.31	10.074
577.65	9.781
577.98	9.714
578.32	9.928
578.66	9.989
578.99	9.994
579.33	9.693
579.67	9.655
580.00	9.688
580.34	9.817
580.67	9.554
581.01	9.714
581.35	10.072
581.68	9.725
582.02	10.212
582.35	9.980
582.69	9.767
583.02	9.849
583.36	9.940
583.70	9.748
584.03	9.671
584.37	9.652
584.70	9.780
585.04	9.416
585.37	9.810
585.71	9.730
586.04	9.467
586.38	9.773
586.72	9.451
587.05	9.491
587.39	9.599
587.72	9.809
588.06	9.889
588.39	9.783
588.73	9.524
589.06	10.102
589.40	9.281
589.73	9.929
590.07	9.251
590.40	9.973
590.73	9.403
591.07	10.313
591.40	9.331
591.74	9.817
592.07	9.704
592.41	9.188
592.74	10.082
593.08	10.000
593.41	9.478
593.75	9.655
594.08	9.664
594.41	9.455
594.75	9.332
595.08	9.219
595.42	9.643
595.75	9.751
596.09	9.692
596.42	9.566
596.75	9.533
597.09	10.303
597.42	9.098
597.75	9.055
598.09	9.167
598.42	10.012
598.76	9.056
599.09	9.007
599.42	9.118
599.76	9.112
600.09	9.643
600.42	8.842
600.76	9.775
601.09	8.762
601.42	9.784
601.76	9.690
602.09	9.257
602.42	9.015
602.76	9.410
603.09	9.288
603.42	9.357
603.76	9.056
604.09	9.865
604.42	9.578
604.76	9.247
605.09	9.294
605.42	9.410
605.75	9.038
606.09	9.071
606.42	8.756
606.75	8.771
607.09	8.833
607.42	8.902
607.75	9.261
608.08	9.155
608.42	9.230
608.75	9.660
609.08	9.126
609.41	8.778
609.75	8.839
610.08	9.411
610.41	8.709
610.74	9.496
611.07	9.281
611.41	9.372
611.74	8.961
612.07	9.444
612.40	9.173
612.73	9.144
613.07	9.046
613.40	9.240
613.73	8.811
614.06	9.421
614.39	8.989
614.72	8.976
615.06	8.566
615.39	8.507
615.72	9.431
616.05	9.616
616.38	9.384
616.71	9.352
617.05	8.999
617.38	9.470
617.71	9.017
618.04	9.282
618.37	9.071
618.70	9.785
619.03	8.662
619.36	9.001
619.69	9.161
620.03	8.914
620.36	8.650
620.69	7.835
621.02	8.727
621.35	9.144
621.68	8.894
622.01	8.897
622.34	8.229
622.67	9.210
623.00	8.030
623.33	9.489
623.66	9.144
623.99	8.295
624.32	9.682
624.65	8.816
624.99	8.778
625.32	9.210
625.65	9.508
625.98	9.085
626.31	7.796
626.64	9.451
626.97	8.927
627.30	8.276
627.63	8.477
627.96	9.084
628.29	9.416
628.62	8.564
628.95	7.800
629.28	8.071
629.61	9.343
629.94	7.782
630.26	8.644
630.59	8.290
630.92	8.658
631.25	9.213
631.58	8.004
631.91	7.591
632.24	9.510
632.57	8.729
632.90	7.021
633.23	9.490
633.56	9.490
633.89	7.231
634.22	9.563
634.55	9.186
634.88	8.442
635.20	9.473
635.53	7.797
635.86	8.017
636.19	9.968
636.52	9.599
636.85	7.967
637.18	9.356
637.51	8.387
637.83	9.635
638.16	8.410
638.49	8.099
638.82	8.906
639.15	8.018
639.48	10.855
639.81	9.353
640.13	9.187
640.46	7.636
640.79	7.598
641.12	9.814
641.45	7.654
641.77	10.526
642.10	7.218
642.43	9.574
642.76	9.350
643.09	8.493
643.41	8.123
643.74	8.966
644.07	9.241
644.40	7.214
644.73	8.563
645.05	8.517
645.38	9.496
645.71	7.038
646.04	9.326
646.36	7.883
646.69	8.436
647.02	10.245
647.35	9.160
647.67	10.467
648.00	8.121
648.33	6.306
648.66	7.703
648.98	8.844
649.31	8.931
649.64	9.296
649.96	7.294
650.29	6.676
650.62	8.204
650.94	8.408
651.27	6.886
651.60	8.333
651.92	7.143
652.25	8.104
652.58	9.078
652.90	5.233
653.23	8.451
653.56	8.131
653.88	9.972
654.21	8.873
654.54	6.792
654.86	8.924
655.19	7.403
655.52	8.939
655.84	7.887
656.17	9.874
656.49	13.929
656.82	15.636
657.15	12.137
657.47	9.312
657.80	6.760
658.13	5.385
658.45	7.266
658.78	8.869
659.10	8.595
659.43	8.528
659.75	8.107
660.08	8.683
660.41	7.444
660.73	7.298
661.06	5.874
661.38	8.772
661.71	6.552
662.03	8.995
662.36	10.018
662.68	9.568
663.01	8.142
663.33	7.750
663.66	10.623
663.98	7.692
664.31	7.880
664.63	8.671
664.96	8.530
665.28	7.260
665.61	9.615
665.93	7.857
666.26	7.706
666.58	7.011
666.91	9.533
667.23	8.190
667.56	8.481
667.88	7.400
668.21	7.031
668.53	5.598
668.86	8.841
669.18	5.906
669.50	10.139
669.83	7.000
670.15	8.071
670.48	8.532
670.80	8.795
671.13	7.940
671.45	7.480
671.77	7.910
672.10	8.833
672.42	6.634
672.75	7.527
673.07	8.806
673.39	6.934
673.72	9.899
674.04	8.448
674.37	8.587
674.69	9.347
675.01	6.286
675.34	6.107
675.66	7.303
675.98	7.090
676.31	8.984
676.63	7.605
676.95	9.387
677.28	9.879
677.60	4.528
677.92	6.526
678.25	8.958
678.57	9.075
678.89	7.850
679.22	7.840
679.54	8.034
679.86	6.271
680.18	6.965
680.51	9.591
680.83	8.347
681.15	6.897
681.48	7.599
681.80	8.636
682.12	5.769
682.44	8.514
682.77	6.028
683.09	9.280
683.41	8.527
683.73	5.882
684.06	7.380
684.38	8.408
684.70	5.745
685.02	8.778
685.34	6.988
685.67	8.044
685.99	7.669
686.31	6.831
686.63	7.267
686.96	8.991
687.28	8.632
687.60	6.061
687.92	6.913
688.24	7.346
688.56	8.621
688.89	9.074
689.21	8.611
689.53	4.510
689.85	6.312
690.17	6.667
690.49	6.375
690.82	6.337
691.14	4.656
691.46	7.075
691.78	8.103
692.10	8.073
692.42	5.714
692.74	5.263
693.06	6.852
693.39	6.262
693.71	6.579
694.03	7.063
694.35	5.714
694.67	4.928
694.99	5.957
695.31	8.168
695.63	6.926
695.95	7.660
696.27	5.934
696.59	8.186
696.91	8.784
697.23	10.330
697.56	6.517
697.88	6.629
698.20	6.026
698.52	9.470
698.84	6.029
699.16	8.367
699.48	10.042
699.80	7.660
700.12	8.079
700.44	4.608
700.76	6.888
701.08	9.201
701.40	7.254
701.72	8.955
702.04	8.021
702.36	3.927
702.68	5.379
703.00	7.579
703.32	5.665
703.64	7.824
703.96	6.683
704.28	5.897
704.60	8.354
704.91	7.908
705.23	8.219
705.55	5.571
705.87	6.061
706.19	7.362
706.51	1.506
706.83	6.340
707.15	4.233
707.47	5.607
707.79	6.550
708.11	5.932
708.43	5.591
708.74	5.134
709.06	6.032
709.38	9.155
709.70	10.174
710.02	5.685
710.34	6.649
710.66	5.307
710.98	7.650
711.29	4.670
711.61	5.085
711.93	3.989
712.25	8.649
712.57	9.440
712.89	8.235
713.20	3.254
713.52	6.358
713.84	6.685
714.16	9.737
714.48	7.990
714.80	7.532
715.11	4.724
715.43	7.162
715.75	10.263
716.07	6.906
716.39	8.197
716.70	4.518
717.02	7.541
717.34	3.484
717.66	2.685
717.97	5.822
718.29	5.155
718.61	3.947
718.93	5.825
719.24	5.901
719.56	4.601
719.88	5.105
720.20	3.871
720.51	6.211
720.83	5.313
721.15	3.618
721.46	2.397
721.78	3.333
722.10	5.502
722.42	3.691
722.73	5.806
723.05	6.316
723.37	9.375
723.68	9.319
724.00	6.137
724.32	4.225
724.63	6.643
724.95	8.156
725.27	6.969
725.58	2.827
725.90	7.241
726.22	5.016
726.53	6.494
726.85	8.491
727.16	5.438
727.48	9.480
727.80	6.623
728.11	3.887
728.43	8.754
728.74	6.355
729.06	3.311
729.38	6.169
729.69	4.362
730.01	6.548
730.32	3.636
730.64	9.119
730.96	4.037
731.27	10.056
731.59	6.868
731.90	4.416
732.22	6.771
732.53	4.972
732.85	5.714
733.16	7.331
733.48	5.793
733.80	6.685
734.11	7.692
734.43	6.757
734.74	7.848
735.06	6.030
735.37	8.378
735.69	8.649
736.00	7.345
736.32	6.199
736.63	5.833
736.95	7.471
737.26	6.364
737.58	6.061
737.89	7.059
738.21	6.116
738.52	6.230
738.83	8.191
739.15	7.092
739.46	8.844
739.78	6.748
740.09	2.579
740.41	6.706
740.72	3.000
741.04	7.767
741.35	9.825
741.66	9.020
741.98	2.459
742.29	7.950
742.61	3.070
742.92	5.385
743.23	8.303
743.55	5.814
743.86	7.200
744.18	1.240
744.49	3.376
744.80	4.938
745.12	4.641
745.43	5.285
745.74	3.879
746.06	3.814
746.37	6.751
746.68	7.317
747.00	4.167
747.31	5.150
747.62	8.846
747.94	6.883
748.25	1.606
748.56	6.939
748.88	3.419
749.19	6.466
749.50	0.000
749.82	7.229
750.13	6.406
750.44	4.000
750.75	4.923
751.07	7.385
751.38	7.886
751.69	6.070
752.01	6.472
752.32	7.843
752.63	4.422
752.94	4.844
753.26	0.000
753.57	2.222
753.88	5.243
754.19	6.431
754.51	4.823
754.82	5.788
755.13	7.869
755.44	7.850
755.75	6.908
756.07	8.657
756.38	6.289
756.69	10.843
757.00	4.432
757.31	7.104
757.63	3.069
757.94	5.399
758.25	6.772
758.56	5.011
758.87	8.409
759.18	3.733
759.50	8.215
759.81	8.123
760.12	3.774
760.43	4.948
760.74	6.158
761.05	4.750
761.36	3.133
761.67	6.853
761.99	6.216
762.30	3.659
762.61	7.261
762.92	4.478
763.23	6.367
763.54	3.597
763.85	8.247
764.16	5.387
764.47	3.873
764.78	6.709
765.10	8.211
765.41	7.179
765.72	4.762
766.03	7.345
766.34	3.135
766.65	5.575
766.96	4.382
767.27	5.991
767.58	0.995
767.89	7.692
768.20	2.347
768.51	6.019
768.82	7.631
769.13	6.439
769.44	0.385
769.75	5.776
770.06	4.615
770.37	8.268
770.68	0.851
770.99	5.668
771.30	9.259
771.61	6.084
771.92	5.185
772.23	8.097
772.54	3.704
772.85	9.217
773.16	9.524
773.47	1.587
773.78	2.703
774.09	3.409
774.39	8.500
774.70	3.825
775.01	4.268
775.32	-2.353
775.63	4.294
775.94	0.637
776.25	7.097
776.56	15.385
776.87	10.884
777.18	-2.759
777.48	1.399
777.79	1.351
778.10	2.206
778.41	-0.694
778.72	5.517
779.03	9.877
779.34	11.515
779.65	2.591
779.95	7.778
780.26	0.000
780.57	1.290
780.88	5.072
781.19	8.387
781.50	10.000
781.80	9.140
782.11	6.878
782.42	2.020
782.73	2.395
783.04	10.056
783.34	-0.606
783.65	-3.268
783.96	9.938
784.27	7.738
784.57	3.974
784.88	1.429
785.19	5.512
785.50	7.087
785.81	3.008
786.11	5.385
786.42	1.439
786.73	4.317
787.04	12.782
787.34	-1.639
787.65	-0.800
787.96	6.716
788.26	8.392
788.57	12.587
788.88	1.974
789.19	9.150
789.49	4.110
789.80	7.801
790.11	3.937
790.41	9.375
790.72	2.542
791.03	-0.971
791.33	6.087
791.64	0.000
791.95	0.893
792.25	7.619
792.56	0.893
792.87	-2.083
793.17	13.393
793.48	-1.042
793.79	-4.819
794.09	1.835
794.40	-3.670
794.70	12.245
795.01	-0.649
795.32	3.425
795.62	4.930
795.93	4.545
796.23	0.820
796.54	2.679
796.85	3.191
797.15	-1.087
797.46	-12.329
797.76	0.000
798.07	-2.174
798.37	-8.247
798.68	-7.792
798.99	4.598
799.29	-5.618
799.60	10.638
799.90	7.229
800.21	-12.308
800.51	-10.448
800.82	-11.765
801.12	-13.699
801.43	-11.765
801.73	-10.169
802.04	9.091
802.34	-13.333
802.65	3.390
802.95	1.493
803.26	-6.780
803.56	-4.110
803.87	-1.429
804.17	5.479
804.48	-5.263
804.78	-2.778
805.09	-25.862
805.39	9.459
805.70	-1.408
806.00	8.537
806.30	2.410
806.61	-6.849
806.91	0.962
807.22	6.667
807.52	-11.494
807.83	1.389
808.13	-1.205
808.43	4.494
808.74	-1.250
809.04	-25.000
809.35	0.000
809.65	4.286
809.95	-2.740
810.26	-17.544
810.56	-13.793
810.86	0.000
811.17	-5.263
811.47	-9.836
811.77	-24.444
812.08	-6.780
812.38	1.667
812.69	20.690
812.99	-7.547
813.29	-30.769
813.59	18.000
813.90	15.789
814.20	9.091
814.50	14.085
814.81	-3.846
815.11	-3.279
815.41	-7.463
815.72	6.897
816.02	-8.929
816.32	-11.111
816.62	-11.364
816.93	-8.889
817.23	12.963
817.53	0.000
817.84	28.571
818.14	11.765
818.44	-16.327
818.74	8.889
819.04	10.256
819.35	-20.000
819.65	-53.846
819.95	-3.774
820.25	-2.222
820.56	-9.524
820.86	0.000
821.16	-7.692
821.46	-20.930
821.76	-20.000
822.07	3.571
822.37	-15.217
822.67	8.511
822.97	-43.243
823.27	2.500
823.57	6.122
823.88	0.000
824.18	10.000
824.48	-16.667
824.78	-52.000
825.08	6.061
825.38	20.000
825.69	6.383
825.99	25.000
826.29	-48.571
826.59	-17.949
826.89	-6.977
827.19	-4.000
827.49	0.000
827.79	-2.083
828.09	-32.432
828.39	-23.333
828.70	-2.439
829.00	-13.953
829.30	-32.143
829.60	5.882
829.90	6.522
830.20	-34.286
830.50	-31.034
830.80	-38.889
831.10	-7.692
831.40	-14.706
831.70	-4.762
832.00	16.129
832.30	-70.588
832.60	-41.667
832.90	-161.538
833.20	-89.474
833.50	-15.000
833.80	-68.421
834.10	-90.476
834.40	-2.778
834.70	-12.500
835.00	-25.714
835.30	-5.882
835.60	10.000
835.90	-44.000
836.20	-40.909
836.50	12.000
836.80	-33.333
837.10	-29.630
837.40	-55.556
837.70	-112.500
838.00	-17.857
838.30	-60.870
838.60	-3.448
838.90	-14.286
839.19	-52.174
839.49	-83.333
839.79	-8.696
840.09	-75.000
840.39	-45.000
840.69	32.258
840.99	-32.143
841.29	-6.667
841.59	-31.579
841.88	17.949
842.18	-19.231
842.48	-100.000
842.78	-30.000
843.08	6.667
843.38	22.581
843.68	-22.222
843.97	20.588
844.27	-25.000
844.57	-15.789
844.87	-60.000
845.17	-20.000
845.47	38.095
845.76	-14.286
846.06	-77.778
846.36	11.765
846.66	-15.385
846.96	-46.667
847.25	-35.294
847.55	-13.043
847.85	-10.000
848.15	-5.882
848.44	-118.182
848.74	38.095
849.04	-4.167
849.34	-18.750
849.63	-69.565
849.93	900.000
850.23	6.667
850.53	26.923
850.82	27.273
851.12	-31.818
851.42	-81.818
851.71	69.231
852.01	-35.000
852.31	-46.154
852.61	0.000
852.90	16.667
853.20	-27.778
853.50	-144.444
853.79	-57.143
854.09	-54.545
854.39	-166.667
854.68	-22.581
854.98	-46.154
855.28	-11.111
855.57	-64.286
855.87	12.000
856.17	0.000
856.46	-33.333
856.76	-5.556
857.05	-30.435
857.35	-37.500
857.65	-107.692
857.94	-28.571
858.24	25.926
858.53	-13.043
858.83	-23.529
859.13	-70.588
859.42	0.000
859.72	-71.429
860.01	-25.000
860.31	-77.778
860.60	-40.000
860.90	26.667
861.20	11.111
861.49	-7.692
861.79	23.333
862.08	-23.077
862.38	3.125
862.67	17.647
862.97	-18.750
863.26	-44.444
863.56	0.000
863.85	-118.182
864.15	-16.667
864.44	-266.667
864.74	-28.571
865.03	12.500
865.33	-160.000
865.62	-25.806
865.92	45.455
866.21	-30.435
866.51	-28.571
866.80	0.000
867.10	-50.000
867.39	-75.000
867.69	2300.000
867.98	-85.714
868.27	-52.941
868.57	-2400.000
868.86	-90.000
869.16	-19.048
869.45	-12.500
869.75	18.182
870.04	-185.714
870.33	-41.667
870.63	-128.571
870.92	-200.000
871.22	-200.000
871.51	-109.091
871.80	-366.667
872.10	-200.000
>>>>>End Processed Spectral Data<<<<<
