SpectraSuite Data File
++++++++++++++++++++++++++++++++++++
Date: Thu May 14 16:23:43 PDT 2015
User: schluterlab
Dark Spectrum Present: Yes
Reference Spectrum Present: Yes
Number of Sampled Component Spectra: 1
Spectrometers: USB2E3373
Integration Time (usec): 3000 (USB2E3373)
Spectra Averaged: 3 (USB2E3373)
Boxcar Smoothing: 0 (USB2E3373)
Correct for Electrical Dark: No (USB2E3373)
Strobe/Lamp Enabled: No (USB2E3373)
Correct for Detector Non-linearity: No (USB2E3373)
Correct for Stray Light: No (USB2E3373)
Number of Pixels in Processed Spectrum: 2048
>>>>>Begin Processed Spectral Data<<<<<
178.53	0.000
178.91	171.429
179.29	-1300.000
179.67	-600.000
180.04	121.429
180.42	70.000
180.80	240.000
181.18	-500.000
181.56	800.000
181.94	25.000
182.31	100.000
182.69	200.000
183.07	-200.000
183.45	400.000
183.83	-66.667
184.20	-33.333
184.58	300.000
184.96	-225.000
185.34	-77.778
185.72	-40.000
186.09	44.444
186.47	600.000
186.85	320.000
187.23	-77.778
187.61	-600.000
187.98	220.000
188.36	200.000
188.74	-225.000
189.12	66.667
189.49	31.250
189.87	-62.500
190.25	22.222
190.63	-40.000
191.00	-77.778
191.38	0.000
191.76	-200.000
192.14	-150.000
192.51	400.000
192.89	16.667
193.27	0.000
193.65	-157.143
194.02	-1300.000
194.40	-85.714
194.78	28.571
195.15	0.000
195.53	81.818
195.91	0.000
196.29	-25.000
196.66	-30.769
197.04	-1100.000
197.42	-157.143
197.79	-550.000
198.17	-87.500
198.55	-157.143
198.92	-22.222
199.30	-112.500
199.68	-54.545
200.05	42.857
200.43	-200.000
200.81	185.714
201.18	0.000
201.56	177.778
201.94	0.000
202.31	166.667
202.69	-44.444
203.07	-200.000
203.44	-122.222
203.82	-400.000
204.19	-16.667
204.57	16.667
204.95	-112.500
205.32	-900.000
205.70	75.000
206.08	66.667
206.45	-66.667
206.83	280.000
207.20	0.000
207.58	-100.000
207.96	-233.333
208.33	50.000
208.71	125.000
209.08	100.000
209.46	0.000
209.84	216.667
210.21	700.000
210.59	700.000
210.96	233.333
211.34	50.000
211.71	37.500
212.09	-300.000
212.46	0.000
212.84	950.000
213.22	-120.000
213.59	-175.000
213.97	80.000
214.34	0.000
214.72	183.333
215.09	-50.000
215.47	0.000
215.84	-0.000
216.22	450.000
216.59	-100.000
216.97	-200.000
217.34	-150.000
217.72	-37.500
218.09	-350.000
218.47	-350.000
218.84	0.000
219.22	40.000
219.59	-5.882
219.97	5.000
220.34	700.000
220.72	-122.222
221.09	-69.231
221.47	-200.000
221.84	20.000
222.22	-100.000
222.59	0.000
222.97	12.500
223.34	-360.000
223.72	-1200.000
224.09	-200.000
224.46	-100.000
224.84	-100.000
225.21	-157.143
225.59	-325.000
225.96	-450.000
226.34	19.231
226.71	300.000
227.08	-300.000
227.46	-20.000
227.83	-275.000
228.21	-5.263
228.58	50.000
228.95	400.000
229.33	41.667
229.70	0.000
230.08	5.263
230.45	140.000
230.82	0.000
231.20	7.143
231.57	-41.667
231.95	-63.636
232.32	-36.364
232.69	25.000
233.07	0.000
233.44	-11.765
233.81	-60.000
234.19	11.111
234.56	22.727
234.93	-10.345
235.31	5.263
235.68	5.556
236.05	-65.000
236.43	7.692
236.80	-24.000
237.17	11.111
237.55	-9.091
237.92	-40.000
238.29	-9.677
238.67	11.364
239.04	-8.333
239.41	-4.762
239.79	6.522
240.16	-9.259
240.53	-23.913
240.91	-39.216
241.28	-13.115
241.65	-5.970
242.02	9.459
242.40	-12.308
242.77	0.000
243.14	-4.878
243.51	-14.474
243.89	-17.949
244.26	12.871
244.63	4.902
245.00	0.935
245.38	-2.632
245.75	-15.929
246.12	4.762
246.49	-5.426
246.87	4.286
247.24	6.623
247.61	-1.316
247.98	-4.698
248.36	-3.086
248.73	-8.589
249.10	0.546
249.47	4.478
249.84	1.571
250.22	-5.181
250.59	-3.333
250.96	-1.364
251.33	-8.163
251.70	0.855
252.08	0.417
252.45	-2.869
252.82	-2.066
253.19	-1.953
253.56	-2.281
253.94	-2.308
254.31	-1.136
254.68	2.448
255.05	2.280
255.42	0.340
255.79	-2.589
256.16	-1.656
256.54	-3.642
256.91	0.984
257.28	-1.311
257.65	-3.822
258.02	-4.720
258.39	0.285
258.76	5.199
259.14	0.575
259.51	-2.305
259.88	-0.567
260.25	0.833
260.62	0.548
260.99	1.366
261.36	0.536
261.73	-1.326
262.10	-3.846
262.47	-2.145
262.85	0.000
263.22	0.000
263.59	-2.368
263.96	0.512
264.33	-1.023
264.70	-1.235
265.07	0.716
265.44	2.494
265.81	-1.852
266.18	-0.227
266.55	1.562
266.92	-4.100
267.29	-0.875
267.66	-2.439
268.03	1.965
268.40	-1.461
268.77	-2.050
269.14	-3.304
269.51	-2.412
269.88	2.049
270.25	0.402
270.62	-0.422
270.99	0.808
271.36	-0.198
271.73	0.786
272.10	1.603
272.47	0.200
272.84	-1.205
273.21	-1.403
273.58	-0.605
273.95	-0.577
274.32	-3.042
274.69	-0.967
275.06	-1.648
275.43	-2.033
275.80	-1.058
276.17	-1.296
276.54	-1.306
276.91	-1.968
277.28	1.085
277.65	0.180
278.02	0.368
278.39	-1.993
278.76	-1.230
279.13	-0.709
279.50	0.687
279.87	0.358
280.23	-3.697
280.60	-0.339
280.97	-0.329
281.34	-1.358
281.71	2.200
282.08	-0.332
282.45	-0.655
282.82	0.628
283.19	0.000
283.56	-1.475
283.92	0.901
284.29	1.738
284.66	-0.493
285.03	-1.442
285.40	0.155
285.77	-0.774
286.14	0.763
286.51	0.152
286.87	-0.948
287.24	0.000
287.61	-0.598
287.98	-1.208
288.35	-1.183
288.72	-0.444
289.08	2.050
289.45	-0.592
289.82	-0.753
290.19	-0.575
290.56	-0.282
290.93	-0.285
291.29	-0.964
291.66	-0.275
292.03	0.271
292.40	2.721
292.77	-0.943
293.13	0.135
293.50	-0.131
293.87	-0.671
294.24	-0.400
294.60	0.632
294.97	-1.342
295.34	0.000
295.71	0.126
296.08	-0.258
296.44	-1.716
296.81	-1.462
297.18	-0.623
297.55	-0.472
297.91	0.593
298.28	-1.777
298.65	0.357
299.02	0.708
299.38	0.229
299.75	0.935
300.12	-0.694
300.48	-0.346
300.85	0.112
301.22	-0.447
301.59	0.342
301.95	0.000
302.32	1.000
302.69	0.000
303.05	-0.326
303.42	0.111
303.79	0.208
304.15	1.157
304.52	-0.423
304.89	0.419
305.25	0.311
305.62	0.940
305.99	1.340
306.35	1.008
306.72	0.827
307.09	-0.711
307.45	0.518
307.82	0.000
308.19	0.404
308.55	1.157
308.92	0.779
309.29	0.192
309.65	1.072
310.02	-0.594
310.38	0.000
310.75	0.971
311.12	0.767
311.48	-0.293
311.85	0.190
312.22	0.569
312.58	0.657
312.95	0.669
313.31	0.903
313.68	1.007
314.05	2.349
314.41	1.639
314.78	0.363
315.14	1.906
315.51	1.385
315.87	1.800
316.24	1.735
316.61	1.510
316.97	1.629
317.34	0.705
317.70	2.445
318.07	2.205
318.43	2.126
318.80	3.595
319.16	3.090
319.53	2.057
319.89	3.769
320.26	4.448
320.62	3.014
320.99	4.247
321.35	3.789
321.72	5.953
322.08	3.787
322.45	4.426
322.81	5.144
323.18	4.159
323.54	5.862
323.91	6.673
324.27	6.282
324.64	7.137
325.00	6.468
325.37	7.453
325.73	7.355
326.10	8.516
326.46	8.876
326.83	10.328
327.19	9.370
327.56	9.723
327.92	9.756
328.29	9.597
328.65	9.715
329.01	9.306
329.38	11.120
329.74	11.387
330.11	11.216
330.47	11.626
330.84	11.714
331.20	12.750
331.56	11.352
331.93	12.720
332.29	11.271
332.66	12.708
333.02	12.395
333.38	11.577
333.75	12.205
334.11	13.094
334.48	13.201
334.84	12.574
335.20	12.846
335.57	13.322
335.93	13.388
336.29	12.396
336.66	12.868
337.02	12.876
337.38	13.520
337.75	13.306
338.11	13.625
338.47	13.978
338.84	13.706
339.20	12.890
339.56	12.521
339.93	12.972
340.29	12.882
340.65	12.814
341.02	14.366
341.38	14.470
341.74	13.075
342.11	14.159
342.47	13.423
342.83	13.285
343.20	14.881
343.56	13.713
343.92	13.771
344.28	13.906
344.65	14.419
345.01	14.119
345.37	13.919
345.73	13.094
346.10	13.339
346.46	13.766
346.82	14.307
347.19	13.598
347.55	14.264
347.91	13.893
348.27	13.505
348.63	13.557
349.00	13.796
349.36	13.383
349.72	13.542
350.08	13.819
350.45	13.004
350.81	14.480
351.17	13.459
351.53	14.556
351.89	14.427
352.26	13.209
352.62	13.881
352.98	14.656
353.34	13.294
353.70	13.559
354.07	14.829
354.43	13.516
354.79	13.613
355.15	13.613
355.51	14.693
355.87	14.660
356.24	14.525
356.60	13.156
356.96	13.714
357.32	14.498
357.68	14.129
358.04	13.398
358.40	13.881
358.77	13.743
359.13	14.254
359.49	13.234
359.85	13.923
360.21	14.419
360.57	13.568
360.93	13.752
361.29	14.807
361.66	14.410
362.02	15.240
362.38	14.055
362.74	12.849
363.10	14.099
363.46	14.681
363.82	13.352
364.18	14.778
364.54	14.177
364.90	15.117
365.26	13.448
365.62	15.467
365.98	14.023
366.35	14.228
366.71	14.626
367.07	14.276
367.43	14.576
367.79	15.063
368.15	15.050
368.51	14.073
368.87	14.892
369.23	14.533
369.59	15.164
369.95	14.266
370.31	15.463
370.67	15.337
371.03	14.820
371.39	13.902
371.75	14.718
372.11	15.379
372.47	14.895
372.83	15.510
373.19	14.610
373.55	16.057
373.91	14.792
374.27	15.265
374.63	15.697
374.99	14.324
375.35	14.870
375.71	14.387
376.07	14.396
376.42	15.554
376.78	15.165
377.14	15.533
377.50	14.674
377.86	15.086
378.22	15.329
378.58	15.517
378.94	15.552
379.30	14.470
379.66	15.403
380.02	15.349
380.38	16.417
380.74	15.155
381.09	14.925
381.45	15.682
381.81	15.984
382.17	15.855
382.53	15.088
382.89	15.801
383.25	15.709
383.61	14.583
383.97	15.665
384.32	15.730
384.68	14.907
385.04	16.021
385.40	16.441
385.76	15.299
386.12	15.619
386.48	15.941
386.83	16.210
387.19	15.295
387.55	15.141
387.91	15.354
388.27	15.358
388.62	15.349
388.98	16.244
389.34	16.323
389.70	16.095
390.06	15.690
390.42	16.386
390.77	16.436
391.13	15.258
391.49	16.667
391.85	15.818
392.20	16.251
392.56	16.598
392.92	16.085
393.28	16.142
393.64	15.363
393.99	16.909
394.35	15.596
394.71	16.108
395.07	15.090
395.42	15.877
395.78	17.002
396.14	16.340
396.50	15.736
396.85	15.325
397.21	15.976
397.57	15.783
397.92	14.891
398.28	15.100
398.64	15.160
399.00	15.288
399.35	15.864
399.71	15.435
400.07	16.227
400.42	15.367
400.78	15.162
401.14	15.822
401.49	15.918
401.85	15.756
402.21	16.454
402.57	15.904
402.92	15.839
403.28	15.749
403.63	15.036
403.99	15.499
404.35	15.748
404.70	15.694
405.06	15.326
405.42	15.574
405.77	15.812
406.13	15.883
406.49	15.991
406.84	15.734
407.20	15.148
407.55	15.021
407.91	15.022
408.27	15.253
408.62	15.300
408.98	15.612
409.34	15.015
409.69	14.648
410.05	15.358
410.40	16.067
410.76	16.040
411.11	15.254
411.47	16.032
411.83	15.403
412.18	15.843
412.54	14.760
412.89	15.483
413.25	15.237
413.60	14.934
413.96	15.385
414.31	14.504
414.67	14.788
415.03	15.877
415.38	15.195
415.74	15.150
416.09	15.484
416.45	15.216
416.80	15.116
417.16	15.517
417.51	15.691
417.87	15.389
418.22	14.611
418.58	14.312
418.93	14.843
419.29	15.043
419.64	15.606
420.00	15.490
420.35	15.272
420.71	14.991
421.06	13.859
421.42	14.851
421.77	14.755
422.12	15.169
422.48	14.593
422.83	15.389
423.19	15.279
423.54	14.989
423.90	14.909
424.25	15.040
424.61	13.835
424.96	14.937
425.31	15.287
425.67	14.922
426.02	14.665
426.38	14.811
426.73	14.007
427.09	16.148
427.44	14.910
427.79	13.322
428.15	13.927
428.50	14.831
428.85	14.581
429.21	15.106
429.56	14.709
429.92	14.595
430.27	14.940
430.62	14.460
430.98	13.970
431.33	14.663
431.68	14.272
432.04	14.271
432.39	14.462
432.74	14.441
433.10	15.414
433.45	14.660
433.80	14.270
434.16	15.393
434.51	15.057
434.86	15.147
435.22	14.984
435.57	15.625
435.92	14.969
436.28	14.903
436.63	14.528
436.98	13.795
437.34	14.487
437.69	14.254
438.04	13.802
438.39	14.474
438.75	13.558
439.10	14.905
439.45	14.142
439.81	13.842
440.16	14.424
440.51	13.768
440.86	13.785
441.22	14.202
441.57	13.836
441.92	14.549
442.27	14.444
442.63	14.108
442.98	14.995
443.33	14.361
443.68	14.470
444.03	14.817
444.39	14.748
444.74	15.212
445.09	14.192
445.44	14.331
445.79	14.703
446.15	14.132
446.50	14.470
446.85	14.348
447.20	14.072
447.55	13.494
447.91	14.241
448.26	15.063
448.61	14.772
448.96	15.773
449.31	14.687
449.66	14.434
450.02	14.399
450.37	14.971
450.72	14.747
451.07	14.123
451.42	14.500
451.77	14.286
452.12	13.770
452.47	14.557
452.83	15.034
453.18	14.186
453.53	14.015
453.88	14.191
454.23	14.915
454.58	13.987
454.93	13.167
455.28	14.449
455.63	13.872
455.98	14.413
456.34	13.899
456.69	13.815
457.04	14.007
457.39	13.969
457.74	14.765
458.09	13.454
458.44	14.601
458.79	13.976
459.14	13.791
459.49	14.205
459.84	13.851
460.19	13.437
460.54	14.367
460.89	14.240
461.24	13.046
461.59	14.278
461.94	12.835
462.29	13.942
462.64	14.001
462.99	14.250
463.34	14.731
463.69	13.834
464.04	14.286
464.39	13.285
464.74	13.854
465.09	12.860
465.44	14.378
465.79	14.384
466.14	13.653
466.49	13.789
466.84	13.664
467.19	12.890
467.54	13.043
467.89	12.759
468.24	13.186
468.59	13.318
468.94	13.287
469.29	13.317
469.64	12.651
469.99	12.938
470.34	13.428
470.68	13.055
471.03	13.621
471.38	13.538
471.73	12.744
472.08	13.198
472.43	12.282
472.78	12.720
473.13	13.527
473.48	13.172
473.83	12.652
474.17	13.247
474.52	12.928
474.87	12.791
475.22	12.620
475.57	12.461
475.92	13.191
476.27	12.886
476.61	12.357
476.96	12.357
477.31	13.119
477.66	12.802
478.01	12.862
478.36	13.161
478.70	12.069
479.05	12.781
479.40	12.488
479.75	13.305
480.10	12.269
480.45	11.759
480.79	12.562
481.14	12.454
481.49	12.313
481.84	12.750
482.19	12.688
482.53	13.161
482.88	13.159
483.23	12.717
483.58	12.358
483.92	11.569
484.27	12.320
484.62	11.881
484.97	11.936
485.31	12.108
485.66	11.801
486.01	11.450
486.36	11.725
486.70	12.476
487.05	12.441
487.40	12.004
487.75	11.934
488.09	12.172
488.44	12.546
488.79	12.243
489.13	11.984
489.48	11.767
489.83	11.429
490.17	11.138
490.52	11.987
490.87	11.210
491.22	11.698
491.56	11.689
491.91	12.080
492.26	11.294
492.60	11.850
492.95	11.321
493.30	11.071
493.64	11.870
493.99	11.447
494.34	11.760
494.68	11.478
495.03	11.938
495.37	11.629
495.72	11.565
496.07	11.394
496.41	10.940
496.76	11.468
497.11	10.870
497.45	11.049
497.80	11.550
498.14	11.111
498.49	10.846
498.84	11.106
499.18	11.381
499.53	11.076
499.87	11.297
500.22	10.641
500.56	11.336
500.91	11.350
501.26	11.409
501.60	11.003
501.95	11.159
502.29	10.926
502.64	10.407
502.98	10.613
503.33	10.454
503.67	10.510
504.02	10.201
504.36	11.483
504.71	10.381
505.06	10.596
505.40	10.786
505.75	10.929
506.09	10.820
506.44	10.864
506.78	11.009
507.13	10.650
507.47	10.943
507.82	10.417
508.16	10.851
508.51	9.798
508.85	10.864
509.19	10.801
509.54	10.375
509.88	10.685
510.23	10.442
510.57	11.503
510.92	10.837
511.26	9.668
511.61	9.705
511.95	10.639
512.30	10.783
512.64	10.295
512.98	10.405
513.33	9.728
513.67	10.352
514.02	10.629
514.36	9.514
514.70	9.531
515.05	10.688
515.39	10.236
515.74	11.029
516.08	9.931
516.42	10.884
516.77	10.252
517.11	9.696
517.46	10.551
517.80	9.995
518.14	10.446
518.49	9.707
518.83	10.644
519.17	9.908
519.52	10.430
519.86	10.137
520.20	9.265
520.55	9.858
520.89	10.023
521.23	9.994
521.58	9.661
521.92	10.312
522.26	9.336
522.61	9.954
522.95	9.400
523.29	9.828
523.64	10.594
523.98	9.812
524.32	9.799
524.66	9.562
525.01	9.287
525.35	9.133
525.69	9.513
526.04	9.242
526.38	9.598
526.72	9.573
527.06	9.443
527.41	9.563
527.75	9.561
528.09	9.386
528.43	9.651
528.78	9.249
529.12	9.518
529.46	8.994
529.80	9.153
530.15	9.449
530.49	9.727
530.83	8.914
531.17	8.542
531.51	9.446
531.86	9.736
532.20	9.390
532.54	8.259
532.88	8.606
533.22	8.957
533.57	8.598
533.91	9.877
534.25	8.875
534.59	8.563
534.93	9.791
535.27	8.676
535.62	9.665
535.96	9.181
536.30	8.578
536.64	9.249
536.98	9.471
537.32	9.753
537.66	9.357
538.01	8.701
538.35	8.465
538.69	8.353
539.03	8.829
539.37	8.716
539.71	8.589
540.05	8.573
540.39	8.313
540.73	8.743
541.07	9.135
541.42	9.155
541.76	8.244
542.10	9.047
542.44	7.734
542.78	8.455
543.12	8.343
543.46	8.547
543.80	8.094
544.14	8.139
544.48	9.456
544.82	8.199
545.16	8.945
545.50	8.808
545.84	7.777
546.18	9.506
546.52	8.408
546.86	8.616
547.20	8.079
547.54	7.553
547.88	8.439
548.22	7.661
548.56	8.484
548.90	8.179
549.24	8.146
549.58	8.139
549.92	8.227
550.26	8.091
550.60	8.743
550.94	8.668
551.28	8.383
551.62	8.693
551.96	8.673
552.30	9.560
552.64	7.903
552.98	8.235
553.32	8.103
553.66	7.910
554.00	8.449
554.34	7.786
554.68	7.682
555.02	7.884
555.36	9.402
555.69	7.175
556.03	8.260
556.37	7.572
556.71	8.307
557.05	8.371
557.39	7.233
557.73	7.992
558.07	7.947
558.41	7.907
558.75	7.099
559.08	8.212
559.42	7.339
559.76	8.616
560.10	7.971
560.44	7.256
560.78	8.125
561.12	8.374
561.45	7.421
561.79	7.326
562.13	7.948
562.47	7.583
562.81	8.038
563.15	8.333
563.48	7.707
563.82	8.343
564.16	7.571
564.50	7.747
564.84	7.552
565.17	7.765
565.51	7.768
565.85	7.601
566.19	7.373
566.52	7.724
566.86	7.980
567.20	6.960
567.54	7.382
567.88	7.238
568.21	7.213
568.55	7.146
568.89	7.581
569.23	7.224
569.56	7.933
569.90	7.377
570.24	7.184
570.57	7.216
570.91	6.767
571.25	7.637
571.59	7.459
571.92	6.983
572.26	7.147
572.60	6.989
572.93	7.264
573.27	7.109
573.61	7.226
573.95	6.895
574.28	7.358
574.62	7.253
574.96	6.948
575.29	7.006
575.63	7.069
575.97	7.018
576.30	6.884
576.64	6.872
576.98	6.970
577.31	6.877
577.65	6.995
577.98	6.834
578.32	6.821
578.66	6.954
578.99	6.779
579.33	6.625
579.67	6.868
580.00	6.743
580.34	7.199
580.67	6.664
581.01	6.902
581.35	6.546
581.68	6.744
582.02	6.954
582.35	6.823
582.69	6.757
583.02	6.746
583.36	6.942
583.70	6.998
584.03	6.863
584.37	6.788
584.70	6.699
585.04	7.022
585.37	6.783
585.71	6.818
586.04	6.737
586.38	6.639
586.72	6.543
587.05	6.395
587.39	7.056
587.72	6.627
588.06	7.012
588.39	7.045
588.73	6.561
589.06	6.772
589.40	6.577
589.73	6.684
590.07	6.565
590.40	6.795
590.73	6.999
591.07	7.260
591.40	6.221
591.74	6.598
592.07	7.471
592.41	6.191
592.74	7.206
593.08	7.134
593.41	6.853
593.75	6.839
594.08	6.937
594.41	6.859
594.75	6.443
595.08	6.124
595.42	6.721
595.75	6.781
596.09	6.913
596.42	6.915
596.75	6.793
597.09	7.192
597.42	6.198
597.75	7.213
598.09	6.905
598.42	6.836
598.76	6.649
599.09	6.835
599.42	6.604
599.76	6.438
600.09	6.740
600.42	6.807
600.76	6.572
601.09	6.439
601.42	6.385
601.76	6.448
602.09	6.826
602.42	5.998
602.76	7.011
603.09	6.571
603.42	6.539
603.76	6.307
604.09	6.317
604.42	6.202
604.76	6.088
605.09	6.582
605.42	6.858
605.75	6.692
606.09	6.084
606.42	6.348
606.75	6.934
607.09	6.183
607.42	6.782
607.75	6.448
608.08	6.275
608.42	6.852
608.75	6.841
609.08	6.027
609.41	6.528
609.75	6.027
610.08	6.772
610.41	6.542
610.74	6.471
611.07	6.128
611.41	6.547
611.74	6.328
612.07	6.826
612.40	5.989
612.73	6.699
613.07	6.650
613.40	7.026
613.73	6.355
614.06	6.232
614.39	6.268
614.72	6.550
615.06	5.534
615.39	6.428
615.72	6.540
616.05	6.459
616.38	6.609
616.71	6.583
617.05	6.070
617.38	5.939
617.71	7.181
618.04	6.368
618.37	6.940
618.70	6.844
619.03	6.272
619.36	6.535
619.69	6.726
620.03	6.842
620.36	6.810
620.69	6.169
621.02	6.824
621.35	6.821
621.68	7.375
622.01	5.765
622.34	5.649
622.67	6.392
623.00	5.601
623.33	6.901
623.66	7.328
623.99	5.530
624.32	7.407
624.65	5.663
624.99	5.982
625.32	5.944
625.65	6.339
625.98	6.305
626.31	6.945
626.64	6.520
626.97	6.077
627.30	5.239
627.63	6.377
627.96	6.456
628.29	6.770
628.62	5.626
628.95	6.223
629.28	5.183
629.61	5.976
629.94	6.360
630.26	6.441
630.59	6.218
630.92	5.714
631.25	6.619
631.58	6.780
631.91	6.279
632.24	5.956
632.57	6.167
632.90	6.520
633.23	6.122
633.56	7.245
633.89	4.959
634.22	6.861
634.55	6.367
634.88	6.385
635.20	6.136
635.53	6.667
635.86	5.959
636.19	8.696
636.52	6.857
636.85	5.822
637.18	6.445
637.51	7.097
637.83	7.863
638.16	6.452
638.49	5.047
638.82	6.313
639.15	5.842
639.48	7.159
639.81	6.467
640.13	6.478
640.46	3.758
640.79	5.515
641.12	7.081
641.45	6.023
641.77	7.060
642.10	6.430
642.43	8.245
642.76	5.827
643.09	6.712
643.41	5.602
643.74	7.586
644.07	8.000
644.40	5.375
644.73	5.951
645.05	5.286
645.38	5.899
645.71	6.891
646.04	7.174
646.36	6.423
646.69	7.055
647.02	7.339
647.35	6.870
647.67	7.246
648.00	4.936
648.33	5.856
648.66	6.134
648.98	5.986
649.31	6.901
649.64	7.437
649.96	6.101
650.29	5.563
650.62	6.648
650.94	5.405
651.27	4.940
651.60	5.556
651.92	5.623
652.25	6.512
652.58	6.602
652.90	5.814
653.23	7.042
653.56	5.421
653.88	7.303
654.21	6.197
654.54	4.769
654.86	6.941
655.19	5.019
655.52	5.666
655.84	5.652
656.17	6.888
656.49	9.430
656.82	10.274
657.15	8.029
657.47	6.123
657.80	4.461
658.13	3.579
658.45	4.621
658.78	5.470
659.10	5.738
659.43	5.236
659.75	5.107
660.08	5.882
660.41	5.294
660.73	5.131
661.06	4.699
661.38	6.220
661.71	5.862
662.03	5.996
662.36	7.156
662.68	6.004
663.01	7.434
663.33	4.915
663.66	7.692
663.98	5.962
664.31	8.068
664.63	5.202
664.96	7.441
665.28	3.630
665.61	8.042
665.93	5.179
666.26	7.706
666.58	3.137
666.91	6.168
667.23	8.000
667.56	7.890
667.88	4.800
668.21	3.320
668.53	3.861
668.86	5.305
669.18	4.481
669.50	4.771
669.83	4.800
670.15	5.315
670.48	5.556
670.80	4.589
671.13	4.537
671.45	4.921
671.77	6.780
672.10	6.333
672.42	4.045
672.75	5.069
673.07	4.478
673.39	5.547
673.72	7.383
674.04	6.552
674.37	5.009
674.69	5.996
675.01	4.952
675.34	6.489
675.66	5.618
675.98	8.769
676.31	6.836
676.63	7.605
676.95	7.663
677.28	5.040
677.60	4.528
677.92	5.566
678.25	7.130
678.57	7.473
678.89	7.679
679.22	5.749
679.54	4.274
679.86	5.085
680.18	4.478
680.51	7.390
680.83	6.383
681.15	4.655
681.48	4.663
681.80	6.908
682.12	3.497
682.44	7.012
682.77	5.496
683.09	5.871
683.41	4.651
683.73	6.452
684.06	5.351
684.38	4.293
684.70	4.847
685.02	6.196
685.34	3.993
685.67	3.785
685.99	4.601
686.31	5.669
686.63	3.791
686.96	5.205
687.28	4.723
687.60	3.030
687.92	4.180
688.24	6.344
688.56	5.345
688.89	5.808
689.21	5.479
689.53	4.118
689.85	4.339
690.17	4.444
690.49	5.378
690.82	6.139
691.14	3.441
691.46	4.207
691.78	4.972
692.10	3.853
692.42	3.036
692.74	5.626
693.06	5.000
693.39	6.641
693.71	6.203
694.03	5.948
694.35	5.905
694.67	5.133
694.99	6.596
695.31	4.415
695.63	5.411
695.95	4.348
696.27	3.297
696.59	5.088
696.91	6.081
697.23	7.253
697.56	4.888
697.88	4.545
698.20	6.215
698.52	5.871
698.84	3.119
699.16	6.122
699.48	5.649
699.80	5.106
700.12	3.930
700.44	4.378
700.76	7.363
701.08	8.475
701.40	6.218
701.72	7.960
702.04	2.139
702.36	3.665
702.68	6.357
703.00	5.379
703.32	6.897
703.64	6.357
703.96	6.444
704.28	5.897
704.60	5.063
704.91	6.378
705.23	7.123
705.55	3.621
705.87	4.242
706.19	6.442
706.51	2.410
706.83	1.153
707.15	2.646
707.47	2.336
707.79	3.057
708.11	4.449
708.43	4.731
708.74	4.464
709.06	4.408
709.38	7.981
709.70	6.203
710.02	4.910
710.34	7.979
710.66	3.352
710.98	5.738
711.29	4.121
711.61	4.520
711.93	2.564
712.25	4.324
712.57	8.555
712.89	6.176
713.20	5.325
713.52	6.647
713.84	4.457
714.16	4.211
714.48	5.412
714.80	7.013
715.11	4.199
715.43	4.775
715.75	4.474
716.07	3.039
716.39	9.016
716.70	3.614
717.02	1.967
717.34	-2.439
717.66	3.691
717.97	6.164
718.29	6.873
718.61	3.618
718.93	4.207
719.24	8.075
719.56	2.454
719.88	2.703
720.20	2.903
720.51	1.863
720.83	2.500
721.15	1.316
721.46	4.110
721.78	3.000
722.10	5.178
722.42	2.013
722.73	3.226
723.05	3.860
723.37	2.431
723.68	7.885
724.00	7.942
724.32	1.761
724.63	4.196
724.95	5.674
725.27	2.787
725.58	3.534
725.90	5.862
726.22	5.016
726.53	3.896
726.85	5.660
727.16	5.136
727.48	6.422
727.80	3.974
728.11	2.120
728.43	5.387
728.74	3.344
729.06	3.311
729.38	1.299
729.69	3.691
730.01	5.060
730.32	3.636
730.64	2.516
730.96	0.621
731.27	6.983
731.59	6.044
731.90	3.896
732.22	3.385
732.53	1.381
732.85	3.429
733.16	5.572
733.48	3.049
733.80	3.621
734.11	3.419
734.43	4.054
734.74	7.848
735.06	5.779
735.37	4.595
735.69	5.946
736.00	1.977
736.32	5.391
736.63	3.889
736.95	3.736
737.26	0.909
737.58	0.606
737.89	5.588
738.21	0.612
738.52	2.623
738.83	7.509
739.15	2.482
739.46	4.422
739.78	3.681
740.09	0.287
740.41	7.580
740.72	-0.333
741.04	7.120
741.35	4.561
741.66	5.490
741.98	4.508
742.29	5.439
742.61	1.754
742.92	5.385
743.23	5.054
743.55	5.814
743.86	5.200
744.18	0.413
744.49	-0.422
744.80	5.761
745.12	1.688
745.43	2.033
745.74	0.431
746.06	3.390
746.37	5.485
746.68	8.130
747.00	2.083
747.31	3.433
747.62	5.385
747.94	3.239
748.25	-1.205
748.56	4.490
748.88	0.427
749.19	6.034
749.50	1.732
749.82	4.418
750.13	8.541
750.44	3.667
750.75	4.923
751.07	4.308
751.38	1.262
751.69	0.639
752.01	0.971
752.32	0.980
752.63	0.340
752.94	3.806
753.26	3.346
753.57	0.370
753.88	2.622
754.19	2.894
754.51	3.215
754.82	4.502
755.13	5.902
755.44	3.754
755.75	4.605
756.07	6.269
756.38	3.459
756.69	6.627
757.00	2.216
757.31	4.645
757.63	0.000
757.94	4.695
758.25	7.675
758.56	2.614
758.87	8.182
759.18	4.000
759.50	3.966
759.81	4.762
760.12	2.156
760.43	3.385
760.74	2.956
761.05	2.500
761.36	4.096
761.67	2.792
761.99	4.865
762.30	4.268
762.61	2.970
762.92	4.851
763.23	7.116
763.54	5.396
763.85	2.405
764.16	3.704
764.47	4.577
764.78	4.473
765.10	0.880
765.41	7.949
765.72	3.439
766.03	5.650
766.34	2.508
766.65	2.439
766.96	4.781
767.27	7.373
767.58	-0.498
767.89	3.365
768.20	1.878
768.51	5.093
768.82	0.803
769.13	5.303
769.44	-0.385
769.75	3.971
770.06	5.000
770.37	5.906
770.68	0.426
770.99	0.810
771.30	9.259
771.61	-1.141
771.92	0.370
772.23	4.049
772.54	-1.852
772.85	7.834
773.16	4.762
773.47	1.058
773.78	-3.784
774.09	2.841
774.39	6.500
774.70	2.732
775.01	5.488
775.32	-2.941
775.63	6.748
775.94	-1.911
776.25	7.097
776.56	12.179
776.87	8.163
777.18	-2.759
777.48	4.196
777.79	2.027
778.10	0.735
778.41	4.167
778.72	1.379
779.03	3.704
779.34	2.424
779.65	7.772
779.95	10.556
780.26	1.705
780.57	1.290
780.88	6.522
781.19	5.161
781.50	7.647
781.80	2.688
782.11	8.466
782.42	2.525
782.73	-3.593
783.04	5.028
783.34	-0.606
783.65	-2.614
783.96	-4.348
784.27	1.190
784.57	1.987
784.88	4.286
785.19	3.150
785.50	0.787
785.81	3.008
786.11	3.077
786.42	2.158
786.73	6.475
787.04	14.286
787.34	2.459
787.65	11.200
787.96	1.493
788.26	3.497
788.57	8.392
788.88	0.658
789.19	2.614
789.49	4.795
789.80	-0.709
790.11	7.087
790.41	3.125
790.72	8.475
791.03	-2.913
791.33	2.609
791.64	0.877
791.95	0.000
792.25	4.762
792.56	6.250
792.87	4.167
793.17	0.000
793.48	4.167
793.79	-12.048
794.09	-2.752
794.40	-2.752
794.70	-1.361
795.01	-0.649
795.32	-0.685
795.62	5.634
795.93	-5.303
796.23	4.918
796.54	-5.357
796.85	0.000
797.15	0.000
797.46	-5.479
797.76	-2.500
798.07	-4.348
798.37	-12.371
798.68	-5.195
798.99	-4.598
799.29	-1.124
799.60	7.447
799.90	-2.410
800.21	-3.077
800.51	-1.493
800.82	-4.412
801.12	-21.918
801.43	-10.294
801.73	-18.644
802.04	-4.545
802.34	3.333
802.65	1.695
802.95	1.493
803.26	-1.695
803.56	-1.370
803.87	-1.429
804.17	12.329
804.48	-29.825
804.78	-5.556
805.09	-18.966
805.39	8.108
805.70	-9.859
806.00	6.098
806.30	-1.205
806.61	-5.479
806.91	6.731
807.22	-1.111
807.52	-14.943
807.83	-6.944
808.13	-1.205
808.43	-8.989
808.74	-5.000
809.04	-25.000
809.35	-1.333
809.65	-7.143
809.95	6.849
810.26	-8.772
810.56	-12.069
810.86	4.412
811.17	-3.509
811.47	-22.951
811.77	-15.556
812.08	0.000
812.38	-5.000
812.69	8.621
812.99	0.000
813.29	-20.513
813.59	10.000
813.90	0.000
814.20	1.818
814.50	1.408
814.81	0.000
815.11	-8.197
815.41	8.955
815.72	17.241
816.02	14.286
816.32	22.222
816.62	2.273
816.93	-17.778
817.23	1.852
817.53	-4.255
817.84	4.762
818.14	-17.647
818.44	6.122
818.74	-2.222
819.04	0.000
819.35	-40.000
819.65	-42.308
819.95	1.887
820.25	11.111
820.56	-7.143
820.86	-28.125
821.16	-2.564
821.46	-30.233
821.76	-16.000
822.07	0.000
822.37	-8.696
822.67	-4.255
822.97	-56.757
823.27	-12.500
823.57	-6.122
823.88	15.556
824.18	7.500
824.48	-30.000
824.78	-8.000
825.08	3.030
825.38	24.444
825.69	-6.383
825.99	-16.667
826.29	-37.143
826.59	0.000
826.89	-4.651
827.19	-6.000
827.49	-8.824
827.79	-2.083
828.09	-21.622
828.39	-30.000
828.70	0.000
829.00	0.000
829.30	-25.000
829.60	-20.588
829.90	-4.348
830.20	-2.857
830.50	-44.828
830.80	-44.444
831.10	-7.692
831.40	-8.824
831.70	-33.333
832.00	29.032
832.30	-111.765
832.60	-41.667
832.90	-153.846
833.20	-26.316
833.50	-40.000
833.80	-84.211
834.10	-71.429
834.40	2.778
834.70	0.000
835.00	-57.143
835.30	0.000
835.60	-56.667
835.90	-8.000
836.20	-63.636
836.50	12.000
836.80	-51.515
837.10	-3.704
837.40	-3.704
837.70	-131.250
838.00	3.571
838.30	-26.087
838.60	6.897
838.90	-35.714
839.19	-91.304
839.49	-116.667
839.79	-8.696
840.09	-68.750
840.39	-30.000
840.69	-12.903
840.99	-25.000
841.29	20.000
841.59	-68.421
841.88	20.513
842.18	-3.846
842.48	-100.000
842.78	-30.000
843.08	-10.000
843.38	0.000
843.68	-44.444
843.97	23.529
844.27	-75.000
844.57	-94.737
844.87	-90.000
845.17	6.667
845.47	38.095
845.76	19.048
846.06	-77.778
846.36	-47.059
846.66	-15.385
846.96	-140.000
847.25	-76.471
847.55	4.348
847.85	-20.000
848.15	17.647
848.44	-90.909
848.74	-61.905
849.04	-54.167
849.34	18.750
849.63	8.696
849.93	250.000
850.23	20.000
850.53	46.154
850.82	-63.636
851.12	-4.545
851.42	63.636
851.71	7.692
852.01	-45.000
852.31	23.077
852.61	-5.263
852.90	-8.333
853.20	16.667
853.50	-166.667
853.79	-33.333
854.09	-77.273
854.39	-108.333
854.68	-3.226
854.98	-3.846
855.28	-33.333
855.57	-53.571
855.87	-20.000
856.17	31.818
856.46	-22.222
856.76	-44.444
857.05	-4.348
857.35	0.000
857.65	0.000
857.94	-4.762
858.24	22.222
858.53	-13.043
858.83	23.529
859.13	11.765
859.42	29.412
859.72	-7.143
860.01	-15.000
860.31	-144.444
860.60	10.000
860.90	-33.333
861.20	-44.444
861.49	-46.154
861.79	-6.667
862.08	-7.692
862.38	21.875
862.67	52.941
862.97	31.250
863.26	-77.778
863.56	-70.000
863.85	-27.273
864.15	38.889
864.44	-133.333
864.74	-71.429
865.03	-37.500
865.33	-80.000
865.62	-25.806
865.92	18.182
866.21	-8.696
866.51	28.571
866.80	-100.000
867.10	-41.667
867.39	-100.000
867.69	1300.000
867.98	-57.143
868.27	-17.647
868.57	-1700.000
868.86	-210.000
869.16	-14.286
869.45	16.667
869.75	27.273
870.04	-42.857
870.33	-16.667
870.63	-228.571
870.92	-150.000
871.22	-150.000
871.51	-100.000
871.80	-666.667
872.10	-500.000
>>>>>End Processed Spectral Data<<<<<
