SpectraSuite Data File
++++++++++++++++++++++++++++++++++++
Date: Thu May 14 16:36:29 PDT 2015
User: schluterlab
Dark Spectrum Present: Yes
Reference Spectrum Present: Yes
Number of Sampled Component Spectra: 1
Spectrometers: USB2E3373
Integration Time (usec): 3000 (USB2E3373)
Spectra Averaged: 3 (USB2E3373)
Boxcar Smoothing: 0 (USB2E3373)
Correct for Electrical Dark: No (USB2E3373)
Strobe/Lamp Enabled: No (USB2E3373)
Correct for Detector Non-linearity: No (USB2E3373)
Correct for Stray Light: No (USB2E3373)
Number of Pixels in Processed Spectrum: 2048
>>>>>Begin Processed Spectral Data<<<<<
178.53	0.000
178.91	-128.571
179.29	-1200.000
179.67	-200.000
180.04	157.143
180.42	-0.000
180.80	20.000
181.18	200.000
181.56	600.000
181.94	300.000
182.31	0.000
182.69	266.667
183.07	-300.000
183.45	300.000
183.83	-150.000
184.20	-266.667
184.58	800.000
184.96	-200.000
185.34	11.111
185.72	-40.000
186.09	188.889
186.47	350.000
186.85	140.000
187.23	0.000
187.61	-1000.000
187.98	20.000
188.36	300.000
188.74	-250.000
189.12	-166.667
189.49	81.250
189.87	-37.500
190.25	-22.222
190.63	100.000
191.00	-111.111
191.38	0.000
191.76	-300.000
192.14	-50.000
192.51	-100.000
192.89	116.667
193.27	0.000
193.65	-71.429
194.02	-800.000
194.40	-57.143
194.78	114.286
195.15	0.000
195.53	0.000
195.91	0.000
196.29	25.000
196.66	-53.846
197.04	-1100.000
197.42	-28.571
197.79	-250.000
198.17	-25.000
198.55	-228.571
198.92	-44.444
199.30	-100.000
199.68	118.182
200.05	-7.143
200.43	-150.000
200.81	142.857
201.18	0.000
201.56	233.333
201.94	0.000
202.31	333.333
202.69	-44.444
203.07	800.000
203.44	66.667
203.82	-100.000
204.19	-83.333
204.57	-183.333
204.95	-50.000
205.32	-300.000
205.70	-75.000
206.08	-50.000
206.45	100.000
206.83	20.000
207.20	-33.333
207.58	-320.000
207.96	-200.000
208.33	33.333
208.71	50.000
209.08	-33.333
209.46	0.000
209.84	250.000
210.21	400.000
210.59	600.000
210.96	366.667
211.34	200.000
211.71	0.000
212.09	-1200.000
212.46	0.000
212.84	500.000
213.22	-160.000
213.59	-150.000
213.97	-30.000
214.34	-66.667
214.72	166.667
215.09	-200.000
215.47	0.000
215.84	100.000
216.22	950.000
216.59	-20.000
216.97	-180.000
217.34	-175.000
217.72	-12.500
218.09	-75.000
218.47	25.000
218.84	0.000
219.22	100.000
219.59	0.000
219.97	15.000
220.34	700.000
220.72	-133.333
221.09	-46.154
221.47	-166.667
221.84	20.000
222.22	-28.571
222.59	0.000
222.97	-37.500
223.34	-140.000
223.72	-100.000
224.09	-225.000
224.46	-125.000
224.84	-260.000
225.21	-57.143
225.59	25.000
225.96	25.000
226.34	26.923
226.71	116.667
227.08	-650.000
227.46	33.333
227.83	-175.000
228.21	47.368
228.58	62.500
228.95	150.000
229.33	8.333
229.70	30.000
230.08	78.947
230.45	80.000
230.82	-200.000
231.20	-21.429
231.57	8.333
231.95	36.364
232.32	-36.364
232.69	30.000
233.07	-100.000
233.44	5.882
233.81	-120.000
234.19	16.667
234.56	9.091
234.93	27.586
235.31	42.105
235.68	-27.778
236.05	-45.000
236.43	53.846
236.80	60.000
237.17	11.111
237.55	36.364
237.92	-80.000
238.29	0.000
238.67	13.636
239.04	5.556
239.41	19.048
239.79	8.696
240.16	3.704
240.53	26.087
240.91	1.961
241.28	13.115
241.65	26.866
242.02	27.027
242.40	6.154
242.77	9.333
243.14	9.756
243.51	9.211
243.89	5.128
244.26	21.782
244.63	11.765
245.00	15.888
245.38	19.298
245.75	0.000
246.12	19.841
246.49	15.504
246.87	20.714
247.24	19.205
247.61	21.711
247.98	10.738
248.36	14.815
248.73	14.110
249.10	13.661
249.47	21.891
249.84	20.942
250.22	18.135
250.59	16.667
250.96	16.364
251.33	15.306
251.70	19.231
252.08	16.667
252.45	18.852
252.82	17.355
253.19	16.797
253.56	15.209
253.94	13.077
254.31	15.530
254.68	18.182
255.05	19.544
255.42	14.286
255.79	14.239
256.16	17.219
256.54	16.556
256.91	15.410
257.28	16.393
257.65	14.013
258.02	12.979
258.39	16.239
258.76	22.324
259.14	18.966
259.51	20.173
259.88	17.564
260.25	18.611
260.62	16.438
260.99	21.038
261.36	21.448
261.73	17.772
262.10	18.132
262.47	18.767
262.85	21.212
263.22	17.143
263.59	15.263
263.96	17.391
264.33	18.414
264.70	19.259
265.07	16.945
265.44	21.995
265.81	18.287
266.18	20.408
266.55	16.964
266.92	17.084
267.29	18.162
267.66	19.512
268.03	18.341
268.40	16.910
268.77	17.768
269.14	16.300
269.51	19.079
269.88	21.516
270.25	18.511
270.62	19.409
270.99	18.990
271.36	19.406
271.73	18.468
272.10	20.441
272.47	15.832
272.84	21.285
273.21	19.840
273.58	18.347
273.95	16.346
274.32	17.681
274.69	17.215
275.06	20.330
275.43	16.636
275.80	18.695
276.17	16.481
276.54	14.739
276.91	17.889
277.28	18.083
277.65	20.287
278.02	16.912
278.39	18.841
278.76	17.223
279.13	18.440
279.50	17.698
279.87	20.036
280.23	15.669
280.60	18.136
280.97	17.599
281.34	16.978
281.71	18.951
282.08	17.442
282.45	17.840
282.82	16.797
283.19	15.832
283.56	17.377
283.92	19.820
284.29	18.799
284.66	18.883
285.03	15.224
285.40	17.929
285.77	16.254
286.14	15.878
286.51	17.199
286.87	16.272
287.24	17.169
287.61	16.442
287.98	16.918
288.35	17.012
288.72	15.828
289.08	16.105
289.45	15.828
289.82	16.566
290.19	17.385
290.56	16.620
290.93	15.549
291.29	16.667
291.66	16.391
292.03	15.604
292.40	18.095
292.77	14.420
293.13	15.020
293.50	15.112
293.87	15.436
294.24	15.867
294.60	14.791
294.97	13.557
295.34	16.389
295.71	14.250
296.08	13.695
296.44	15.809
296.81	14.129
297.18	14.197
297.55	14.033
297.91	13.642
298.28	13.507
298.65	13.793
299.02	14.994
299.38	14.188
299.75	13.668
300.12	14.468
300.48	13.940
300.85	13.611
301.22	15.101
301.59	13.242
301.95	14.237
302.32	14.333
302.69	14.567
303.05	13.928
303.42	14.967
303.79	13.438
304.15	13.880
304.52	13.531
304.89	13.613
305.25	14.803
305.62	13.271
305.99	14.227
306.35	15.524
306.72	15.408
307.09	13.198
307.45	14.286
307.82	15.237
308.19	14.531
308.55	14.272
308.92	15.385
309.29	15.038
309.65	14.522
310.02	14.257
310.38	13.976
310.75	14.175
311.12	15.340
311.48	14.174
311.85	14.245
312.22	15.655
312.58	14.930
312.95	15.966
313.31	15.808
313.68	16.850
314.05	18.067
314.41	17.213
314.78	15.622
315.14	16.243
315.51	16.805
315.87	17.642
316.24	17.443
316.61	18.472
316.97	17.195
317.34	17.549
317.70	18.865
318.07	19.136
318.43	19.473
318.80	19.064
319.16	19.142
319.53	19.195
319.89	19.632
320.26	19.840
320.62	20.124
320.99	20.868
321.35	20.795
321.72	22.233
322.08	21.641
322.45	21.951
322.81	22.834
323.18	22.566
323.54	23.879
323.91	24.021
324.27	23.494
324.64	24.349
325.00	24.710
325.37	26.372
325.73	27.025
326.10	25.385
326.46	26.873
326.83	27.302
327.19	27.087
327.56	27.747
327.92	27.301
328.29	28.387
328.65	28.308
329.01	29.949
329.38	31.424
329.74	30.908
330.11	31.079
330.47	30.329
330.84	30.922
331.20	31.833
331.56	31.282
331.93	32.469
332.29	31.695
332.66	31.977
333.02	31.993
333.38	33.389
333.75	33.249
334.11	33.695
334.48	33.251
334.84	34.749
335.20	33.417
335.57	34.570
335.93	34.050
336.29	32.446
336.66	34.146
337.02	32.525
337.38	34.609
337.75	33.388
338.11	34.819
338.47	34.326
338.84	34.095
339.20	34.541
339.56	34.514
339.93	33.990
340.29	34.702
340.65	32.603
341.02	34.637
341.38	34.762
341.74	33.979
342.11	34.513
342.47	34.234
342.83	35.749
343.20	35.241
343.56	34.162
343.92	34.668
344.28	34.453
344.65	35.504
345.01	35.647
345.37	34.759
345.73	35.152
346.10	36.037
346.46	35.285
346.82	35.431
347.19	35.600
347.55	36.191
347.91	35.587
348.27	35.888
348.63	35.415
349.00	35.794
349.36	36.208
349.72	35.491
350.08	35.958
350.45	35.209
350.81	35.445
351.17	35.639
351.53	36.770
351.89	36.371
352.26	37.015
352.62	35.896
352.98	37.710
353.34	35.698
353.70	39.214
354.07	35.246
354.43	36.674
354.79	36.425
355.15	36.792
355.51	37.208
355.87	37.696
356.24	38.099
356.60	36.881
356.96	37.806
357.32	36.952
357.68	37.042
358.04	37.275
358.40	37.388
358.77	37.939
359.13	37.001
359.49	38.736
359.85	37.854
360.21	38.666
360.57	38.550
360.93	38.434
361.29	38.596
361.66	38.812
362.02	39.248
362.38	40.197
362.74	38.408
363.10	39.684
363.46	39.474
363.82	39.844
364.18	39.198
364.54	39.972
364.90	40.000
365.26	40.552
365.62	41.600
365.98	41.184
366.35	39.396
366.71	40.680
367.07	40.122
367.43	40.709
367.79	41.340
368.15	40.535
368.51	40.325
368.87	40.562
369.23	41.200
369.59	41.530
369.95	41.312
370.31	41.256
370.67	41.747
371.03	40.512
371.39	40.363
371.75	42.985
372.11	42.344
372.47	41.571
372.83	42.408
373.19	41.694
373.55	40.786
373.91	41.377
374.27	40.944
374.63	43.775
374.99	42.706
375.35	41.753
375.71	40.903
376.07	41.188
376.42	41.499
376.78	42.946
377.14	41.859
377.50	44.213
377.86	42.488
378.22	42.395
378.58	42.806
378.94	42.899
379.30	43.234
379.66	42.093
380.02	43.335
380.38	43.952
380.74	42.761
381.09	43.206
381.45	43.466
381.81	43.208
382.17	43.587
382.53	42.807
382.89	43.059
383.25	43.728
383.61	43.981
383.97	43.522
384.32	44.976
384.68	42.401
385.04	45.460
385.40	44.549
385.76	44.666
386.12	43.986
386.48	43.529
386.83	44.458
387.19	44.206
387.55	44.953
387.91	44.863
388.27	44.804
388.62	43.585
388.98	43.824
389.34	44.549
389.70	45.206
390.06	44.701
390.42	44.458
390.77	44.431
391.13	44.894
391.49	44.143
391.85	43.939
392.20	44.306
392.56	45.540
392.92	43.566
393.28	45.163
393.64	44.246
393.99	44.160
394.35	45.093
394.71	44.731
395.07	43.892
395.42	43.804
395.78	45.155
396.14	44.385
396.50	44.477
396.85	44.067
397.21	43.728
397.57	45.053
397.92	43.872
398.28	44.378
398.64	43.650
399.00	43.037
399.35	43.508
399.71	44.293
400.07	43.739
400.42	44.121
400.78	44.502
401.14	43.256
401.49	44.571
401.85	44.070
402.21	43.569
402.57	44.601
402.92	43.440
403.28	44.145
403.63	44.093
403.99	43.468
404.35	42.069
404.70	42.833
405.06	41.902
405.42	42.389
405.77	43.021
406.13	43.058
406.49	42.399
406.84	42.493
407.20	43.656
407.55	43.368
407.91	42.803
408.27	41.991
408.62	42.292
408.98	43.064
409.34	42.346
409.69	42.027
410.05	43.142
410.40	42.633
410.76	42.232
411.11	42.724
411.47	42.506
411.83	42.269
412.18	41.928
412.54	42.679
412.89	41.502
413.25	42.325
413.60	41.930
413.96	42.191
414.31	41.473
414.67	42.457
415.03	41.108
415.38	42.308
415.74	41.967
416.09	42.443
416.45	40.764
416.80	41.493
417.16	43.359
417.51	42.590
417.87	42.305
418.22	42.754
418.58	41.636
418.93	42.491
419.29	42.293
419.64	41.777
420.00	41.662
420.35	42.448
420.71	42.160
421.06	41.403
421.42	41.571
421.77	41.195
422.12	41.649
422.48	41.321
422.83	41.785
423.19	42.228
423.54	42.865
423.90	41.414
424.25	43.040
424.61	41.906
424.96	42.284
425.31	42.410
425.67	42.029
426.02	43.774
426.38	42.710
426.73	42.355
427.09	42.849
427.44	41.999
427.79	42.344
428.15	42.295
428.50	41.573
428.85	42.308
429.21	43.138
429.56	42.448
429.92	42.211
430.27	43.566
430.62	41.671
430.98	41.958
431.33	40.665
431.68	41.140
432.04	43.017
432.39	43.653
432.74	43.094
433.10	43.537
433.45	43.200
433.80	41.899
434.16	42.510
434.51	43.782
434.86	44.680
435.22	44.527
435.57	44.104
435.92	43.684
436.28	44.994
436.63	43.692
436.98	43.747
437.34	44.363
437.69	43.313
438.04	43.258
438.39	45.032
438.75	43.442
439.10	44.873
439.45	45.333
439.81	43.842
440.16	44.236
440.51	44.537
440.86	44.636
441.22	44.855
441.57	45.597
441.92	44.762
442.27	46.263
442.63	45.455
442.98	45.464
443.33	46.186
443.68	46.135
444.03	46.143
444.39	46.232
444.74	46.503
445.09	45.565
445.44	46.417
445.79	47.126
446.15	47.585
446.50	47.339
446.85	48.492
447.20	47.002
447.55	48.326
447.91	47.801
448.26	47.304
448.61	47.343
448.96	49.678
449.31	47.455
449.66	47.658
450.02	48.523
450.37	48.322
450.72	48.654
451.07	48.633
451.42	48.411
451.77	48.193
452.12	49.605
452.47	49.554
452.83	50.507
453.18	49.387
453.53	50.373
453.88	48.537
454.23	49.379
454.58	49.971
454.93	49.211
455.28	50.090
455.63	49.062
455.98	49.218
456.34	48.528
456.69	49.853
457.04	50.532
457.39	49.778
457.74	50.559
458.09	49.314
458.44	49.892
458.79	49.355
459.14	49.240
459.49	50.368
459.84	50.472
460.19	49.250
460.54	50.596
460.89	49.974
461.24	49.310
461.59	50.581
461.94	49.914
462.29	50.056
462.64	50.694
462.99	50.596
463.34	51.395
463.69	49.766
464.04	50.083
464.39	50.392
464.74	49.544
465.09	48.962
465.44	49.464
465.79	49.022
466.14	48.723
466.49	49.421
466.84	50.468
467.19	49.191
467.54	48.120
467.89	49.713
468.24	49.584
468.59	49.682
468.94	50.291
469.29	49.550
469.64	50.540
469.99	51.370
470.34	50.495
470.68	50.581
471.03	49.509
471.38	52.453
471.73	50.195
472.08	50.698
472.43	50.632
472.78	51.259
473.13	51.517
473.48	50.514
473.83	50.029
474.17	50.117
474.52	51.954
474.87	49.779
475.22	51.324
475.57	50.519
475.92	49.726
476.27	50.213
476.61	49.844
476.96	49.635
477.31	50.198
477.66	50.839
478.01	50.330
478.36	50.199
478.70	50.148
479.05	51.636
479.40	51.481
479.75	49.856
480.10	50.118
480.45	51.367
480.79	50.567
481.14	50.046
481.49	50.659
481.84	50.914
482.19	50.409
482.53	50.590
482.88	51.041
483.23	49.800
483.58	49.782
483.92	49.335
484.27	49.619
484.62	49.587
484.97	49.883
485.31	48.187
485.66	45.396
486.01	44.044
486.36	44.313
486.70	46.821
487.05	48.653
487.40	48.502
487.75	48.601
488.09	49.281
488.44	48.089
488.79	50.219
489.13	49.493
489.48	49.592
489.83	49.698
490.17	49.899
490.52	48.933
490.87	50.508
491.22	50.693
491.56	49.829
491.91	50.327
492.26	50.108
492.60	49.934
492.95	49.539
493.30	50.650
493.64	50.942
493.99	50.307
494.34	49.129
494.68	49.550
495.03	49.780
495.37	50.599
495.72	49.977
496.07	50.175
496.41	50.193
496.76	49.875
497.11	49.597
497.45	50.755
497.80	50.022
498.14	50.159
498.49	49.816
498.84	50.274
499.18	49.753
499.53	49.776
499.87	50.022
500.22	49.911
500.56	49.618
500.91	50.297
501.26	51.500
501.60	49.757
501.95	49.457
502.29	50.110
502.64	50.634
502.98	49.525
503.33	49.287
503.67	49.978
504.02	49.956
504.36	50.357
504.71	49.885
505.06	50.023
505.40	49.589
505.75	49.044
506.09	49.632
506.44	50.464
506.78	51.330
507.13	50.715
507.47	51.161
507.82	50.142
508.16	50.574
508.51	50.445
508.85	50.779
509.19	51.397
509.54	51.153
509.88	51.724
510.23	51.773
510.57	51.522
510.92	50.556
511.26	50.697
511.61	49.638
511.95	50.610
512.30	51.206
512.64	51.124
512.98	51.676
513.33	51.462
513.67	51.249
514.02	52.427
514.36	52.992
514.70	51.875
515.05	52.607
515.39	52.388
515.74	53.446
516.08	52.192
516.42	52.800
516.77	52.629
517.11	51.676
517.46	53.181
517.80	52.913
518.14	52.938
518.49	52.928
518.83	52.741
519.17	52.881
519.52	52.306
519.86	52.587
520.20	52.662
520.55	53.122
520.89	53.604
521.23	53.546
521.58	53.955
521.92	53.711
522.26	53.837
522.61	54.630
522.95	53.403
523.29	54.598
523.64	53.363
523.98	54.421
524.32	54.384
524.66	53.842
525.01	53.567
525.35	54.164
525.69	53.190
526.04	53.387
526.38	53.391
526.72	53.922
527.06	53.842
527.41	52.886
527.75	53.622
528.09	54.368
528.43	53.760
528.78	54.104
529.12	54.014
529.46	52.782
529.80	53.146
530.15	53.913
530.49	54.330
530.83	53.778
531.17	54.540
531.51	55.355
531.86	54.748
532.20	55.122
532.54	54.159
532.88	54.424
533.22	53.270
533.57	53.376
533.91	52.694
534.25	52.742
534.59	53.563
534.93	52.745
535.27	53.183
535.62	54.179
535.96	53.051
536.30	53.995
536.64	54.835
536.98	55.412
537.32	53.519
537.66	56.145
538.01	52.145
538.35	54.446
538.69	53.365
539.03	53.832
539.37	52.827
539.71	53.393
540.05	53.657
540.39	53.178
540.73	53.916
541.07	53.403
541.42	52.747
541.76	52.491
542.10	53.438
542.44	53.289
542.78	53.832
543.12	52.384
543.46	52.869
543.80	51.799
544.14	52.543
544.48	53.251
544.82	53.800
545.16	54.264
545.50	53.206
545.84	53.460
546.18	54.012
546.52	54.395
546.86	53.145
547.20	53.690
547.54	52.310
547.88	52.441
548.22	51.930
548.56	51.551
548.90	52.478
549.24	52.644
549.58	53.691
549.92	53.061
550.26	53.786
550.60	52.967
550.94	54.075
551.28	52.739
551.62	54.852
551.96	52.492
552.30	53.601
552.64	53.205
552.98	53.213
553.32	53.569
553.66	53.955
554.00	53.342
554.34	52.831
554.68	52.937
555.02	53.679
555.36	54.372
555.69	52.530
556.03	52.774
556.37	52.503
556.71	53.900
557.05	52.141
557.39	54.214
557.73	53.963
558.07	54.040
558.41	53.555
558.75	54.293
559.08	53.166
559.42	53.292
559.76	54.953
560.10	53.248
560.44	54.156
560.78	53.062
561.12	51.416
561.45	51.886
561.79	52.015
562.13	52.803
562.47	51.973
562.81	52.405
563.15	53.030
563.48	52.952
563.82	52.539
564.16	51.242
564.50	51.728
564.84	51.150
565.17	51.412
565.51	51.208
565.85	51.188
566.19	50.403
566.52	51.141
566.86	50.538
567.20	49.592
567.54	50.027
567.88	50.153
568.21	49.852
568.55	50.312
568.89	48.933
569.23	47.993
569.56	45.916
569.90	46.258
570.24	45.565
570.57	44.901
570.91	45.009
571.25	44.461
571.59	44.392
571.92	43.710
572.26	43.568
572.60	44.499
572.93	44.308
573.27	44.423
573.61	43.965
573.95	42.972
574.28	42.770
574.62	42.656
574.96	42.303
575.29	42.168
575.63	42.042
575.97	42.802
576.30	42.487
576.64	42.782
576.98	42.141
577.31	42.795
577.65	41.952
577.98	41.547
578.32	41.276
578.66	41.217
578.99	41.798
579.33	42.374
579.67	42.248
580.00	42.751
580.34	41.907
580.67	42.145
581.01	41.757
581.35	41.165
581.68	40.710
582.02	40.472
582.35	41.286
582.69	40.746
583.02	41.637
583.36	42.308
583.70	42.013
584.03	42.813
584.37	42.409
584.70	42.078
585.04	42.013
585.37	41.427
585.71	41.402
586.04	40.621
586.38	41.992
586.72	41.690
587.05	41.622
587.39	42.508
587.72	42.177
588.06	41.344
588.39	42.171
588.73	41.905
589.06	42.184
589.40	42.778
589.73	43.316
590.07	43.601
590.40	43.577
590.73	44.115
591.07	44.192
591.40	43.585
591.74	44.475
592.07	44.214
592.41	43.415
592.74	42.315
593.08	42.580
593.41	42.636
593.75	42.069
594.08	42.714
594.41	42.692
594.75	42.776
595.08	42.429
595.42	42.597
595.75	42.170
596.09	43.104
596.42	43.533
596.75	44.384
597.09	43.636
597.42	43.623
597.75	43.512
598.09	43.413
598.42	43.707
598.76	42.377
599.09	42.150
599.42	41.066
599.76	41.499
600.09	41.241
600.42	41.742
600.76	41.612
601.09	41.454
601.42	41.744
601.76	42.379
602.09	42.352
602.42	42.312
602.76	41.956
603.09	42.988
603.42	42.377
603.76	41.684
604.09	42.796
604.42	42.495
604.76	42.542
605.09	42.561
605.42	42.823
605.75	42.038
606.09	41.620
606.42	41.007
606.75	41.117
607.09	41.129
607.42	41.773
607.75	41.579
608.08	42.028
608.42	42.322
608.75	42.496
609.08	42.148
609.41	42.876
609.75	43.214
610.08	44.107
610.41	41.674
610.74	42.185
611.07	42.895
611.41	43.049
611.74	43.603
612.07	42.917
612.40	43.489
612.73	43.667
613.07	43.032
613.40	42.974
613.73	43.139
614.06	42.836
614.39	42.468
614.72	42.310
615.06	41.915
615.39	42.049
615.72	42.512
616.05	42.399
616.38	43.391
616.71	42.424
617.05	42.971
617.38	43.713
617.71	44.168
618.04	43.227
618.37	44.918
618.70	44.231
619.03	43.967
619.36	44.575
619.69	45.163
620.03	45.951
620.36	44.356
620.69	44.540
621.02	46.588
621.35	48.331
621.68	47.144
622.01	47.046
622.34	46.095
622.67	45.911
623.00	43.860
623.33	45.985
623.66	45.201
623.99	44.437
624.32	45.159
624.65	44.208
624.99	45.839
625.32	44.938
625.65	45.786
625.98	44.949
626.31	46.350
626.64	44.322
626.97	46.887
627.30	45.254
627.63	44.336
627.96	46.697
628.29	47.160
628.62	47.187
628.95	48.116
629.28	47.494
629.61	47.306
629.94	46.444
630.26	47.797
630.59	45.941
630.92	46.926
631.25	48.301
631.58	47.928
631.91	49.110
632.24	48.511
632.57	48.387
632.90	49.749
633.23	50.918
633.56	50.204
633.89	49.483
634.22	49.688
634.55	49.061
634.88	50.433
635.20	49.731
635.53	50.847
635.86	50.488
636.19	49.629
636.52	50.316
636.85	48.927
637.18	47.505
637.51	48.925
637.83	50.831
638.16	50.461
638.49	51.761
638.82	50.169
639.15	49.714
639.48	52.079
639.81	49.538
640.13	50.530
640.46	48.121
640.79	51.103
641.12	50.683
641.45	50.439
641.77	51.476
642.10	50.656
642.43	53.191
642.76	52.981
643.09	50.959
643.41	50.280
643.74	51.724
644.07	50.069
644.40	51.202
644.73	51.524
645.05	51.542
645.38	51.511
645.71	51.906
646.04	52.367
646.36	50.219
646.69	51.074
647.02	52.599
647.35	54.656
647.67	55.395
648.00	52.389
648.33	51.351
648.66	49.501
648.98	47.619
649.31	49.526
649.64	48.871
649.96	49.735
650.29	46.871
650.62	49.505
650.94	50.150
651.27	49.401
651.60	50.146
651.92	47.872
652.25	48.770
652.58	46.492
652.90	50.000
653.23	48.310
653.56	48.787
653.88	49.438
654.21	47.183
654.54	47.254
654.86	48.584
655.19	45.546
655.52	40.543
655.84	32.846
656.17	36.907
656.49	51.388
656.82	56.537
657.15	45.120
657.47	35.095
657.80	26.607
658.13	21.398
658.45	28.694
658.78	35.573
659.10	35.597
659.43	35.727
659.75	36.846
660.08	36.134
660.41	39.868
660.73	42.645
661.06	45.228
661.38	48.963
661.71	48.966
662.03	49.735
662.36	50.805
662.68	51.970
663.01	48.142
663.33	53.497
663.66	52.015
663.98	52.115
664.31	52.345
664.63	49.518
664.96	50.454
665.28	47.913
665.61	51.399
665.93	46.607
666.26	48.566
666.58	47.232
666.91	53.084
667.23	49.143
667.56	49.507
667.88	49.800
668.21	48.047
668.53	46.911
668.86	51.670
669.18	51.731
669.50	49.304
669.83	51.000
670.15	48.031
670.48	51.984
670.80	46.272
671.13	46.314
671.45	48.819
671.77	49.718
672.10	46.500
672.42	44.984
672.75	43.318
673.07	43.731
673.39	42.989
673.72	46.812
674.04	46.207
674.37	47.585
674.69	46.032
675.01	48.190
675.34	49.237
675.66	44.757
675.98	47.388
676.31	47.656
676.63	46.388
676.95	50.000
677.28	47.984
677.60	45.472
677.92	44.146
678.25	46.984
678.57	46.619
678.89	46.416
679.22	44.599
679.54	44.786
679.86	44.237
680.18	42.289
680.51	41.352
680.83	43.372
681.15	45.862
681.48	44.560
681.80	45.596
682.12	47.902
682.44	43.740
682.77	44.149
683.09	46.023
683.41	48.062
683.73	45.731
684.06	46.310
684.38	40.072
684.70	44.883
685.02	44.234
685.34	41.597
685.67	41.956
685.99	42.638
686.31	38.808
686.63	40.600
686.96	43.375
687.28	42.508
687.60	43.434
687.92	40.514
688.24	41.903
688.56	40.345
688.89	44.828
689.21	47.162
689.53	45.294
689.85	43.195
690.17	41.296
690.49	44.422
690.82	45.149
691.14	42.105
691.46	43.977
691.78	40.884
692.10	40.917
692.42	38.929
692.74	41.379
693.06	38.889
693.39	42.505
693.71	42.669
694.03	40.892
694.35	42.857
694.67	44.148
694.99	40.000
695.31	42.163
695.63	43.506
695.95	44.720
696.27	41.099
696.59	46.460
696.91	46.396
697.23	45.714
697.56	41.344
697.88	41.288
698.20	39.925
698.52	42.992
698.84	41.580
699.16	42.449
699.48	42.469
699.80	38.085
700.12	39.738
700.44	41.935
700.76	45.131
701.08	46.005
701.40	46.891
701.72	48.507
702.04	46.257
702.36	44.241
702.68	41.565
703.00	40.587
703.32	39.655
703.64	43.032
703.96	42.721
704.28	42.752
704.60	44.557
704.91	44.388
705.23	43.562
705.55	45.682
705.87	44.545
706.19	43.865
706.51	43.373
706.83	45.245
707.15	38.889
707.47	38.084
707.79	40.175
708.11	39.195
708.43	39.785
708.74	39.286
709.06	40.371
709.38	41.315
709.70	39.702
710.02	44.961
710.34	43.883
710.66	39.944
710.98	43.443
711.29	40.659
711.61	43.503
711.93	43.305
712.25	40.270
712.57	46.313
712.89	44.412
713.20	38.462
713.52	45.954
713.84	39.833
714.16	45.263
714.48	39.948
714.80	40.260
715.11	40.682
715.43	40.318
715.75	39.474
716.07	38.950
716.39	41.257
716.70	37.048
717.02	46.885
717.34	43.206
717.66	41.946
717.97	41.438
718.29	41.237
718.61	39.803
718.93	41.100
719.24	36.957
719.56	35.890
719.88	41.141
720.20	41.613
720.51	39.130
720.83	39.063
721.15	40.461
721.46	37.671
721.78	39.667
722.10	38.835
722.42	39.597
722.73	39.355
723.05	40.000
723.37	39.931
723.68	41.577
724.00	43.321
724.32	38.732
724.63	37.413
724.95	40.071
725.27	36.934
725.58	38.163
725.90	42.069
726.22	38.245
726.53	37.987
726.85	37.107
727.16	37.160
727.48	41.896
727.80	39.404
728.11	38.163
728.43	41.751
728.74	39.799
729.06	37.417
729.38	35.065
729.69	38.591
730.01	36.905
730.32	34.848
730.64	39.937
730.96	34.783
731.27	36.872
731.59	35.714
731.90	34.026
732.22	33.333
732.53	30.663
732.85	36.000
733.16	37.830
733.48	31.707
733.80	34.540
734.11	38.746
734.43	35.135
734.74	36.962
735.06	32.663
735.37	35.135
735.69	32.432
736.00	35.311
736.32	30.997
736.63	33.333
736.95	32.759
737.26	35.152
737.58	32.121
737.89	35.588
738.21	31.498
738.52	34.754
738.83	36.177
739.15	35.461
739.46	35.374
739.78	37.423
740.09	33.238
740.41	35.860
740.72	37.667
741.04	35.599
741.35	37.193
741.66	37.647
741.98	37.295
742.29	39.749
742.61	39.912
742.92	38.077
743.23	37.545
743.55	37.984
743.86	38.400
744.18	32.645
744.49	31.224
744.80	37.037
745.12	37.553
745.43	41.057
745.74	39.655
746.06	36.017
746.37	40.928
746.68	36.179
747.00	38.333
747.31	37.768
747.62	40.385
747.94	36.032
748.25	32.932
748.56	36.327
748.88	37.179
749.19	38.362
749.50	36.797
749.82	36.145
750.13	39.858
750.44	32.667
750.75	33.538
751.07	35.385
751.38	29.338
751.69	32.907
752.01	30.421
752.32	33.333
752.63	34.694
752.94	34.256
753.26	31.227
753.57	35.926
753.88	32.584
754.19	32.154
754.51	36.656
754.82	33.441
755.13	34.754
755.44	34.812
755.75	30.592
756.07	36.119
756.38	33.962
756.69	30.422
757.00	29.363
757.31	31.421
757.63	29.412
757.94	26.995
758.25	30.023
758.56	27.887
758.87	30.909
759.18	30.933
759.50	30.312
759.81	30.812
760.12	29.919
760.43	29.167
760.74	30.788
761.05	29.250
761.36	28.916
761.67	27.411
761.99	30.811
762.30	30.488
762.61	29.043
762.92	39.179
763.23	35.581
763.54	38.849
763.85	29.897
764.16	32.323
764.47	29.930
764.78	28.754
765.10	30.205
765.41	32.051
765.72	30.688
766.03	31.073
766.34	28.840
766.65	28.571
766.96	34.661
767.27	32.258
767.58	32.338
767.89	36.538
768.20	35.211
768.51	37.500
768.82	30.924
769.13	32.955
769.44	30.769
769.75	36.101
770.06	32.308
770.37	32.283
770.68	31.064
770.99	25.506
771.30	34.815
771.61	31.179
771.92	31.111
772.23	34.818
772.54	31.019
772.85	37.327
773.16	37.619
773.47	34.392
773.78	28.108
774.09	35.227
774.39	37.500
774.70	30.055
775.01	30.488
775.32	30.588
775.63	33.129
775.94	28.025
776.25	34.194
776.56	36.538
776.87	38.776
777.18	28.966
777.48	33.566
777.79	33.108
778.10	33.088
778.41	34.028
778.72	29.655
779.03	30.864
779.34	29.697
779.65	27.979
779.95	33.333
780.26	28.409
780.57	33.548
780.88	42.029
781.19	36.129
781.50	36.471
781.80	33.333
782.11	30.159
782.42	24.242
782.73	22.754
783.04	37.989
783.34	27.273
783.65	28.105
783.96	30.435
784.27	36.310
784.57	33.775
784.88	34.286
785.19	32.283
785.50	32.283
785.81	36.090
786.11	27.692
786.42	26.619
786.73	33.094
787.04	31.579
787.34	35.246
787.65	37.600
787.96	38.060
788.26	39.161
788.57	32.867
788.88	31.579
789.19	32.026
789.49	30.137
789.80	32.624
790.11	31.496
790.41	32.812
790.72	31.356
791.03	29.126
791.33	29.565
791.64	35.965
791.95	32.143
792.25	42.857
792.56	24.107
792.87	38.542
793.17	35.714
793.48	27.083
793.79	22.892
794.09	23.853
794.40	27.523
794.70	28.571
795.01	24.026
795.32	18.493
795.62	26.056
795.93	28.030
796.23	26.230
796.54	22.321
796.85	34.043
797.15	20.652
797.46	20.548
797.76	26.250
798.07	23.913
798.37	22.680
798.68	28.571
798.99	29.885
799.29	28.090
799.60	37.234
799.90	28.916
800.21	38.462
800.51	22.388
800.82	25.000
801.12	24.658
801.43	19.118
801.73	30.508
802.04	22.727
802.34	26.667
802.65	23.729
802.95	32.836
803.26	40.678
803.56	34.247
803.87	30.000
804.17	31.507
804.48	26.316
804.78	29.167
805.09	34.483
805.39	40.541
805.70	22.535
806.00	32.927
806.30	22.892
806.61	16.438
806.91	25.962
807.22	14.444
807.52	14.943
807.83	40.278
808.13	43.373
808.43	23.596
808.74	28.750
809.04	20.588
809.35	34.667
809.65	24.286
809.95	20.548
810.26	29.825
810.56	25.862
810.86	36.765
811.17	12.281
811.47	24.590
811.77	26.667
812.08	40.678
812.38	46.667
812.69	32.759
812.99	30.189
813.29	2.564
813.59	22.000
813.90	28.070
814.20	45.455
814.50	30.986
814.81	25.641
815.11	39.344
815.41	19.403
815.72	31.034
816.02	28.571
816.32	42.222
816.62	52.273
816.93	24.444
817.23	16.667
817.53	17.021
817.84	2.381
818.14	23.529
818.44	28.571
818.74	11.111
819.04	-10.256
819.35	8.571
819.65	19.231
819.95	32.075
820.25	33.333
820.56	14.286
820.86	21.875
821.16	10.256
821.46	23.256
821.76	24.000
822.07	37.500
822.37	19.565
822.67	23.404
822.97	10.811
823.27	10.000
823.57	30.612
823.88	35.556
824.18	72.500
824.48	30.000
824.78	20.000
825.08	48.485
825.38	44.444
825.69	36.170
825.99	25.000
826.29	-11.429
826.59	20.513
826.89	6.977
827.19	2.000
827.49	23.529
827.79	35.417
828.09	13.514
828.39	30.000
828.70	7.317
829.00	13.953
829.30	-10.714
829.60	17.647
829.90	17.391
830.20	0.000
830.50	-31.034
830.80	38.889
831.10	15.385
831.40	23.529
831.70	4.762
832.00	32.258
832.30	-52.941
832.60	-4.167
832.90	46.154
833.20	5.263
833.50	-15.000
833.80	15.789
834.10	-14.286
834.40	30.556
834.70	25.000
835.00	-8.571
835.30	17.647
835.60	20.000
835.90	-4.000
836.20	-68.182
836.50	12.000
836.80	-3.030
837.10	-22.222
837.40	14.815
837.70	31.250
838.00	3.571
838.30	34.783
838.60	34.483
838.90	21.429
839.19	-39.130
839.49	-50.000
839.79	13.043
840.09	-18.750
840.39	-20.000
840.69	41.935
840.99	-7.143
841.29	-20.000
841.59	-31.579
841.88	20.513
842.18	-11.538
842.48	-20.000
842.78	10.000
843.08	26.667
843.38	16.129
843.68	-11.111
843.97	32.353
844.27	6.250
844.57	15.789
844.87	10.000
845.17	-13.333
845.47	52.381
845.76	4.762
846.06	44.444
846.36	35.294
846.66	15.385
846.96	-13.333
847.25	-23.529
847.55	13.043
847.85	-20.000
848.15	0.000
848.44	27.273
848.74	42.857
849.04	16.667
849.34	-6.250
849.63	65.217
849.93	550.000
850.23	33.333
850.53	19.231
850.82	-9.091
851.12	27.273
851.42	0.000
851.71	-15.385
852.01	-80.000
852.31	0.000
852.61	21.053
852.90	58.333
853.20	-11.111
853.50	-111.111
853.79	14.286
854.09	18.182
854.39	-16.667
854.68	25.806
854.98	11.538
855.28	-16.667
855.57	0.000
855.87	16.000
856.17	13.636
856.46	-3.704
856.76	-11.111
857.05	-26.087
857.35	-16.667
857.65	7.692
857.94	23.810
858.24	55.556
858.53	39.130
858.83	-23.529
859.13	11.765
859.42	29.412
859.72	28.571
860.01	65.000
860.31	77.778
860.60	-10.000
860.90	-26.667
861.20	16.667
861.49	0.000
861.79	33.333
862.08	-23.077
862.38	15.625
862.67	11.765
862.97	6.250
863.26	-88.889
863.56	-50.000
863.85	-27.273
864.15	50.000
864.44	-133.333
864.74	14.286
865.03	-6.250
865.33	-90.000
865.62	25.806
865.92	36.364
866.21	30.435
866.51	-7.143
866.80	-200.000
867.10	-16.667
867.39	-83.333
867.69	800.000
867.98	-71.429
868.27	17.647
868.57	-200.000
868.86	-140.000
869.16	33.333
869.45	4.167
869.75	63.636
870.04	14.286
870.33	-50.000
870.63	-42.857
870.92	0.000
871.22	-112.500
871.51	-27.273
871.80	-500.000
872.10	-550.000
>>>>>End Processed Spectral Data<<<<<
