SpectraSuite Data File
++++++++++++++++++++++++++++++++++++
Date: Thu May 14 16:34:33 PDT 2015
User: schluterlab
Dark Spectrum Present: Yes
Reference Spectrum Present: Yes
Number of Sampled Component Spectra: 1
Spectrometers: USB2E3373
Integration Time (usec): 3000 (USB2E3373)
Spectra Averaged: 3 (USB2E3373)
Boxcar Smoothing: 0 (USB2E3373)
Correct for Electrical Dark: No (USB2E3373)
Strobe/Lamp Enabled: No (USB2E3373)
Correct for Detector Non-linearity: No (USB2E3373)
Correct for Stray Light: No (USB2E3373)
Number of Pixels in Processed Spectrum: 2048
>>>>>Begin Processed Spectral Data<<<<<
178.53	0.000
178.91	-0.000
179.29	-700.000
179.67	-400.000
180.04	142.857
180.42	40.000
180.80	280.000
181.18	-1400.000
181.56	-400.000
181.94	50.000
182.31	250.000
182.69	-166.667
183.07	-300.000
183.45	100.000
183.83	-100.000
184.20	-166.667
184.58	500.000
184.96	-200.000
185.34	-11.111
185.72	-80.000
186.09	122.222
186.47	250.000
186.85	240.000
187.23	-33.333
187.61	-1200.000
187.98	160.000
188.36	-0.000
188.74	-275.000
189.12	-233.333
189.49	43.750
189.87	-87.500
190.25	33.333
190.63	40.000
191.00	-111.111
191.38	0.000
191.76	-125.000
192.14	-50.000
192.51	600.000
192.89	33.333
193.27	0.000
193.65	42.857
194.02	-1100.000
194.40	-57.143
194.78	114.286
195.15	0.000
195.53	45.455
195.91	0.000
196.29	-25.000
196.66	-7.692
197.04	-1300.000
197.42	-28.571
197.79	-350.000
198.17	-100.000
198.55	-85.714
198.92	77.778
199.30	-100.000
199.68	72.727
200.05	85.714
200.43	-250.000
200.81	85.714
201.18	0.000
201.56	133.333
201.94	0.000
202.31	33.333
202.69	-88.889
203.07	800.000
203.44	-44.444
203.82	-200.000
204.19	-8.333
204.57	-100.000
204.95	-112.500
205.32	-100.000
205.70	25.000
206.08	-16.667
206.45	166.667
206.83	380.000
207.20	33.333
207.58	40.000
207.96	-100.000
208.33	83.333
208.71	33.333
209.08	-33.333
209.46	0.000
209.84	233.333
210.21	400.000
210.59	200.000
210.96	300.000
211.34	-25.000
211.71	-75.000
212.09	-600.000
212.46	0.000
212.84	350.000
213.22	-140.000
213.59	-100.000
213.97	-30.000
214.34	-233.333
214.72	183.333
215.09	-275.000
215.47	0.000
215.84	42.857
216.22	400.000
216.59	-60.000
216.97	-40.000
217.34	125.000
217.72	0.000
218.09	-350.000
218.47	-25.000
218.84	0.000
219.22	60.000
219.59	-17.647
219.97	10.000
220.34	600.000
220.72	-66.667
221.09	-53.846
221.47	-366.667
221.84	10.000
222.22	-57.143
222.59	0.000
222.97	0.000
223.34	-160.000
223.72	-100.000
224.09	-175.000
224.46	-25.000
224.84	40.000
225.21	-114.286
225.59	-450.000
225.96	0.000
226.34	-3.846
226.71	300.000
227.08	-350.000
227.46	-46.667
227.83	-50.000
228.21	26.316
228.58	150.000
228.95	500.000
229.33	58.333
229.70	-40.000
230.08	5.263
230.45	100.000
230.82	100.000
231.20	7.143
231.57	16.667
231.95	-54.545
232.32	0.000
232.69	25.000
233.07	-50.000
233.44	-64.706
233.81	-30.000
234.19	0.000
234.56	-27.273
234.93	10.345
235.31	26.316
235.68	-11.111
236.05	-20.000
236.43	76.923
236.80	68.000
237.17	3.704
237.55	0.000
237.92	-30.000
238.29	-16.129
238.67	6.818
239.04	33.333
239.41	-7.143
239.79	-10.870
240.16	-5.556
240.53	-17.391
240.91	-7.843
241.28	0.000
241.65	13.433
242.02	13.514
242.40	-6.154
242.77	12.000
243.14	-4.878
243.51	-3.947
243.89	-1.282
244.26	9.901
244.63	9.804
245.00	14.953
245.38	14.912
245.75	-3.540
246.12	1.587
246.49	-5.426
246.87	5.714
247.24	7.947
247.61	8.553
247.98	-2.685
248.36	4.938
248.73	1.227
249.10	7.650
249.47	13.930
249.84	9.948
250.22	8.808
250.59	7.778
250.96	11.364
251.33	3.571
251.70	11.538
252.08	9.167
252.45	9.836
252.82	9.504
253.19	7.031
253.56	8.365
253.94	8.077
254.31	6.439
254.68	8.741
255.05	11.401
255.42	3.401
255.79	7.443
256.16	11.258
256.54	8.278
256.91	10.164
257.28	9.180
257.65	3.503
258.02	7.375
258.39	8.547
258.76	14.067
259.14	6.609
259.51	10.663
259.88	6.799
260.25	10.000
260.62	10.137
260.99	10.656
261.36	9.651
261.73	6.366
262.10	6.044
262.47	10.456
262.85	13.889
263.22	6.494
263.59	7.368
263.96	9.719
264.33	7.673
264.70	6.914
265.07	11.695
265.44	13.379
265.81	12.500
266.18	6.803
266.55	9.598
266.92	7.517
267.29	9.847
267.66	10.200
268.03	8.515
268.40	9.395
268.77	5.923
269.14	6.828
269.51	6.798
269.88	10.861
270.25	10.262
270.62	12.447
270.99	9.899
271.36	13.465
271.73	8.448
272.10	10.020
272.47	9.820
272.84	10.643
273.21	8.216
273.58	9.879
273.95	8.462
274.32	7.795
274.69	11.799
275.06	10.806
275.43	9.612
275.80	11.111
276.17	8.148
276.54	9.701
276.91	7.871
277.28	9.042
277.65	11.311
278.02	10.662
278.39	9.601
278.76	9.315
279.13	8.333
279.50	11.684
279.87	8.587
280.23	7.042
280.60	9.661
280.97	9.539
281.34	8.829
281.71	12.352
282.08	9.302
282.45	8.347
282.82	8.320
283.19	8.078
283.56	9.016
283.92	10.060
284.29	10.427
284.66	9.031
285.03	6.090
285.40	10.510
285.77	8.824
286.14	9.008
286.51	9.741
286.87	8.847
287.24	9.036
287.61	8.670
287.98	8.459
288.35	7.544
288.72	8.136
289.08	8.638
289.45	7.249
289.82	8.434
290.19	8.621
290.56	8.169
290.93	8.274
291.29	8.264
291.66	8.815
292.03	7.191
292.40	9.660
292.77	7.817
293.13	7.578
293.50	6.045
293.87	7.114
294.24	8.400
294.60	8.217
294.97	6.577
295.34	8.835
295.71	7.818
296.08	7.494
296.44	7.108
296.81	7.430
297.18	6.849
297.55	6.368
297.91	5.931
298.28	6.635
298.65	7.967
299.02	7.202
299.38	6.636
299.75	6.659
300.12	6.713
300.48	7.258
300.85	6.974
301.22	7.271
301.59	5.594
301.95	8.814
302.32	8.000
302.69	7.119
303.05	7.291
303.42	7.095
303.79	6.979
304.15	7.045
304.52	6.237
304.89	7.749
305.25	6.418
305.62	6.897
305.99	8.351
306.35	5.645
306.72	7.756
307.09	6.396
307.45	8.075
307.82	7.265
308.19	6.155
308.55	8.197
308.92	6.913
309.29	6.801
309.65	5.556
310.02	5.743
310.38	6.791
310.75	6.699
311.12	6.807
311.48	7.038
311.85	7.787
312.22	6.831
312.58	6.573
312.95	6.883
313.31	9.485
313.68	8.242
314.05	8.401
314.41	8.834
314.78	7.629
315.14	7.985
315.51	7.849
315.87	8.821
316.24	8.219
316.61	8.881
316.97	7.059
317.34	8.554
317.70	8.734
318.07	7.937
318.43	9.354
318.80	9.030
319.16	8.412
319.53	8.398
319.89	8.589
320.26	9.431
320.62	8.156
320.99	9.695
321.35	9.242
321.72	10.884
322.08	10.821
322.45	10.298
322.81	10.650
323.18	10.265
323.54	9.224
323.91	10.409
324.27	11.876
324.64	10.663
325.00	10.365
325.37	10.975
325.73	12.149
326.10	12.976
326.46	12.215
326.83	12.890
327.19	12.677
327.56	13.123
327.92	12.667
328.29	11.855
328.65	12.647
329.01	12.860
329.38	13.058
329.74	12.414
330.11	13.870
330.47	12.974
330.84	13.264
331.20	14.833
331.56	13.258
331.93	14.561
332.29	13.475
332.66	13.953
333.02	14.070
333.38	13.339
333.75	13.721
334.11	14.679
334.48	14.191
334.84	15.208
335.20	13.602
335.57	15.093
335.93	13.636
336.29	13.394
336.66	14.298
337.02	13.462
337.38	14.456
337.75	13.967
338.11	13.709
338.47	14.723
338.84	12.690
339.20	13.479
339.56	13.839
339.93	13.711
340.29	13.527
340.65	13.706
341.02	15.084
341.38	14.551
341.74	12.994
342.11	14.240
342.47	12.867
342.83	14.815
343.20	14.391
343.56	13.873
343.92	13.611
344.28	13.906
344.65	14.341
345.01	14.353
345.37	14.075
345.73	12.860
346.10	14.275
346.46	13.449
346.82	13.708
347.19	14.133
347.55	14.340
347.91	13.447
348.27	14.416
348.63	13.404
349.00	14.467
349.36	14.870
349.72	14.360
350.08	13.670
350.45	13.384
350.81	13.952
351.17	13.308
351.53	13.950
351.89	14.503
352.26	13.881
352.62	14.104
352.98	12.443
353.34	13.368
353.70	13.482
354.07	13.636
354.43	14.199
354.79	14.361
355.15	14.202
355.51	14.547
355.87	14.136
356.24	14.144
356.60	14.412
356.96	14.974
357.32	13.755
357.68	13.982
358.04	14.596
358.40	13.507
358.77	14.108
359.13	14.180
359.49	13.532
359.85	13.706
360.21	14.204
360.57	14.932
360.93	13.540
361.29	13.965
361.66	14.265
362.02	14.753
362.38	14.266
362.74	14.036
363.10	14.580
363.46	15.097
363.82	13.778
364.18	14.778
364.54	14.730
364.90	14.247
365.26	15.586
365.62	15.333
365.98	15.317
366.35	14.899
366.71	15.102
367.07	14.817
367.43	14.773
367.79	14.731
368.15	15.786
368.51	14.953
368.87	15.676
369.23	15.000
369.59	14.413
369.95	14.807
370.31	15.800
370.67	15.199
371.03	15.443
371.39	14.708
371.75	14.924
372.11	15.312
372.47	15.301
372.83	15.249
373.19	15.344
373.55	15.041
373.91	14.383
374.27	15.459
374.63	15.291
374.99	14.456
375.35	15.195
375.71	15.548
376.07	14.913
376.42	15.554
376.78	15.475
377.14	15.845
377.50	14.991
377.86	15.640
378.22	15.629
378.58	15.696
378.94	16.080
379.30	15.641
379.66	15.932
380.02	15.407
380.38	15.726
380.74	15.831
381.09	16.725
381.45	16.250
381.81	16.452
382.17	15.736
382.53	16.140
382.89	15.463
383.25	16.178
383.61	14.988
383.97	16.490
384.32	15.730
384.68	15.835
385.04	16.599
385.40	16.323
385.76	16.530
386.12	16.637
386.48	16.118
386.83	16.329
387.19	15.238
387.55	16.138
387.91	15.868
388.27	15.300
388.62	16.552
388.98	15.623
389.34	16.735
389.70	15.630
390.06	15.690
390.42	16.084
390.77	16.255
391.13	16.373
391.49	16.969
391.85	15.636
392.20	16.074
392.56	16.361
392.92	16.903
393.28	16.031
393.64	15.866
393.99	16.037
394.35	16.647
394.71	16.467
395.07	15.389
395.42	16.219
395.78	17.367
396.14	16.518
396.50	15.677
396.85	16.219
397.21	16.154
397.57	16.019
397.92	16.380
398.28	15.100
398.64	16.304
399.00	15.864
399.35	16.545
399.71	15.652
400.07	16.171
400.42	16.182
400.78	15.451
401.14	15.595
401.49	15.748
401.85	16.337
402.21	15.759
402.57	16.725
402.92	15.957
403.28	16.511
403.63	15.990
403.99	15.380
404.35	15.975
404.70	15.921
405.06	15.489
405.42	15.867
405.77	16.576
406.13	15.721
406.49	15.878
406.84	15.402
407.20	15.595
407.55	14.355
407.91	16.153
408.27	15.371
408.62	15.474
408.98	16.541
409.34	15.249
409.69	16.007
410.05	15.885
410.40	16.067
410.76	15.199
411.11	15.079
411.47	15.479
411.83	15.755
412.18	16.325
412.54	15.531
412.89	16.240
413.25	15.971
413.60	15.393
413.96	15.559
414.31	15.411
414.67	15.921
415.03	15.385
415.38	16.961
415.74	15.272
416.09	15.238
416.45	15.529
416.80	15.728
417.16	15.326
417.51	15.255
417.87	15.757
418.22	15.269
418.58	15.118
418.93	16.531
419.29	16.030
419.64	14.706
420.00	15.134
420.35	15.553
420.71	15.623
421.06	14.836
421.42	15.195
421.77	14.970
422.12	15.328
422.48	14.644
422.83	15.444
423.19	14.907
423.54	15.487
423.90	14.081
424.25	15.893
424.61	14.581
424.96	15.980
425.31	15.393
425.67	15.298
426.02	14.555
426.38	15.270
426.73	15.290
427.09	16.148
427.44	14.528
427.79	15.257
428.15	14.954
428.50	14.888
428.85	14.409
429.21	15.851
429.56	14.413
429.92	15.676
430.27	14.988
430.62	14.704
430.98	14.461
431.33	15.103
431.68	14.464
432.04	15.236
432.39	14.890
432.74	14.840
433.10	15.197
433.45	14.548
433.80	13.895
434.16	15.238
434.51	15.930
434.86	15.364
435.22	15.515
435.57	14.858
435.92	15.415
436.28	14.960
436.63	15.128
436.98	14.922
437.34	15.163
437.69	14.474
438.04	14.490
438.39	15.566
438.75	14.721
439.10	15.275
439.45	15.036
439.81	15.254
440.16	14.906
440.51	15.775
440.86	14.953
441.22	14.952
441.57	15.252
441.92	14.161
442.27	14.798
442.63	15.797
442.98	15.315
443.33	15.413
443.68	15.907
444.03	15.663
444.39	15.950
444.74	16.029
445.09	15.611
445.44	15.543
445.79	15.421
446.15	15.468
446.50	16.176
446.85	15.418
447.20	15.232
447.55	15.324
447.91	15.183
448.26	15.222
448.61	14.984
448.96	15.397
449.31	15.005
449.66	15.142
450.02	14.821
450.37	15.397
450.72	15.124
451.07	14.977
451.42	15.425
451.77	15.731
452.12	15.293
452.47	15.033
452.83	15.484
453.18	15.061
453.53	15.049
453.88	14.964
454.23	14.972
454.58	14.568
454.93	15.413
455.28	14.991
455.63	14.611
455.98	15.084
456.34	15.724
456.69	15.403
457.04	15.189
457.39	15.133
457.74	15.604
458.09	15.431
458.44	15.571
458.79	14.131
459.14	15.469
459.49	14.375
459.84	15.058
460.19	14.436
460.54	15.843
460.89	15.193
461.24	14.943
461.59	15.661
461.94	14.204
462.29	15.118
462.64	14.906
462.99	15.129
463.34	15.185
463.69	16.178
464.04	16.176
464.39	15.359
464.74	15.393
465.09	14.821
465.44	14.700
465.79	15.071
466.14	14.382
466.49	14.842
466.84	15.096
467.19	15.665
467.54	15.100
467.89	15.345
468.24	14.737
468.59	14.765
468.94	14.918
469.29	14.817
469.64	15.003
469.99	14.468
470.34	15.842
470.68	16.063
471.03	15.521
471.38	15.631
471.73	14.889
472.08	16.117
472.43	15.352
472.78	15.113
473.13	15.613
473.48	15.891
473.83	15.844
474.17	16.002
474.52	16.055
474.87	15.559
475.22	15.662
475.57	15.005
475.92	15.729
476.27	15.282
476.61	15.109
476.96	15.328
477.31	15.743
477.66	16.579
478.01	15.455
478.36	15.404
478.70	15.468
479.05	15.235
479.40	15.745
479.75	16.234
480.10	15.964
480.45	15.770
480.79	15.782
481.14	15.579
481.49	15.720
481.84	15.666
482.19	15.828
482.53	16.135
482.88	15.950
483.23	16.096
483.58	15.022
483.92	15.514
484.27	15.199
484.62	15.553
484.97	15.902
485.31	15.065
485.66	14.637
486.01	13.887
486.36	14.082
486.70	14.949
487.05	15.234
487.40	15.858
487.75	15.827
488.09	16.145
488.44	15.629
488.79	16.492
489.13	15.387
489.48	15.184
489.83	14.889
490.17	14.905
490.52	15.517
490.87	15.609
491.22	15.641
491.56	15.017
491.91	15.395
492.26	16.313
492.60	15.479
492.95	15.226
493.30	14.792
493.64	15.287
493.99	15.351
494.34	14.765
494.68	15.375
495.03	15.374
495.37	15.490
495.72	15.964
496.07	15.600
496.41	15.058
496.76	15.721
497.11	15.414
497.45	15.710
497.80	16.037
498.14	15.692
498.49	15.119
498.84	15.814
499.18	16.014
499.53	15.830
499.87	16.484
500.22	14.737
500.56	16.014
500.91	16.018
501.26	15.864
501.60	14.980
501.95	15.762
502.29	15.709
502.64	16.222
502.98	15.746
503.33	15.119
503.67	14.915
504.02	15.499
504.36	16.443
504.71	15.250
505.06	15.780
505.40	16.225
505.75	15.938
506.09	16.022
506.44	16.574
506.78	16.330
507.13	16.505
507.47	16.390
507.82	16.477
508.16	16.922
508.51	15.518
508.85	16.580
509.19	16.580
509.54	16.523
509.88	16.756
510.23	16.901
510.57	18.028
510.92	17.320
511.26	16.979
511.61	16.321
511.95	16.545
512.30	17.184
512.64	16.392
512.98	16.008
513.33	17.641
513.67	17.440
514.02	17.527
514.36	17.749
514.70	18.333
515.05	18.144
515.39	18.320
515.74	19.141
516.08	18.067
516.42	19.152
516.77	17.981
517.11	17.586
517.46	18.717
517.80	19.027
518.14	19.042
518.49	18.438
518.83	18.361
519.17	17.986
519.52	18.973
519.86	19.641
520.20	20.075
520.55	19.551
520.89	19.876
521.23	18.984
521.58	19.492
521.92	18.754
522.26	19.359
522.61	19.676
522.95	18.916
523.29	19.885
523.64	18.946
523.98	20.764
524.32	21.547
524.66	20.091
525.01	19.026
525.35	20.103
525.69	19.954
526.04	19.460
526.38	20.402
526.72	20.531
527.06	20.352
527.41	20.350
527.75	20.606
528.09	20.307
528.43	20.071
528.78	19.711
529.12	19.323
529.46	20.180
529.80	21.510
530.15	20.348
530.49	19.692
530.83	21.429
531.17	20.848
531.51	20.277
531.86	21.154
532.20	21.524
532.54	19.928
532.88	20.606
533.22	20.566
533.57	21.177
533.91	20.314
534.25	20.237
534.59	21.667
534.93	19.921
535.27	20.451
535.62	21.546
535.96	21.383
536.30	20.035
536.64	21.441
536.98	22.017
537.32	21.728
537.66	20.649
538.01	20.363
538.35	20.463
538.69	20.313
539.03	22.256
539.37	20.730
539.71	21.081
540.05	20.983
540.39	20.660
540.73	20.826
541.07	21.275
541.42	20.614
541.76	21.056
542.10	21.049
542.44	19.732
542.78	22.202
543.12	20.918
543.46	20.940
543.80	20.683
544.14	20.467
544.48	20.922
544.82	20.826
545.16	21.109
545.50	20.551
545.84	20.698
546.18	21.235
546.52	21.975
546.86	20.126
547.20	21.565
547.54	21.348
547.88	20.253
548.22	20.819
548.56	21.065
548.90	20.060
549.24	20.912
549.58	20.063
549.92	20.344
550.26	20.712
550.60	21.634
550.94	21.734
551.28	21.518
551.62	21.429
551.96	20.971
552.30	20.969
552.64	20.411
552.98	21.023
553.32	21.350
553.66	21.415
554.00	20.555
554.34	20.914
554.68	21.110
555.02	21.091
555.36	21.631
555.69	20.179
556.03	20.492
556.37	20.588
556.71	20.609
557.05	21.150
557.39	19.841
557.73	20.476
558.07	21.258
558.41	20.000
558.75	20.554
559.08	20.946
559.42	21.468
559.76	20.556
560.10	21.165
560.44	20.580
560.78	21.062
561.12	20.012
561.45	20.681
561.79	20.574
562.13	21.319
562.47	20.715
562.81	20.190
563.15	20.139
563.48	20.634
563.82	20.254
564.16	20.170
564.50	19.964
564.84	19.882
565.17	19.941
565.51	20.196
565.85	19.952
566.19	20.046
566.52	20.070
566.86	20.430
567.20	19.086
567.54	18.534
567.88	19.266
568.21	19.121
568.55	18.369
568.89	19.292
569.23	18.716
569.56	18.132
569.90	18.247
570.24	18.212
570.57	17.864
570.91	17.453
571.25	17.819
571.59	17.701
571.92	17.751
572.26	17.708
572.60	17.417
572.93	18.202
573.27	16.971
573.61	17.575
573.95	17.213
574.28	16.865
574.62	17.190
574.96	16.762
575.29	17.405
575.63	16.701
575.97	17.222
576.30	17.641
576.64	17.132
576.98	17.289
577.31	16.557
577.65	16.591
577.98	16.529
578.32	16.032
578.66	16.453
578.99	16.424
579.33	16.785
579.67	16.863
580.00	16.790
580.34	17.147
580.67	16.593
581.01	16.681
581.35	16.754
581.68	16.273
582.02	16.596
582.35	16.458
582.69	16.524
583.02	16.838
583.36	16.636
583.70	17.178
584.03	16.991
584.37	17.329
584.70	16.846
585.04	16.764
585.37	16.593
585.71	16.397
586.04	16.402
586.38	17.108
586.72	16.245
587.05	16.142
587.39	16.804
587.72	16.794
588.06	16.804
588.39	16.654
588.73	16.402
589.06	16.817
589.40	17.455
589.73	17.192
590.07	17.275
590.40	17.512
590.73	17.215
591.07	17.722
591.40	17.379
591.74	17.329
592.07	17.337
592.41	16.956
592.74	16.862
593.08	16.783
593.41	17.060
593.75	15.833
594.08	17.086
594.41	17.083
594.75	16.606
595.08	16.622
595.42	16.916
595.75	16.984
596.09	16.842
596.42	17.306
596.75	17.136
597.09	17.980
597.42	16.845
597.75	16.895
598.09	17.183
598.42	17.250
598.76	16.049
599.09	16.768
599.42	16.192
599.76	16.375
600.09	16.783
600.42	16.049
600.76	16.149
601.09	15.964
601.42	16.787
601.76	16.241
602.09	16.226
602.42	16.539
602.76	16.531
603.09	16.740
603.42	16.510
603.76	16.209
604.09	16.430
604.42	16.661
604.76	16.629
605.09	16.953
605.42	16.746
605.75	16.462
606.09	16.051
606.42	16.089
606.75	15.667
607.09	15.937
607.42	16.917
607.75	16.374
608.08	16.772
608.42	16.324
608.75	16.874
609.08	16.002
609.41	16.630
609.75	16.339
610.08	16.755
610.41	15.888
610.74	16.639
611.07	17.140
611.41	16.547
611.74	17.136
612.07	16.597
612.40	16.302
612.73	17.017
613.07	17.164
613.40	17.324
613.73	16.610
614.06	17.272
614.39	16.861
614.72	16.497
615.06	16.651
615.39	16.336
615.72	16.540
616.05	16.901
616.38	16.246
616.71	16.719
617.05	16.028
617.38	17.764
617.71	16.307
618.04	17.485
618.37	16.995
618.70	16.742
619.03	16.786
619.36	17.139
619.69	16.848
620.03	17.577
620.36	16.994
620.69	16.595
621.02	17.585
621.35	17.489
621.68	17.932
622.01	17.438
622.34	17.294
622.67	17.457
623.00	16.869
623.33	17.452
623.66	17.056
623.99	16.327
624.32	18.064
624.65	16.731
624.99	16.515
625.32	17.505
625.65	17.465
625.98	16.881
626.31	17.931
626.64	17.729
626.97	17.779
627.30	17.312
627.63	18.005
627.96	17.568
628.29	17.665
628.62	16.625
628.95	18.843
629.28	16.653
629.61	17.761
629.94	17.238
630.26	17.373
630.59	17.876
630.92	16.970
631.25	18.426
631.58	17.608
631.91	17.245
632.24	17.195
632.57	17.932
632.90	18.455
633.23	17.857
633.56	17.653
633.89	16.322
634.22	19.127
634.55	18.580
634.88	19.264
635.20	19.268
635.53	19.774
635.86	18.852
636.19	19.406
636.52	18.143
636.85	18.080
637.18	18.399
637.51	18.710
637.83	19.823
638.16	19.470
638.49	17.840
638.82	17.587
639.15	17.297
639.48	19.977
639.81	17.898
640.13	18.021
640.46	17.091
640.79	17.279
641.12	17.516
641.45	18.695
641.77	20.154
642.10	17.979
642.43	20.213
642.76	18.157
643.09	18.082
643.41	17.647
643.74	19.448
644.07	19.862
644.40	18.953
644.73	18.723
645.05	18.062
645.38	20.000
645.71	19.208
646.04	19.082
646.36	18.832
646.69	19.325
647.02	18.196
647.35	20.458
647.67	20.451
648.00	18.471
648.33	18.318
648.66	17.832
648.98	17.687
649.31	17.321
649.64	17.795
649.96	19.098
650.29	17.107
650.62	18.105
650.94	18.168
651.27	16.766
651.60	19.298
651.92	17.021
652.25	19.682
652.58	17.331
652.90	17.006
653.23	19.577
653.56	17.546
653.88	18.680
654.21	17.183
654.54	18.064
654.86	17.989
655.19	15.684
655.52	16.201
655.84	13.490
656.17	14.734
656.49	20.660
656.82	23.153
657.15	18.325
657.47	14.452
657.80	10.848
658.13	8.693
658.45	11.764
658.78	15.101
659.10	14.590
659.43	14.841
659.75	15.282
660.08	14.902
660.41	15.302
660.73	15.621
661.06	17.327
661.38	17.225
661.71	17.931
662.03	19.929
662.36	18.247
662.68	18.386
663.01	18.230
663.33	19.093
663.66	21.978
663.98	18.846
664.31	19.512
664.63	17.919
664.96	18.875
665.28	16.334
665.61	17.483
665.93	18.036
666.26	18.638
666.58	14.576
666.91	19.252
667.23	18.857
667.56	17.554
667.88	16.000
668.21	17.383
668.53	15.637
668.86	17.485
669.18	17.108
669.50	19.085
669.83	16.000
670.15	18.898
670.48	18.849
670.80	15.296
671.13	16.446
671.45	16.142
671.77	20.716
672.10	17.500
672.42	16.343
672.75	15.207
673.07	15.373
673.39	14.792
673.72	19.295
674.04	16.552
674.37	18.784
674.69	19.224
675.01	15.429
675.34	16.985
675.66	17.603
675.98	18.470
676.31	16.797
676.63	19.772
676.95	18.582
677.28	16.734
677.60	15.354
677.92	17.274
678.25	18.647
678.57	17.260
678.89	18.601
679.22	17.422
679.54	15.043
679.86	16.441
680.18	14.760
680.51	16.667
680.83	13.912
681.15	15.345
681.48	17.098
681.80	16.926
682.12	15.035
682.44	16.528
682.77	17.199
683.09	17.803
683.41	16.473
683.73	17.647
684.06	16.236
684.38	14.490
684.70	17.774
685.02	17.040
685.34	14.809
685.67	14.826
685.99	14.264
686.31	14.680
686.63	15.166
686.96	15.300
687.28	17.101
687.60	16.667
687.92	14.469
688.24	15.693
688.56	14.655
688.89	16.878
689.21	16.438
689.53	13.922
689.85	14.201
690.17	15.185
690.49	17.131
690.82	15.446
691.14	13.563
691.46	16.635
691.78	16.022
692.10	15.229
692.42	14.821
692.74	15.245
693.06	15.185
693.39	16.509
693.71	14.474
694.03	17.658
694.35	16.190
694.67	17.248
694.99	16.809
695.31	16.998
695.63	14.502
695.95	14.493
696.27	18.681
696.59	15.044
696.91	15.991
697.23	16.044
697.56	12.424
697.88	15.152
698.20	14.501
698.52	16.856
698.84	15.800
699.16	15.714
699.48	13.598
699.80	13.830
700.12	15.066
700.44	12.673
700.76	16.152
701.08	18.160
701.40	15.544
701.72	14.428
702.04	15.508
702.36	13.613
702.68	15.159
703.00	14.670
703.32	15.271
703.64	15.648
703.96	16.945
704.28	14.988
704.60	17.975
704.91	18.367
705.23	16.712
705.55	12.813
705.87	19.091
706.19	18.098
706.51	13.855
706.83	13.256
707.15	15.079
707.47	12.850
707.79	12.664
708.11	12.076
708.43	13.333
708.74	11.161
709.06	15.777
709.38	15.023
709.70	18.114
710.02	15.245
710.34	17.819
710.66	11.453
710.98	16.393
711.29	14.286
711.61	14.972
711.93	13.390
712.25	12.432
712.57	17.994
712.89	15.882
713.20	13.905
713.52	15.318
713.84	13.370
714.16	16.842
714.48	13.660
714.80	14.286
715.11	15.223
715.43	12.732
715.75	15.526
716.07	13.812
716.39	15.847
716.70	14.157
717.02	16.066
717.34	12.544
717.66	14.094
717.97	14.726
718.29	16.151
718.61	11.184
718.93	11.003
719.24	13.665
719.56	14.110
719.88	11.111
720.20	14.194
720.51	14.596
720.83	13.125
721.15	8.882
721.46	10.616
721.78	13.667
722.10	14.887
722.42	12.752
722.73	13.548
723.05	12.281
723.37	13.194
723.68	14.695
724.00	14.079
724.32	9.155
724.63	12.587
724.95	14.184
725.27	11.498
725.58	12.367
725.90	18.966
726.22	13.793
726.53	15.584
726.85	13.836
727.16	13.897
727.48	14.067
727.80	12.252
728.11	13.428
728.43	16.162
728.74	9.699
729.06	9.603
729.38	14.286
729.69	13.087
730.01	14.583
730.32	8.485
730.64	10.063
730.96	11.180
731.27	16.201
731.59	14.286
731.90	10.130
732.22	14.062
732.53	9.669
732.85	14.857
733.16	12.903
733.48	9.146
733.80	13.649
734.11	13.960
734.43	15.135
734.74	16.456
735.06	12.312
735.37	11.351
735.69	10.270
736.00	12.429
736.32	12.668
736.63	12.500
736.95	12.069
737.26	11.212
737.58	9.091
737.89	13.529
738.21	11.009
738.52	10.820
738.83	16.041
739.15	14.184
739.46	12.925
739.78	13.497
740.09	10.029
740.41	16.035
740.72	11.333
741.04	12.945
741.35	12.982
741.66	12.549
741.98	14.754
742.29	8.787
742.61	16.228
742.92	13.462
743.23	13.718
743.55	11.240
743.86	15.200
744.18	9.091
744.49	14.346
744.80	15.638
745.12	12.658
745.43	17.073
745.74	10.776
746.06	11.017
746.37	9.283
746.68	15.041
747.00	11.667
747.31	11.588
747.62	16.923
747.94	12.955
748.25	10.843
748.56	9.388
748.88	9.402
749.19	15.086
749.50	9.091
749.82	14.859
750.13	16.014
750.44	8.667
750.75	10.769
751.07	11.077
751.38	11.672
751.69	11.182
752.01	12.945
752.32	12.418
752.63	13.946
752.94	8.304
753.26	8.178
753.57	9.259
753.88	11.985
754.19	10.932
754.51	9.325
754.82	14.148
755.13	11.475
755.44	8.532
755.75	14.803
756.07	14.030
756.38	12.579
756.69	13.253
757.00	8.587
757.31	11.749
757.63	8.951
757.94	11.972
758.25	12.415
758.56	11.765
758.87	9.091
759.18	11.200
759.50	11.331
759.81	12.885
760.12	11.590
760.43	11.458
760.74	10.591
761.05	9.500
761.36	9.398
761.67	10.152
761.99	13.514
762.30	7.927
762.61	13.861
762.92	10.075
763.23	16.105
763.54	13.309
763.85	10.997
764.16	12.458
764.47	10.211
764.78	14.058
765.10	11.144
765.41	12.821
765.72	10.053
766.03	13.559
766.34	10.031
766.65	4.530
766.96	11.952
767.27	8.295
767.58	12.935
767.89	16.827
768.20	11.268
768.51	16.667
768.82	10.040
769.13	12.500
769.44	6.538
769.75	13.718
770.06	12.692
770.37	14.173
770.68	8.936
770.99	5.668
771.30	12.593
771.61	13.308
771.92	8.889
772.23	11.336
772.54	7.870
772.85	16.129
773.16	10.952
773.47	8.995
773.78	4.324
774.09	10.795
774.39	15.500
774.70	10.383
775.01	9.756
775.32	10.588
775.63	9.816
775.94	7.006
776.25	12.258
776.56	18.590
776.87	14.966
777.18	11.034
777.48	3.497
777.79	12.838
778.10	5.147
778.41	15.972
778.72	15.172
779.03	13.580
779.34	6.667
779.65	12.435
779.95	14.444
780.26	4.545
780.57	13.548
780.88	16.667
781.19	18.065
781.50	15.882
781.80	15.054
782.11	13.757
782.42	5.556
782.73	8.982
783.04	11.732
783.34	9.697
783.65	8.497
783.96	10.559
784.27	9.524
784.57	5.960
784.88	15.714
785.19	11.024
785.50	14.173
785.81	9.774
786.11	11.538
786.42	5.036
786.73	11.511
787.04	12.030
787.34	3.279
787.65	9.600
787.96	10.448
788.26	15.385
788.57	23.077
788.88	13.158
789.19	13.072
789.49	14.384
789.80	12.766
790.11	15.748
790.41	8.594
790.72	5.085
791.03	3.883
791.33	9.565
791.64	6.140
791.95	3.571
792.25	8.571
792.56	12.500
792.87	4.167
793.17	8.929
793.48	5.208
793.79	-7.229
794.09	2.752
794.40	11.009
794.70	6.803
795.01	14.286
795.32	6.849
795.62	13.380
795.93	6.061
796.23	8.197
796.54	8.929
796.85	5.319
797.15	3.261
797.46	12.329
797.76	6.250
798.07	15.217
798.37	7.216
798.68	7.792
798.99	16.092
799.29	3.371
799.60	6.383
799.90	8.434
800.21	0.000
800.51	-13.433
800.82	4.412
801.12	-8.219
801.43	-11.765
801.73	5.085
802.04	12.121
802.34	-13.333
802.65	25.424
802.95	14.925
803.26	8.475
803.56	8.219
803.87	5.714
804.17	4.110
804.48	-14.035
804.78	9.722
805.09	-13.793
805.39	9.459
805.70	9.859
806.00	12.195
806.30	12.048
806.61	9.589
806.91	16.346
807.22	7.778
807.52	1.149
807.83	29.167
808.13	15.663
808.43	0.000
808.74	12.500
809.04	2.941
809.35	8.000
809.65	-5.714
809.95	10.959
810.26	-15.789
810.56	13.793
810.86	10.294
811.17	-8.772
811.47	-6.557
811.77	0.000
812.08	-3.390
812.38	13.333
812.69	17.241
812.99	5.660
813.29	2.564
813.59	32.000
813.90	7.018
814.20	0.000
814.50	16.901
814.81	11.538
815.11	21.311
815.41	5.970
815.72	3.448
816.02	14.286
816.32	31.111
816.62	18.182
816.93	8.889
817.23	9.259
817.53	12.766
817.84	23.810
818.14	11.765
818.44	8.163
818.74	0.000
819.04	-5.128
819.35	0.000
819.65	-11.538
819.95	-3.774
820.25	2.222
820.56	-2.381
820.86	-9.375
821.16	0.000
821.46	4.651
821.76	-4.000
822.07	1.786
822.37	4.348
822.67	2.128
822.97	-35.135
823.27	7.500
823.57	12.245
823.88	2.222
824.18	27.500
824.48	-6.667
824.78	-36.000
825.08	15.152
825.38	17.778
825.69	31.915
825.99	5.556
826.29	-40.000
826.59	-5.128
826.89	-11.628
827.19	0.000
827.49	2.941
827.79	16.667
828.09	-16.216
828.39	-10.000
828.70	2.439
829.00	-16.279
829.30	7.143
829.60	17.647
829.90	19.565
830.20	0.000
830.50	-31.034
830.80	-38.889
831.10	-19.231
831.40	8.824
831.70	4.762
832.00	22.581
832.30	-88.235
832.60	-29.167
832.90	-76.923
833.20	-5.263
833.50	-75.000
833.80	-47.368
834.10	-57.143
834.40	2.778
834.70	3.125
835.00	-28.571
835.30	0.000
835.60	-13.333
835.90	-40.000
836.20	-40.909
836.50	12.000
836.80	-24.242
837.10	11.111
837.40	-14.815
837.70	-56.250
838.00	28.571
838.30	-39.130
838.60	-13.793
838.90	-21.429
839.19	-26.087
839.49	-83.333
839.79	-4.348
840.09	0.000
840.39	-30.000
840.69	-6.452
840.99	-17.857
841.29	46.667
841.59	52.632
841.88	28.205
842.18	15.385
842.48	-10.000
842.78	-35.000
843.08	-6.667
843.38	12.903
843.68	-61.111
843.97	35.294
844.27	-37.500
844.57	-31.579
844.87	0.000
845.17	-6.667
845.47	28.571
845.76	9.524
846.06	-22.222
846.36	-41.176
846.66	15.385
846.96	-53.333
847.25	-17.647
847.55	39.130
847.85	-10.000
848.15	-41.176
848.44	-27.273
848.74	19.048
849.04	-58.333
849.34	-50.000
849.63	13.043
849.93	650.000
850.23	20.000
850.53	7.692
850.82	0.000
851.12	13.636
851.42	0.000
851.71	7.692
852.01	-55.000
852.31	-46.154
852.61	-31.579
852.90	33.333
853.20	-11.111
853.50	-88.889
853.79	-19.048
854.09	-40.909
854.39	-16.667
854.68	16.129
854.98	-3.846
855.28	0.000
855.57	-17.857
855.87	16.000
856.17	-27.273
856.46	29.630
856.76	11.111
857.05	-21.739
857.35	-20.833
857.65	-38.462
857.94	14.286
858.24	-3.704
858.53	4.348
858.83	29.412
859.13	-11.765
859.42	0.000
859.72	35.714
860.01	10.000
860.31	-100.000
860.60	30.000
860.90	13.333
861.20	11.111
861.49	-23.077
861.79	6.667
862.08	-46.154
862.38	34.375
862.67	0.000
862.97	-56.250
863.26	-211.111
863.56	50.000
863.85	27.273
864.15	27.778
864.44	133.333
864.74	-28.571
865.03	25.000
865.33	-90.000
865.62	9.677
865.92	-31.818
866.21	4.348
866.51	-42.857
866.80	-180.000
867.10	-25.000
867.39	-66.667
867.69	1300.000
867.98	-57.143
868.27	17.647
868.57	-1100.000
868.86	-110.000
869.16	4.762
869.45	4.167
869.75	-63.636
870.04	-85.714
870.33	-33.333
870.63	-271.429
870.92	50.000
871.22	-175.000
871.51	9.091
871.80	-633.333
872.10	-300.000
>>>>>End Processed Spectral Data<<<<<
