SpectraSuite Data File
++++++++++++++++++++++++++++++++++++
Date: Thu May 14 16:38:04 PDT 2015
User: schluterlab
Dark Spectrum Present: Yes
Reference Spectrum Present: Yes
Number of Sampled Component Spectra: 1
Spectrometers: USB2E3373
Integration Time (usec): 3000 (USB2E3373)
Spectra Averaged: 3 (USB2E3373)
Boxcar Smoothing: 0 (USB2E3373)
Correct for Electrical Dark: No (USB2E3373)
Strobe/Lamp Enabled: No (USB2E3373)
Correct for Detector Non-linearity: No (USB2E3373)
Correct for Stray Light: No (USB2E3373)
Number of Pixels in Processed Spectrum: 2048
>>>>>Begin Processed Spectral Data<<<<<
178.53	0.000
178.91	42.857
179.29	-1200.000
179.67	-300.000
180.04	114.286
180.42	-10.000
180.80	20.000
181.18	-900.000
181.56	400.000
181.94	150.000
182.31	-100.000
182.69	300.000
183.07	-250.000
183.45	150.000
183.83	50.000
184.20	33.333
184.58	-0.000
184.96	-100.000
185.34	-11.111
185.72	-180.000
186.09	133.333
186.47	250.000
186.85	200.000
187.23	-111.111
187.61	0.000
187.98	120.000
188.36	325.000
188.74	-50.000
189.12	133.333
189.49	-12.500
189.87	-87.500
190.25	11.111
190.63	60.000
191.00	-122.222
191.38	0.000
191.76	-50.000
192.14	-50.000
192.51	-150.000
192.89	166.667
193.27	0.000
193.65	-28.571
194.02	-1200.000
194.40	-157.143
194.78	100.000
195.15	0.000
195.53	9.091
195.91	0.000
196.29	100.000
196.66	-38.462
197.04	-1200.000
197.42	28.571
197.79	-650.000
198.17	-187.500
198.55	-100.000
198.92	44.444
199.30	-50.000
199.68	45.455
200.05	14.286
200.43	-300.000
200.81	142.857
201.18	0.000
201.56	200.000
201.94	0.000
202.31	200.000
202.69	-144.444
203.07	300.000
203.44	-33.333
203.82	-275.000
204.19	-8.333
204.57	-100.000
204.95	-25.000
205.32	-900.000
205.70	175.000
206.08	-133.333
206.45	0.000
206.83	280.000
207.20	-133.333
207.58	-200.000
207.96	-183.333
208.33	116.667
208.71	91.667
209.08	16.667
209.46	0.000
209.84	116.667
210.21	-100.000
210.59	450.000
210.96	-66.667
211.34	-50.000
211.71	0.000
212.09	-300.000
212.46	0.000
212.84	550.000
213.22	-160.000
213.59	50.000
213.97	-30.000
214.34	-200.000
214.72	50.000
215.09	-100.000
215.47	0.000
215.84	157.143
216.22	350.000
216.59	40.000
216.97	-220.000
217.34	75.000
217.72	75.000
218.09	-200.000
218.47	-200.000
218.84	0.000
219.22	20.000
219.59	58.824
219.97	40.000
220.34	50.000
220.72	-22.222
221.09	69.231
221.47	-266.667
221.84	-70.000
222.22	-14.286
222.59	0.000
222.97	25.000
223.34	-200.000
223.72	-900.000
224.09	-250.000
224.46	-125.000
224.84	-20.000
225.21	-71.429
225.59	-225.000
225.96	-25.000
226.34	34.615
226.71	-33.333
227.08	-400.000
227.46	-13.333
227.83	-325.000
228.21	5.263
228.58	87.500
228.95	750.000
229.33	-33.333
229.70	0.000
230.08	68.421
230.45	60.000
230.82	0.000
231.20	0.000
231.57	16.667
231.95	-45.455
232.32	0.000
232.69	5.000
233.07	0.000
233.44	17.647
233.81	10.000
234.19	44.444
234.56	50.000
234.93	37.931
235.31	21.053
235.68	44.444
236.05	-20.000
236.43	53.846
236.80	60.000
237.17	0.000
237.55	18.182
237.92	-90.000
238.29	48.387
238.67	11.364
239.04	38.889
239.41	11.905
239.79	4.348
240.16	9.259
240.53	23.913
240.91	19.608
241.28	34.426
241.65	26.866
242.02	29.730
242.40	21.538
242.77	25.333
243.14	6.098
243.51	9.211
243.89	7.692
244.26	28.713
244.63	31.373
245.00	28.972
245.38	20.175
245.75	20.354
246.12	18.254
246.49	17.054
246.87	25.714
247.24	17.219
247.61	18.421
247.98	19.463
248.36	21.605
248.73	22.086
249.10	20.765
249.47	24.876
249.84	33.508
250.22	19.171
250.59	21.111
250.96	25.455
251.33	16.837
251.70	20.940
252.08	25.833
252.45	18.443
252.82	21.074
253.19	21.094
253.56	25.095
253.94	21.923
254.31	28.788
254.68	27.273
255.05	24.430
255.42	24.150
255.79	21.359
256.16	21.523
256.54	19.536
256.91	26.230
257.28	27.213
257.65	26.115
258.02	24.189
258.39	25.356
258.76	24.465
259.14	22.701
259.51	22.190
259.88	25.496
260.25	23.333
260.62	22.740
260.99	26.230
261.36	24.129
261.73	20.955
262.10	26.099
262.47	20.375
262.85	26.263
263.22	24.156
263.59	21.579
263.96	24.808
264.33	24.041
264.70	23.210
265.07	28.401
265.44	26.757
265.81	22.685
266.18	24.943
266.55	23.437
266.92	23.918
267.29	26.915
267.66	25.055
268.03	25.109
268.40	24.008
268.77	27.107
269.14	22.247
269.51	24.342
269.88	24.795
270.25	25.352
270.62	25.738
270.99	27.273
271.36	25.545
271.73	22.986
272.10	26.052
272.47	25.050
272.84	23.494
273.21	25.050
273.58	23.790
273.95	23.269
274.32	22.053
274.69	23.985
275.06	23.443
275.43	23.290
275.80	23.633
276.17	21.667
276.54	22.761
276.91	20.930
277.28	21.881
277.65	26.212
278.02	23.346
278.39	24.638
278.76	24.077
279.13	24.291
279.50	24.570
279.87	24.150
280.23	19.014
280.60	23.898
280.97	23.684
281.34	25.127
281.71	24.704
282.08	23.588
282.45	26.023
282.82	21.978
283.19	20.032
283.56	23.443
283.92	23.574
284.29	23.855
284.66	24.466
285.03	20.833
285.40	23.338
285.77	22.755
286.14	22.901
286.51	24.201
286.87	22.433
287.24	22.139
287.61	24.215
287.98	21.148
288.35	21.893
288.72	22.041
289.08	22.987
289.45	20.414
289.82	20.181
290.19	20.690
290.56	24.225
290.93	21.398
291.29	21.625
291.66	21.350
292.03	20.896
292.40	22.041
292.77	19.946
293.13	20.162
293.50	19.448
293.87	19.463
294.24	21.867
294.60	20.607
294.97	17.315
295.34	19.974
295.71	18.285
296.08	19.638
296.44	18.015
296.81	18.270
297.18	19.054
297.55	18.042
297.91	18.861
298.28	17.654
298.65	20.095
299.02	16.883
299.38	18.993
299.75	17.874
300.12	17.940
300.48	18.318
300.85	17.548
301.22	19.687
301.59	16.895
301.95	16.271
302.32	18.111
302.69	15.882
303.05	17.628
303.42	17.627
303.79	17.917
304.15	17.771
304.52	16.913
304.89	16.963
305.25	16.874
305.62	18.077
305.99	17.526
306.35	17.843
306.72	16.753
307.09	16.751
307.45	17.909
307.82	18.163
308.19	17.154
308.55	18.129
308.92	18.306
309.29	16.858
309.65	16.862
310.02	16.832
310.38	17.618
310.75	18.252
311.12	18.600
311.48	17.204
311.85	17.664
312.22	18.216
312.58	17.934
312.95	16.444
313.31	18.790
313.68	18.864
314.05	19.603
314.41	18.579
314.78	19.074
315.14	19.601
315.51	18.837
315.87	19.352
316.24	19.361
316.61	19.716
316.97	18.914
317.34	17.813
317.70	20.437
318.07	20.899
318.43	19.473
318.80	20.987
319.16	20.773
319.53	20.566
319.89	19.457
320.26	20.641
320.62	21.011
320.99	20.868
321.35	22.181
321.72	23.814
322.08	21.731
322.45	23.216
322.81	22.383
323.18	23.186
323.54	24.483
323.91	25.000
324.27	23.494
324.64	25.105
325.00	24.295
325.37	25.635
325.73	26.694
326.10	25.953
326.46	26.629
326.83	27.382
327.19	26.535
327.56	28.617
327.92	27.537
328.29	28.387
328.65	28.141
329.01	28.849
329.38	29.065
329.74	30.051
330.11	31.164
330.47	29.149
330.84	30.835
331.20	29.333
331.56	29.896
331.93	31.883
332.29	30.678
332.66	29.900
333.02	30.402
333.38	29.866
333.75	29.966
334.11	30.525
334.48	30.363
334.84	31.521
335.20	30.479
335.57	31.450
335.93	30.744
336.29	31.281
336.66	29.857
337.02	32.023
337.38	31.718
337.75	30.413
338.11	30.530
338.47	31.348
338.84	30.795
339.20	31.340
339.56	29.901
339.93	31.445
340.29	30.676
340.65	30.170
341.02	31.285
341.38	32.821
341.74	30.670
342.11	31.537
342.47	30.262
342.83	32.126
343.20	32.134
343.56	30.874
343.92	31.145
344.28	31.641
344.65	31.550
345.01	31.435
345.37	31.415
345.73	30.320
346.10	31.591
346.46	31.329
346.82	31.685
347.19	32.315
347.55	32.018
347.91	31.724
348.27	31.866
348.63	30.998
349.00	31.171
349.36	31.375
349.72	31.920
350.08	32.244
350.45	31.711
350.81	32.202
351.17	31.278
351.53	32.600
351.89	32.498
352.26	31.940
352.62	31.716
352.98	32.137
353.34	31.143
353.70	33.359
354.07	32.489
354.43	32.574
354.79	31.189
355.15	30.979
355.51	32.895
355.87	32.311
356.24	33.764
356.60	32.373
356.96	33.062
357.32	32.565
357.68	31.918
358.04	32.410
358.40	32.836
358.77	32.310
359.13	32.422
359.49	32.193
359.85	32.270
360.21	32.927
360.57	32.233
360.93	32.511
361.29	32.772
361.66	32.875
362.02	33.890
362.38	33.450
362.74	33.380
363.10	32.600
363.46	33.518
363.82	33.807
364.18	33.638
364.54	34.509
364.90	33.846
365.26	33.931
365.62	34.667
365.98	34.173
366.35	33.691
366.71	34.490
367.07	33.694
367.43	34.077
367.79	34.904
368.15	35.050
368.51	33.897
368.87	33.899
369.23	33.867
369.59	34.768
369.95	34.753
370.31	34.841
370.67	34.869
371.03	35.180
371.39	34.721
371.75	34.457
372.11	35.027
372.47	34.936
372.83	35.798
373.19	34.556
373.55	34.282
373.91	34.833
374.27	36.028
374.63	35.183
374.99	35.013
375.35	36.948
375.71	35.226
376.07	35.571
376.42	35.516
376.78	36.109
377.14	33.749
377.50	36.306
377.86	34.667
378.22	34.910
378.58	36.147
378.94	35.915
379.30	36.204
379.66	35.920
380.02	36.238
380.38	36.348
380.74	36.563
381.09	36.934
381.45	36.080
381.81	37.295
382.17	37.352
382.53	37.544
382.89	36.174
383.25	36.753
383.61	36.979
383.97	37.044
384.32	37.081
384.68	36.543
385.04	38.404
385.40	38.126
385.76	37.515
386.12	36.026
386.48	36.412
386.83	38.498
387.19	37.080
387.55	37.207
387.91	38.128
388.27	36.547
388.62	36.598
388.98	36.830
389.34	38.126
389.70	36.316
390.06	37.419
390.42	36.807
390.77	38.772
391.13	38.028
391.49	37.621
391.85	37.515
392.20	36.833
392.56	39.102
392.92	37.950
393.28	37.700
393.64	37.095
393.99	38.698
394.35	37.442
394.71	38.024
395.07	38.024
395.42	36.836
395.78	38.696
396.14	38.384
396.50	40.380
396.85	37.865
397.21	38.166
397.57	38.398
397.92	37.743
398.28	37.697
398.64	36.842
399.00	38.272
399.35	37.749
399.71	37.337
400.07	38.911
400.42	37.835
400.78	37.731
401.14	37.735
401.49	38.715
401.85	39.593
402.21	38.239
402.57	38.263
402.92	37.293
403.28	37.471
403.63	37.947
403.99	37.411
404.35	38.090
404.70	37.677
405.06	36.685
405.42	36.710
405.77	38.168
406.13	37.979
406.49	37.613
406.84	37.673
407.20	38.737
407.55	38.098
407.91	37.901
408.27	37.161
408.62	37.929
408.98	37.435
409.34	37.361
409.69	37.206
410.05	38.101
410.40	37.993
410.76	37.970
411.11	38.515
411.47	38.759
411.83	38.742
412.18	39.337
412.54	37.641
412.89	38.591
413.25	37.528
413.60	37.622
413.96	37.646
414.31	37.054
414.67	38.283
415.03	36.923
415.38	38.714
415.74	38.729
416.09	38.433
416.45	36.944
416.80	38.066
417.16	39.336
417.51	38.667
417.87	38.504
418.22	37.964
418.58	38.476
418.93	39.290
419.29	38.841
419.64	39.136
420.00	39.525
420.35	38.069
420.71	38.196
421.06	38.125
421.42	38.819
421.77	37.480
422.12	38.055
422.48	39.580
422.83	39.595
423.19	39.576
423.54	39.657
423.90	38.984
424.25	38.987
424.61	38.289
424.96	39.154
425.31	39.862
425.67	39.023
426.02	39.181
426.38	39.552
426.73	38.728
427.09	39.216
427.44	38.012
427.79	39.303
428.15	38.413
428.50	38.652
428.85	38.060
429.21	39.947
429.56	39.635
429.92	37.838
430.27	38.554
430.62	38.837
430.98	39.056
431.33	39.345
431.68	38.314
432.04	39.970
432.39	40.064
432.74	39.498
433.10	40.617
433.45	38.573
433.80	39.861
434.16	39.308
434.51	40.134
434.86	40.608
435.22	39.904
435.57	41.627
435.92	39.622
436.28	39.875
436.63	40.634
436.98	38.916
437.34	40.868
437.69	39.901
438.04	39.714
438.39	40.724
438.75	40.232
439.10	40.592
439.45	40.805
439.81	40.226
440.16	40.375
440.51	40.914
440.86	40.467
441.22	39.014
441.57	40.933
441.92	40.592
442.27	41.111
442.63	40.537
442.98	41.302
443.33	39.348
443.68	41.031
444.03	41.110
444.39	40.546
444.74	40.735
445.09	39.432
445.44	40.306
445.79	40.278
446.15	40.185
446.50	40.207
446.85	41.148
447.20	39.700
447.55	40.324
447.91	39.895
448.26	39.905
448.61	39.957
448.96	41.953
449.31	40.456
449.66	40.196
450.02	40.665
450.37	40.011
450.72	40.097
451.07	39.977
451.42	40.208
451.77	39.578
452.12	41.591
452.47	40.642
452.83	41.779
453.18	39.988
453.53	39.747
453.88	40.641
454.23	41.186
454.58	40.743
454.93	40.473
455.28	40.698
455.63	40.364
455.98	40.335
456.34	40.754
456.69	39.859
457.04	40.957
457.39	40.521
457.74	41.051
458.09	39.923
458.44	40.625
458.79	40.227
459.14	40.797
459.49	39.955
459.84	40.976
460.19	39.978
460.54	41.511
460.89	41.292
461.24	39.310
461.59	41.007
461.94	39.304
462.29	41.097
462.64	41.219
462.99	41.180
463.34	41.467
463.69	40.856
464.04	41.134
464.39	40.527
464.74	40.422
465.09	40.600
465.44	40.719
465.79	39.979
466.14	39.343
466.49	40.632
466.84	41.322
467.19	40.405
467.54	40.071
467.89	39.943
468.24	40.997
468.59	41.054
468.94	40.152
469.29	40.192
469.64	40.814
469.99	40.599
470.34	40.408
470.68	41.558
471.03	43.026
471.38	41.530
471.73	41.027
472.08	42.005
472.43	42.384
472.78	41.940
473.13	41.909
473.48	41.994
473.83	41.846
474.17	40.211
474.52	42.032
474.87	40.753
475.22	42.085
475.57	41.329
475.92	40.368
476.27	41.054
476.61	41.277
476.96	41.241
477.31	41.881
477.66	42.130
478.01	41.129
478.36	41.176
478.70	40.985
479.05	41.769
479.40	42.103
479.75	41.547
480.10	41.639
480.45	40.839
480.79	41.270
481.14	40.533
481.49	40.663
481.84	42.037
482.19	41.591
482.53	40.971
482.88	41.028
483.23	41.885
483.58	41.004
483.92	41.489
484.27	40.051
484.62	40.017
484.97	40.358
485.31	39.528
485.66	38.023
486.01	36.547
486.36	37.716
486.70	38.471
487.05	39.877
487.40	39.517
487.75	39.618
488.09	39.673
488.44	39.303
488.79	40.540
489.13	39.645
489.48	40.583
489.83	40.322
490.17	39.814
490.52	40.681
490.87	40.102
491.22	39.818
491.56	41.638
491.91	40.689
492.26	40.415
492.60	39.484
492.95	41.115
493.30	41.282
493.64	40.736
493.99	40.439
494.34	39.503
494.68	40.428
495.03	40.308
495.37	40.968
495.72	40.272
496.07	41.192
496.41	39.725
496.76	41.159
497.11	40.085
497.45	39.836
497.80	41.048
498.14	41.723
498.49	41.039
498.84	40.128
499.18	41.116
499.53	40.628
499.87	41.319
500.22	40.650
500.56	40.081
500.91	40.686
501.26	41.409
501.60	39.947
501.95	40.469
502.29	40.807
502.64	41.014
502.98	40.293
503.33	40.778
503.67	40.863
504.02	40.849
504.36	41.778
504.71	40.652
505.06	41.064
505.40	40.585
505.75	40.574
506.09	41.390
506.44	41.458
506.78	41.514
507.13	41.678
507.47	42.207
507.82	42.045
508.16	42.113
508.51	40.272
508.85	41.379
509.19	41.686
509.54	41.451
509.88	42.496
510.23	42.933
510.57	41.614
510.92	42.380
511.26	42.232
511.61	41.429
511.95	41.288
512.30	42.393
512.64	42.579
512.98	41.921
513.33	42.792
513.67	42.478
514.02	42.463
514.36	43.223
514.70	43.490
515.05	43.014
515.39	43.045
515.74	43.955
516.08	42.314
516.42	43.380
516.77	43.428
517.11	42.754
517.46	43.372
517.80	43.560
518.14	44.015
518.49	43.764
518.83	43.374
519.17	42.865
519.52	42.925
519.86	43.928
520.20	44.462
520.55	43.593
520.89	43.581
521.23	43.942
521.58	44.859
521.92	43.853
522.26	43.471
522.61	44.965
522.95	43.887
523.29	43.161
523.64	43.161
523.98	44.894
524.32	45.158
524.66	44.735
525.01	43.828
525.35	43.423
525.69	44.432
526.04	43.398
526.38	45.690
526.72	44.002
527.06	45.220
527.41	43.732
527.75	44.715
528.09	44.687
528.43	43.813
528.78	44.393
529.12	44.266
529.46	43.227
529.80	44.394
530.15	43.710
530.49	44.069
530.83	44.333
531.17	44.265
531.51	44.946
531.86	44.291
532.20	45.427
532.54	43.686
532.88	43.879
533.22	43.783
533.57	43.681
533.91	43.603
534.25	43.414
534.59	43.563
534.93	42.954
535.27	42.817
535.62	44.173
535.96	44.102
536.30	44.360
536.64	43.604
536.98	44.280
537.32	44.444
537.66	43.855
538.01	41.631
538.35	42.570
538.69	42.668
539.03	44.513
539.37	42.049
539.71	42.703
540.05	43.285
540.39	43.826
540.73	42.259
541.07	43.225
541.42	42.115
541.76	42.408
542.10	42.823
542.44	42.083
542.78	43.187
543.12	41.359
543.46	41.514
543.80	41.547
544.14	41.173
544.48	42.199
544.82	42.250
545.16	43.113
545.50	40.923
545.84	42.254
546.18	42.593
546.52	42.548
546.86	42.013
547.20	42.557
547.54	40.824
547.88	41.230
548.22	40.585
548.56	40.843
548.90	41.015
549.24	41.337
549.58	41.514
549.92	41.773
550.26	41.618
550.60	41.034
550.94	41.591
551.28	42.706
551.62	42.318
551.96	41.489
552.30	41.045
552.64	41.568
552.98	42.358
553.32	41.286
553.66	41.672
554.00	41.425
554.34	41.377
554.68	40.026
555.02	41.064
555.36	41.354
555.69	41.192
556.03	41.047
556.37	40.738
556.71	40.457
557.05	40.639
557.39	41.274
557.73	39.762
558.07	39.735
558.41	41.661
558.75	41.515
559.08	40.988
559.42	41.427
559.76	40.773
560.10	40.857
560.44	39.842
560.78	39.875
561.12	39.470
561.45	40.876
561.79	39.072
562.13	40.542
562.47	39.519
562.81	39.241
563.15	39.646
563.48	40.460
563.82	38.996
564.16	38.886
564.50	39.213
564.84	38.702
565.17	38.882
565.51	39.298
565.85	38.124
566.19	38.940
566.52	38.034
566.86	38.653
567.20	38.554
567.54	37.812
567.88	37.666
568.21	37.747
568.55	37.554
568.89	38.130
569.23	36.586
569.56	36.811
569.90	36.244
570.24	36.358
570.57	36.113
570.91	35.211
571.25	34.799
571.59	34.484
571.92	34.248
572.26	34.595
572.60	34.753
572.93	34.818
573.27	34.111
573.61	33.933
573.95	34.134
574.28	33.240
574.62	33.925
574.96	33.105
575.29	33.818
575.63	33.518
575.97	33.916
576.30	33.802
576.64	33.524
576.98	33.212
577.31	33.421
577.65	33.099
577.98	32.794
578.32	32.341
578.66	33.302
578.99	32.521
579.33	33.370
579.67	33.296
580.00	32.884
580.34	32.657
580.67	33.054
581.01	32.735
581.35	32.418
581.68	31.908
582.02	32.329
582.35	32.276
582.69	33.305
583.02	32.947
583.36	32.532
583.70	32.993
584.03	33.357
584.37	32.881
584.70	32.372
585.04	32.202
585.37	32.722
585.71	31.823
586.04	32.277
586.38	32.312
586.72	31.988
587.05	32.745
587.39	32.685
587.72	32.488
588.06	32.471
588.39	32.711
588.73	32.407
589.06	32.421
589.40	33.098
589.73	33.033
590.07	33.024
590.40	33.063
590.73	33.192
591.07	33.730
591.40	33.398
591.74	34.221
592.07	33.902
592.41	33.123
592.74	32.659
593.08	32.580
593.41	32.342
593.75	31.695
594.08	32.384
594.41	32.244
594.75	32.182
595.08	32.537
595.42	32.143
595.75	32.257
596.09	33.074
596.42	33.465
596.75	33.037
597.09	34.141
597.42	33.095
597.75	32.379
598.09	32.937
598.42	33.414
598.76	31.754
599.09	32.182
599.42	31.378
599.76	31.562
600.09	32.533
600.42	31.164
600.76	32.199
601.09	30.866
601.42	31.377
601.76	31.759
602.09	31.951
602.42	31.770
602.76	32.251
603.09	32.122
603.42	31.720
603.76	31.536
604.09	32.505
604.42	31.706
604.76	31.393
605.09	32.429
605.42	31.778
605.75	31.462
606.09	31.318
606.42	30.974
606.75	31.297
607.09	31.452
607.42	30.829
607.75	31.614
608.08	31.689
608.42	31.358
608.75	31.882
609.08	30.942
609.41	31.936
609.75	32.098
610.08	31.970
610.41	32.201
610.74	31.555
611.07	31.661
611.41	31.300
611.74	32.102
612.07	32.071
612.40	31.702
612.73	32.078
613.07	31.736
613.40	31.954
613.73	31.632
614.06	30.864
614.39	31.244
614.72	31.101
615.06	31.521
615.39	31.223
615.72	31.280
616.05	31.423
616.38	31.231
616.71	31.191
617.05	30.618
617.38	32.424
617.71	31.857
618.04	31.678
618.37	32.842
618.70	32.579
619.03	32.258
619.36	32.614
619.69	33.248
620.03	32.203
620.36	32.454
620.69	31.832
621.02	33.071
621.35	34.470
621.68	33.695
622.01	33.737
622.34	31.939
622.67	32.165
623.00	31.511
623.33	32.847
623.66	32.685
623.99	32.258
624.32	32.359
624.65	31.853
624.99	32.445
625.32	31.809
625.65	32.030
625.98	32.678
626.31	33.097
626.64	32.601
626.97	32.558
627.30	31.283
627.63	32.183
627.96	33.183
628.29	33.385
628.62	32.830
628.95	33.742
629.28	33.645
629.61	32.576
629.94	32.218
630.26	32.203
630.59	33.074
630.92	33.074
631.25	34.258
631.58	33.333
631.91	33.739
632.24	34.678
632.57	32.543
632.90	34.504
633.23	33.571
633.56	33.265
633.89	33.471
634.22	34.615
634.55	35.908
634.88	33.983
635.20	35.199
635.53	34.237
635.86	32.828
636.19	34.358
636.52	33.017
636.85	33.810
637.18	33.992
637.51	34.086
637.83	35.327
638.16	33.525
638.49	35.094
638.82	34.047
639.15	32.761
639.48	35.681
639.81	33.141
640.13	35.100
640.46	32.606
640.79	33.824
641.12	33.416
641.45	34.253
641.77	34.660
642.10	35.039
642.43	34.574
642.76	32.927
643.09	35.753
643.41	35.434
643.74	34.759
644.07	36.552
644.40	35.078
644.73	34.107
645.05	35.683
645.38	35.827
645.71	32.845
646.04	35.868
646.36	33.285
646.69	34.049
647.02	35.321
647.35	36.336
647.67	33.977
648.00	35.191
648.33	36.486
648.66	33.809
648.98	31.701
649.31	32.612
649.64	33.997
649.96	33.687
650.29	31.711
650.62	32.390
650.94	34.835
651.27	32.335
651.60	32.602
651.92	33.587
652.25	32.706
652.58	31.912
652.90	31.395
653.23	33.944
653.56	32.810
653.88	32.725
654.21	33.099
654.54	32.370
654.86	31.870
655.19	30.740
655.52	29.529
655.84	25.370
656.17	29.697
656.49	41.779
656.82	46.288
657.15	36.106
657.47	27.445
657.80	20.500
658.13	16.224
658.45	21.197
658.78	26.138
659.10	25.199
659.43	25.972
659.75	25.497
660.08	26.835
660.41	26.385
660.73	28.734
661.06	31.278
661.38	32.057
661.71	32.586
662.03	31.570
662.36	34.168
662.68	34.522
663.01	31.681
663.33	34.216
663.66	33.700
663.98	35.192
664.31	32.833
664.63	32.948
664.96	34.664
665.28	30.490
665.61	32.867
665.93	31.429
666.26	32.079
666.58	33.026
666.91	33.271
667.23	35.238
667.56	34.517
667.88	34.200
668.21	31.836
668.53	31.467
668.86	34.971
669.18	34.216
669.50	35.189
669.83	31.200
670.15	31.890
670.48	33.532
670.80	31.358
671.13	31.002
671.45	30.512
671.77	33.710
672.10	28.667
672.42	30.583
672.75	28.264
673.07	28.060
673.39	29.276
673.72	31.544
674.04	32.241
674.37	33.095
674.69	31.922
675.01	32.000
675.34	32.252
675.66	32.959
675.98	31.343
676.31	30.859
676.63	34.030
676.95	34.100
677.28	32.056
677.60	29.134
677.92	31.286
678.25	31.444
678.57	28.826
678.89	34.300
679.22	29.965
679.54	30.427
679.86	28.983
680.18	29.519
680.51	29.088
680.83	31.915
681.15	30.862
681.48	33.161
681.80	31.779
682.12	30.769
682.44	28.214
682.77	30.674
683.09	31.818
683.41	32.558
683.73	28.463
684.06	30.258
684.38	27.728
684.70	31.777
685.02	32.014
685.34	28.453
685.67	30.126
685.99	28.528
686.31	26.890
686.63	27.646
686.96	29.338
687.28	28.664
687.60	27.441
687.92	27.331
688.24	29.382
688.56	27.586
688.89	30.672
689.21	28.571
689.53	29.412
689.85	29.783
690.17	29.444
690.49	30.677
690.82	28.515
691.14	28.138
691.46	27.916
691.78	27.072
692.10	29.725
692.42	26.964
692.74	30.127
693.06	24.444
693.39	29.032
693.71	27.256
694.03	30.297
694.35	26.286
694.67	30.185
694.99	28.298
695.31	31.126
695.63	30.519
695.95	30.228
696.27	29.451
696.59	31.637
696.91	27.703
697.23	29.451
697.56	26.680
697.88	28.788
698.20	26.177
698.52	27.462
698.84	30.146
699.16	27.755
699.48	26.360
699.80	28.936
700.12	28.166
700.44	28.571
700.76	29.691
701.08	29.298
701.40	28.756
701.72	30.597
702.04	29.679
702.36	29.058
702.68	27.139
703.00	26.406
703.32	29.064
703.64	30.562
703.96	29.356
704.28	27.764
704.60	31.899
704.91	27.551
705.23	30.685
705.55	30.919
705.87	30.606
706.19	34.049
706.51	26.506
706.83	27.954
707.15	28.042
707.47	24.299
707.79	25.983
708.11	23.941
708.43	28.172
708.74	27.009
709.06	29.930
709.38	27.465
709.70	28.040
710.02	27.907
710.34	28.457
710.66	25.698
710.98	27.596
711.29	23.077
711.61	29.096
711.93	26.496
712.25	27.297
712.57	30.973
712.89	28.529
713.20	32.249
713.52	27.746
713.84	29.248
714.16	29.211
714.48	27.320
714.80	31.688
715.11	24.147
715.43	26.525
715.75	26.842
716.07	26.243
716.39	28.142
716.70	22.892
717.02	30.492
717.34	26.481
717.66	29.530
717.97	25.000
718.29	28.522
718.61	26.645
718.93	27.508
719.24	29.814
719.56	29.141
719.88	24.324
720.20	28.387
720.51	28.571
720.83	26.563
721.15	27.303
721.46	23.630
721.78	29.000
722.10	25.243
722.42	28.523
722.73	22.258
723.05	29.474
723.37	25.347
723.68	28.674
724.00	28.881
724.32	31.338
724.63	26.224
724.95	27.305
725.27	25.784
725.58	26.855
725.90	31.379
726.22	23.511
726.53	28.896
726.85	28.302
727.16	24.169
727.48	28.746
727.80	29.470
728.11	25.795
728.43	29.293
728.74	26.087
729.06	24.503
729.38	28.896
729.69	25.839
730.01	29.167
730.32	25.758
730.64	26.101
730.96	24.845
731.27	30.726
731.59	25.549
731.90	24.156
732.22	25.260
732.53	22.652
732.85	22.571
733.16	26.100
733.48	24.390
733.80	25.627
734.11	23.362
734.43	27.297
734.74	27.089
735.06	23.869
735.37	24.054
735.69	26.216
736.00	23.446
736.32	21.294
736.63	24.167
736.95	24.138
737.26	26.364
737.58	25.455
737.89	26.176
738.21	23.547
738.52	25.246
738.83	25.939
739.15	23.050
739.46	25.510
739.78	22.699
740.09	21.777
740.41	27.988
740.72	26.000
741.04	28.155
741.35	24.561
741.66	22.353
741.98	29.098
742.29	28.870
742.61	26.316
742.92	23.846
743.23	25.271
743.55	24.419
743.86	27.200
744.18	25.207
744.49	21.519
744.80	24.691
745.12	22.785
745.43	23.984
745.74	23.707
746.06	22.034
746.37	31.224
746.68	28.862
747.00	22.917
747.31	24.464
747.62	26.923
747.94	24.291
748.25	24.096
748.56	24.082
748.88	21.368
749.19	28.879
749.50	28.571
749.82	31.325
750.13	25.979
750.44	23.333
750.75	20.923
751.07	24.308
751.38	23.659
751.69	20.767
752.01	21.683
752.32	27.778
752.63	26.190
752.94	26.644
753.26	24.907
753.57	24.815
753.88	22.846
754.19	21.543
754.51	22.508
754.82	22.830
755.13	23.934
755.44	26.280
755.75	24.671
756.07	23.582
756.38	20.755
756.69	25.602
757.00	22.715
757.31	20.765
757.63	20.205
757.94	22.300
758.25	22.348
758.56	22.222
758.87	22.045
759.18	20.800
759.50	24.363
759.81	25.490
760.12	27.224
760.43	19.792
760.74	22.167
761.05	23.500
761.36	20.482
761.67	21.066
761.99	21.351
762.30	21.037
762.61	19.472
762.92	18.657
763.23	25.468
763.54	22.662
763.85	21.993
764.16	23.569
764.47	25.000
764.78	23.962
765.10	21.408
765.41	22.564
765.72	24.074
766.03	20.621
766.34	19.122
766.65	19.512
766.96	24.303
767.27	25.806
767.58	16.915
767.89	25.962
768.20	23.474
768.51	22.222
768.82	22.892
769.13	23.106
769.44	17.692
769.75	25.632
770.06	20.000
770.37	27.953
770.68	23.830
770.99	17.409
771.30	25.926
771.61	22.433
771.92	24.444
772.23	25.101
772.54	18.981
772.85	27.189
773.16	28.095
773.47	22.222
773.78	14.595
774.09	28.409
774.39	30.500
774.70	26.230
775.01	13.415
775.32	21.765
775.63	25.767
775.94	19.745
776.25	21.935
776.56	23.718
776.87	33.333
777.18	24.138
777.48	27.273
777.79	17.568
778.10	22.794
778.41	21.528
778.72	24.828
779.03	23.457
779.34	23.030
779.65	23.316
779.95	24.444
780.26	25.568
780.57	25.161
780.88	26.087
781.19	30.323
781.50	30.588
781.80	20.968
782.11	24.339
782.42	15.657
782.73	19.760
783.04	19.553
783.34	15.152
783.65	18.301
783.96	21.118
784.27	18.452
784.57	23.179
784.88	20.000
785.19	18.110
785.50	25.197
785.81	20.301
786.11	26.154
786.42	10.791
786.73	20.863
787.04	21.053
787.34	13.115
787.65	19.200
787.96	17.910
788.26	23.077
788.57	27.273
788.88	19.079
789.19	25.490
789.49	26.027
789.80	23.404
790.11	24.409
790.41	11.719
790.72	22.881
791.03	9.709
791.33	20.000
791.64	21.053
791.95	15.179
792.25	19.048
792.56	27.679
792.87	22.917
793.17	7.143
793.48	17.708
793.79	20.482
794.09	13.761
794.40	13.761
794.70	23.810
795.01	19.481
795.32	29.452
795.62	21.831
795.93	13.636
796.23	23.770
796.54	16.964
796.85	14.894
797.15	19.565
797.46	6.849
797.76	13.750
798.07	16.304
798.37	4.124
798.68	15.584
798.99	16.092
799.29	21.348
799.60	12.766
799.90	22.892
800.21	12.308
800.51	31.343
800.82	39.706
801.12	20.548
801.43	2.941
801.73	22.034
802.04	19.697
802.34	13.333
802.65	20.339
802.95	14.925
803.26	27.119
803.56	23.288
803.87	20.000
804.17	26.027
804.48	21.053
804.78	22.222
805.09	-6.897
805.39	13.514
805.70	15.493
806.00	9.756
806.30	18.072
806.61	15.068
806.91	24.038
807.22	17.778
807.52	13.793
807.83	26.389
808.13	30.120
808.43	24.719
808.74	8.750
809.04	4.412
809.35	13.333
809.65	28.571
809.95	8.219
810.26	10.526
810.56	10.345
810.86	26.471
811.17	7.018
811.47	18.033
811.77	6.667
812.08	16.949
812.38	18.333
812.69	29.310
812.99	-3.774
813.29	-12.821
813.59	28.000
813.90	15.789
814.20	14.545
814.50	29.577
814.81	25.641
815.11	27.869
815.41	23.881
815.72	39.655
816.02	19.643
816.32	40.000
816.62	18.182
816.93	8.889
817.23	9.259
817.53	4.255
817.84	26.190
818.14	17.647
818.44	12.245
818.74	24.444
819.04	0.000
819.35	5.714
819.65	-3.846
819.95	24.528
820.25	8.889
820.56	11.905
820.86	9.375
821.16	20.513
821.46	2.326
821.76	14.000
822.07	7.143
822.37	10.870
822.67	10.638
822.97	2.703
823.27	7.500
823.57	16.327
823.88	17.778
824.18	17.500
824.48	-10.000
824.78	12.000
825.08	27.273
825.38	20.000
825.69	25.532
825.99	30.556
826.29	-20.000
826.59	-10.256
826.89	9.302
827.19	46.000
827.49	17.647
827.79	25.000
828.09	-10.811
828.39	10.000
828.70	-4.878
829.00	16.279
829.30	7.143
829.60	8.824
829.90	26.087
830.20	2.857
830.50	-6.897
830.80	-27.778
831.10	19.231
831.40	-5.882
831.70	23.810
832.00	61.290
832.30	-35.294
832.60	-8.333
832.90	-53.846
833.20	10.526
833.50	-45.000
833.80	0.000
834.10	-71.429
834.40	13.889
834.70	21.875
835.00	-28.571
835.30	2.941
835.60	3.333
835.90	8.000
836.20	-40.909
836.50	-32.000
836.80	15.152
837.10	-33.333
837.40	-11.111
837.70	-50.000
838.00	35.714
838.30	-4.348
838.60	41.379
838.90	0.000
839.19	-52.174
839.49	-108.333
839.79	8.696
840.09	0.000
840.39	-10.000
840.69	3.226
840.99	-39.286
841.29	-40.000
841.59	-21.053
841.88	38.462
842.18	30.769
842.48	40.000
842.78	5.000
843.08	36.667
843.38	51.613
843.68	5.556
843.97	8.824
844.27	6.250
844.57	-36.842
844.87	-10.000
845.17	0.000
845.47	38.095
845.76	-19.048
846.06	-88.889
846.36	-64.706
846.66	-23.077
846.96	-26.667
847.25	0.000
847.55	78.261
847.85	40.000
848.15	-17.647
848.44	-18.182
848.74	0.000
849.04	4.167
849.34	-18.750
849.63	69.565
849.93	650.000
850.23	-26.667
850.53	11.538
850.82	-81.818
851.12	22.727
851.42	-63.636
851.71	46.154
852.01	-25.000
852.31	-30.769
852.61	-5.263
852.90	83.333
853.20	11.111
853.50	-100.000
853.79	-28.571
854.09	0.000
854.39	-58.333
854.68	-12.903
854.98	-30.769
855.28	16.667
855.57	3.571
855.87	8.000
856.17	18.182
856.46	14.815
856.76	5.556
857.05	-13.043
857.35	12.500
857.65	46.154
857.94	4.762
858.24	22.222
858.53	34.783
858.83	47.059
859.13	29.412
859.42	-47.059
859.72	71.429
860.01	-15.000
860.31	-77.778
860.60	80.000
860.90	-33.333
861.20	-27.778
861.49	-30.769
861.79	10.000
862.08	-30.769
862.38	37.500
862.67	29.412
862.97	-31.250
863.26	-122.222
863.56	-30.000
863.85	-72.727
864.15	27.778
864.44	-33.333
864.74	-14.286
865.03	-12.500
865.33	-110.000
865.62	0.000
865.92	-27.273
866.21	4.348
866.51	7.143
866.80	-260.000
867.10	-8.333
867.39	-50.000
867.69	800.000
867.98	-128.571
868.27	-11.765
868.57	-500.000
868.86	-50.000
869.16	-14.286
869.45	20.833
869.75	0.000
870.04	-100.000
870.33	-58.333
870.63	-185.714
870.92	175.000
871.22	-150.000
871.51	9.091
871.80	-333.333
872.10	-400.000
>>>>>End Processed Spectral Data<<<<<
