SpectraSuite Data File
++++++++++++++++++++++++++++++++++++
Date: Thu May 14 16:39:41 PDT 2015
User: schluterlab
Dark Spectrum Present: Yes
Reference Spectrum Present: Yes
Number of Sampled Component Spectra: 1
Spectrometers: USB2E3373
Integration Time (usec): 3000 (USB2E3373)
Spectra Averaged: 3 (USB2E3373)
Boxcar Smoothing: 0 (USB2E3373)
Correct for Electrical Dark: No (USB2E3373)
Strobe/Lamp Enabled: No (USB2E3373)
Correct for Detector Non-linearity: No (USB2E3373)
Correct for Stray Light: No (USB2E3373)
Number of Pixels in Processed Spectrum: 2048
>>>>>Begin Processed Spectral Data<<<<<
178.53	0.000
178.91	28.571
179.29	-400.000
179.67	-300.000
180.04	135.714
180.42	40.000
180.80	180.000
181.18	-500.000
181.56	-300.000
181.94	125.000
182.31	0.000
182.69	166.667
183.07	150.000
183.45	100.000
183.83	-66.667
184.20	33.333
184.58	400.000
184.96	-150.000
185.34	-33.333
185.72	20.000
186.09	88.889
186.47	400.000
186.85	280.000
187.23	-133.333
187.61	-900.000
187.98	-20.000
188.36	225.000
188.74	-150.000
189.12	-33.333
189.49	18.750
189.87	-37.500
190.25	-22.222
190.63	-20.000
191.00	-100.000
191.38	0.000
191.76	-175.000
192.14	16.667
192.51	50.000
192.89	116.667
193.27	0.000
193.65	-28.571
194.02	-400.000
194.40	14.286
194.78	42.857
195.15	0.000
195.53	36.364
195.91	0.000
196.29	50.000
196.66	-53.846
197.04	-800.000
197.42	-57.143
197.79	-400.000
198.17	12.500
198.55	-42.857
198.92	77.778
199.30	-37.500
199.68	0.000
200.05	21.429
200.43	-150.000
200.81	128.571
201.18	0.000
201.56	111.111
201.94	0.000
202.31	366.667
202.69	11.111
203.07	-500.000
203.44	-55.556
203.82	-125.000
204.19	-8.333
204.57	50.000
204.95	-62.500
205.32	-300.000
205.70	50.000
206.08	-183.333
206.45	50.000
206.83	320.000
207.20	66.667
207.58	-240.000
207.96	-216.667
208.33	100.000
208.71	58.333
209.08	183.333
209.46	0.000
209.84	216.667
210.21	-150.000
210.59	150.000
210.96	133.333
211.34	175.000
211.71	-37.500
212.09	0.000
212.46	0.000
212.84	600.000
213.22	-60.000
213.59	0.000
213.97	100.000
214.34	-433.333
214.72	216.667
215.09	-250.000
215.47	0.000
215.84	14.286
216.22	450.000
216.59	-120.000
216.97	-160.000
217.34	75.000
217.72	25.000
218.09	-350.000
218.47	-250.000
218.84	0.000
219.22	-0.000
219.59	47.059
219.97	40.000
220.34	250.000
220.72	11.111
221.09	46.154
221.47	-100.000
221.84	10.000
222.22	-42.857
222.59	0.000
222.97	-25.000
223.34	-120.000
223.72	100.000
224.09	50.000
224.46	0.000
224.84	100.000
225.21	-114.286
225.59	-50.000
225.96	-325.000
226.34	-3.846
226.71	216.667
227.08	0.000
227.46	6.667
227.83	-75.000
228.21	100.000
228.58	62.500
228.95	50.000
229.33	25.000
229.70	70.000
230.08	68.421
230.45	110.000
230.82	-133.333
231.20	35.714
231.57	-16.667
231.95	-9.091
232.32	-63.636
232.69	15.000
233.07	-125.000
233.44	-17.647
233.81	-90.000
234.19	66.667
234.56	-18.182
234.93	51.724
235.31	0.000
235.68	-33.333
236.05	-55.000
236.43	11.538
236.80	60.000
237.17	22.222
237.55	9.091
237.92	-40.000
238.29	-6.452
238.67	0.000
239.04	-25.000
239.41	-11.905
239.79	-6.522
240.16	-1.852
240.53	-2.174
240.91	-21.569
241.28	6.557
241.65	13.433
242.02	0.000
242.40	-1.538
242.77	0.000
243.14	-8.537
243.51	-17.105
243.89	-24.359
244.26	-1.980
244.63	1.961
245.00	-6.542
245.38	-1.754
245.75	-8.850
246.12	2.381
246.49	-10.853
246.87	2.857
247.24	5.298
247.61	2.632
247.98	-2.685
248.36	0.617
248.73	-1.840
249.10	2.186
249.47	-0.498
249.84	6.283
250.22	1.554
250.59	1.111
250.96	4.091
251.33	-5.612
251.70	2.564
252.08	4.583
252.45	3.279
252.82	-2.479
253.19	-1.172
253.56	1.521
253.94	-3.077
254.31	2.273
254.68	1.748
255.05	0.326
255.42	1.361
255.79	-2.265
256.16	2.318
256.54	-2.318
256.91	1.967
257.28	-1.967
257.65	-3.503
258.02	-1.180
258.39	1.709
258.76	2.446
259.14	3.161
259.51	0.288
259.88	0.283
260.25	-1.389
260.62	1.370
260.99	2.186
261.36	3.217
261.73	-2.387
262.10	-3.022
262.47	0.804
262.85	5.303
263.22	-3.636
263.59	-2.632
263.96	0.000
264.33	0.512
264.70	0.741
265.07	3.580
265.44	1.814
265.81	2.778
266.18	2.268
266.55	2.009
266.92	1.139
267.29	2.407
267.66	0.000
268.03	-0.655
268.40	-0.209
268.77	-0.456
269.14	-3.524
269.51	0.658
269.88	1.844
270.25	0.402
270.62	-0.422
270.99	1.212
271.36	0.792
271.73	0.786
272.10	1.002
272.47	-2.605
272.84	0.803
273.21	0.601
273.58	2.016
273.95	0.385
274.32	-1.331
274.69	-1.547
275.06	0.366
275.43	-0.924
275.80	1.411
276.17	0.370
276.54	-0.373
276.91	0.358
277.28	1.989
277.65	1.077
278.02	0.368
278.39	0.362
278.76	-0.879
279.13	1.596
279.50	2.577
279.87	1.968
280.23	-3.169
280.60	0.847
280.97	1.974
281.34	-1.358
281.71	1.354
282.08	0.498
282.45	0.327
282.82	-0.314
283.19	-1.292
283.56	0.656
283.92	2.102
284.29	3.160
284.66	0.657
285.03	-1.763
285.40	1.546
285.77	-0.619
286.14	1.679
286.51	0.761
286.87	-1.106
287.24	0.904
287.61	0.747
287.98	0.302
288.35	0.148
288.72	0.000
289.08	0.586
289.45	0.296
289.82	0.000
290.19	1.006
290.56	0.282
290.93	0.428
291.29	0.413
291.66	0.964
292.03	-0.543
292.40	1.769
292.77	1.078
293.13	1.353
293.50	-0.131
293.87	0.940
294.24	2.000
294.60	1.391
294.97	-0.134
295.34	1.665
295.71	0.504
296.08	0.775
296.44	-0.123
296.81	0.974
297.18	0.747
297.55	0.472
297.91	0.712
298.28	0.829
298.65	1.902
299.02	0.000
299.38	1.945
299.75	0.818
300.12	0.347
300.48	0.576
300.85	0.562
301.22	2.125
301.59	0.114
301.95	0.904
302.32	2.333
302.69	0.986
303.05	1.850
303.42	0.887
303.79	1.042
304.15	1.577
304.52	0.106
304.89	1.990
305.25	1.035
305.62	2.090
305.99	1.443
306.35	1.210
306.72	1.758
307.09	1.523
307.45	1.553
307.82	0.404
308.19	1.312
308.55	3.182
308.92	1.461
309.29	2.203
309.65	0.877
310.02	1.980
310.38	2.559
310.75	1.553
311.12	2.397
311.48	1.955
311.85	2.754
312.22	2.182
312.58	3.099
312.95	1.625
313.31	2.258
313.68	3.846
314.05	3.704
314.41	3.825
314.78	3.451
315.14	3.448
315.51	3.601
315.87	3.960
316.24	4.018
316.61	4.529
316.97	2.986
317.34	4.056
317.70	4.629
318.07	4.056
318.43	5.442
318.80	5.853
319.16	5.665
319.53	4.370
319.89	5.346
320.26	6.228
320.62	4.610
320.99	5.817
321.35	6.377
321.72	7.628
322.08	7.394
322.45	7.046
322.81	7.130
323.18	7.699
323.54	8.017
323.91	7.829
324.27	8.176
324.64	8.816
325.00	7.711
325.37	9.664
325.73	9.587
326.10	9.976
326.46	10.261
326.83	10.488
327.19	9.843
327.56	9.881
327.92	9.835
328.29	10.403
328.65	10.050
329.01	9.391
329.38	10.868
329.74	11.301
330.11	11.558
330.47	10.447
330.84	11.628
331.20	11.583
331.56	11.179
331.93	10.795
332.29	11.780
332.66	11.960
333.02	10.972
333.38	10.235
333.75	11.027
334.11	12.010
334.48	10.809
334.84	12.150
335.20	10.663
335.57	12.057
335.93	10.992
336.29	11.481
336.66	11.186
337.02	11.204
337.38	12.160
337.75	11.405
338.11	11.606
338.47	11.249
338.84	11.252
339.20	10.278
339.56	11.120
339.93	11.658
340.29	10.709
340.65	12.247
341.02	11.891
341.38	11.884
341.74	11.542
342.11	10.619
342.47	11.120
342.83	11.594
343.20	11.447
343.56	11.307
343.92	11.049
344.28	11.797
344.65	12.636
345.01	12.793
345.37	11.897
345.73	10.990
346.10	11.700
346.46	11.709
346.82	12.734
347.19	12.452
347.55	11.077
347.91	11.516
348.27	11.760
348.63	11.881
349.00	11.186
349.36	12.119
349.72	11.682
350.08	12.259
350.45	11.027
350.81	10.860
351.17	10.977
351.53	11.296
351.89	11.617
352.26	11.119
352.62	11.791
352.98	11.603
353.34	10.904
353.70	11.325
354.07	11.326
354.43	12.149
354.79	11.743
355.15	11.332
355.51	12.135
355.87	11.668
356.24	11.787
356.60	11.752
356.96	11.193
357.32	10.929
357.68	11.420
358.04	11.377
358.40	12.015
358.77	12.208
359.13	11.226
359.49	11.004
359.85	11.820
360.21	11.836
360.57	11.199
360.93	11.283
361.29	12.421
361.66	11.513
362.02	12.874
362.38	11.806
362.74	11.383
363.10	12.036
363.46	12.258
363.82	11.648
364.18	11.330
364.54	11.618
364.90	12.375
365.26	11.517
365.62	12.600
365.98	12.321
366.35	12.215
366.71	12.245
367.07	12.923
367.43	12.213
367.79	13.072
368.15	13.043
368.51	13.058
368.87	11.888
369.23	12.267
369.59	12.158
369.95	12.035
370.31	12.154
370.67	12.311
371.03	12.604
371.39	12.492
371.75	12.242
372.11	14.092
372.47	12.796
372.83	13.416
373.19	12.475
373.55	12.127
373.91	12.134
374.27	13.001
374.63	12.246
374.99	13.263
375.35	14.286
375.71	13.484
376.07	13.170
376.42	13.224
376.78	13.611
377.14	13.849
377.50	13.346
377.86	13.793
378.22	13.772
378.58	13.080
378.94	13.732
379.30	13.650
379.66	13.228
380.02	13.733
380.38	13.940
380.74	13.408
381.09	14.053
381.45	13.580
381.81	14.461
382.17	13.895
382.53	13.450
382.89	14.447
383.25	14.244
383.61	13.079
383.97	13.958
384.32	14.414
384.68	13.515
385.04	14.806
385.40	14.260
385.76	14.654
386.12	14.303
386.48	14.882
386.83	15.018
387.19	14.716
387.55	14.613
387.91	14.726
388.27	15.012
388.62	14.089
388.98	14.439
389.34	15.027
389.70	14.643
390.06	14.565
390.42	15.422
390.77	15.412
391.13	14.847
391.49	15.097
391.85	14.727
392.20	15.006
392.56	15.003
392.92	14.995
393.28	14.870
393.64	14.749
393.99	15.747
394.35	15.012
394.71	15.749
395.07	15.150
395.42	14.849
395.78	15.905
396.14	15.270
396.50	14.667
396.85	15.564
397.21	15.207
397.57	15.371
397.92	15.636
398.28	14.557
398.64	15.160
399.00	14.660
399.35	15.550
399.71	15.761
400.07	16.115
400.42	15.891
400.78	15.220
401.14	15.253
401.49	15.520
401.85	15.581
402.21	16.222
402.57	16.725
402.92	15.603
403.28	15.398
403.63	14.678
403.99	14.489
404.35	15.520
404.70	16.034
405.06	14.946
405.42	15.808
405.77	16.031
406.13	14.965
406.49	15.878
406.84	16.066
407.20	15.819
407.55	15.082
407.91	15.336
408.27	15.724
408.62	16.289
408.98	15.728
409.34	15.191
409.69	15.328
410.05	15.768
410.40	16.415
410.76	15.816
411.11	16.306
411.47	16.339
411.83	16.520
412.18	16.627
412.54	15.945
412.89	15.600
413.25	15.576
413.60	16.025
413.96	16.550
414.31	15.807
414.67	16.458
415.03	16.062
415.38	16.393
415.74	16.310
416.09	15.978
416.45	16.343
416.80	16.218
417.16	15.453
417.51	15.442
417.87	16.800
418.22	17.006
418.58	16.109
418.93	16.997
419.29	16.215
419.64	15.906
420.00	16.736
420.35	16.957
420.71	16.485
421.06	15.699
421.42	16.227
421.77	16.047
422.12	16.385
422.48	16.180
422.83	16.594
423.19	15.756
423.54	16.925
423.90	16.068
424.25	16.640
424.61	16.418
424.96	16.749
425.31	17.304
425.67	16.157
426.02	16.879
426.38	16.475
426.73	16.685
427.09	17.589
427.44	16.603
427.79	16.031
428.15	15.925
428.50	16.236
428.85	16.418
429.21	16.170
429.56	16.930
429.92	16.953
430.27	16.819
430.62	16.952
430.98	16.527
431.33	16.422
431.68	16.715
432.04	16.404
432.39	16.658
432.74	16.553
433.10	16.549
433.45	16.165
433.80	17.167
434.16	16.529
434.51	17.472
434.86	16.721
435.22	17.056
435.57	17.335
435.92	17.418
436.28	16.382
436.63	17.422
436.98	16.371
437.34	16.516
437.69	16.125
438.04	16.711
438.39	16.198
438.75	16.989
439.10	17.442
439.45	17.272
439.81	16.893
440.16	16.354
440.51	16.722
440.86	17.454
441.22	17.149
441.57	17.243
441.92	16.489
442.27	16.768
442.63	16.244
442.98	16.969
443.33	17.096
443.68	17.493
444.03	18.015
444.39	17.522
444.74	17.152
445.09	17.233
445.44	16.702
445.79	17.768
446.15	16.906
446.50	17.209
446.85	17.753
447.20	17.892
447.55	16.946
447.91	17.539
448.26	17.072
448.61	17.216
448.96	18.187
449.31	16.914
449.66	16.721
450.02	16.878
450.37	17.688
450.72	16.254
451.07	17.597
451.42	16.464
451.77	16.954
452.12	17.607
452.47	16.696
452.83	16.160
453.18	16.696
453.53	17.231
453.88	16.731
454.23	17.232
454.58	17.528
454.93	15.716
455.28	17.640
455.63	17.169
455.98	16.648
456.34	17.020
456.69	17.284
457.04	16.785
457.39	15.743
457.74	16.331
458.09	16.969
458.44	17.457
458.79	16.606
459.14	16.675
459.49	16.412
459.84	16.474
460.19	15.936
460.54	17.036
460.89	17.046
461.24	16.322
461.59	17.211
461.94	15.573
462.29	17.189
462.64	16.113
462.99	17.200
463.34	16.872
463.69	15.885
464.04	17.009
464.39	16.143
464.74	16.534
465.09	16.782
465.44	16.363
465.79	16.922
466.14	15.581
466.49	16.316
466.84	16.694
467.19	16.301
467.54	15.629
467.89	15.805
468.24	16.288
468.59	15.345
468.94	15.385
469.29	15.177
469.64	15.639
469.99	15.997
470.34	15.408
470.68	16.131
471.03	16.568
471.38	16.351
471.73	14.759
472.08	14.911
472.43	16.376
472.78	16.877
473.13	16.308
473.48	16.133
473.83	15.844
474.17	16.530
474.52	15.634
474.87	16.168
475.22	15.887
475.57	15.265
475.92	15.480
476.27	15.868
476.61	14.849
476.96	14.964
477.31	15.396
477.66	15.792
478.01	16.014
478.36	16.102
478.70	15.862
479.05	16.462
479.40	16.041
479.75	16.090
480.10	15.017
480.45	15.223
480.79	15.964
481.14	15.074
481.49	15.766
481.84	15.622
482.19	15.398
482.53	15.348
482.88	14.843
483.23	15.251
483.58	15.109
483.92	14.362
484.27	14.987
484.62	14.893
484.97	15.280
485.31	15.100
485.66	14.340
486.01	14.589
486.36	14.710
486.70	15.350
487.05	15.551
487.40	15.370
487.75	14.860
488.09	15.103
488.44	13.964
488.79	14.739
489.13	14.518
489.48	14.214
489.83	14.165
490.17	14.216
490.52	14.614
490.87	14.932
491.22	14.038
491.56	14.761
491.91	13.781
492.26	14.106
492.60	14.473
492.95	13.690
493.30	14.612
493.64	14.060
493.99	14.254
494.34	13.458
494.68	13.405
495.03	13.877
495.37	13.316
495.72	14.240
496.07	13.628
496.41	13.985
496.76	13.845
497.11	13.588
497.45	13.940
497.80	14.083
498.14	13.197
498.49	13.833
498.84	13.940
499.18	13.405
499.53	13.767
499.87	13.846
500.22	13.090
500.56	13.810
500.91	13.593
501.26	14.000
501.60	13.478
501.95	13.721
502.29	13.602
502.64	13.774
502.98	13.503
503.33	13.693
503.67	12.909
504.02	13.047
504.36	12.869
504.71	13.183
505.06	13.324
505.40	13.391
505.75	13.251
506.09	13.168
506.44	13.278
506.78	13.211
507.13	12.955
507.47	13.690
507.82	12.737
508.16	12.476
508.51	12.236
508.85	12.943
509.19	12.506
509.54	13.641
509.88	12.530
510.23	13.113
510.57	13.533
510.92	12.675
511.26	12.891
511.61	11.927
511.95	12.592
512.30	12.457
512.64	12.744
512.98	12.956
513.33	12.954
513.67	12.953
514.02	12.877
514.36	12.276
514.70	12.656
515.05	12.722
515.39	12.441
515.74	13.309
516.08	12.256
516.42	13.030
516.77	12.829
517.11	12.120
517.46	12.725
517.80	12.614
518.14	12.677
518.49	12.636
518.83	11.762
519.17	12.224
519.52	12.893
519.86	12.619
520.20	12.034
520.55	11.884
520.89	12.444
521.23	12.228
521.58	11.469
521.92	12.068
522.26	11.856
522.61	12.153
522.95	12.630
523.29	12.126
523.64	12.612
523.98	12.721
524.32	13.123
524.66	12.123
525.01	12.231
525.35	11.660
525.69	12.645
526.04	12.859
526.38	12.874
526.72	12.111
527.06	11.554
527.41	11.603
527.75	12.827
528.09	11.747
528.43	12.374
528.78	11.272
529.12	11.812
529.46	11.523
529.80	12.128
530.15	11.246
530.49	11.922
530.83	12.338
531.17	11.410
531.51	12.094
531.86	12.260
532.20	12.073
532.54	11.849
532.88	12.242
533.22	11.314
533.57	11.656
533.91	12.009
534.25	12.097
534.59	12.011
534.93	11.036
535.27	10.930
535.62	11.654
535.96	12.318
536.30	11.398
536.64	11.892
536.98	12.116
537.32	11.852
537.66	11.790
538.01	10.816
538.35	11.389
538.69	11.478
539.03	12.017
539.37	11.661
539.71	11.592
540.05	11.751
540.39	10.208
540.73	10.929
541.07	11.404
541.42	11.400
541.76	11.329
542.10	10.917
542.44	11.632
542.78	11.496
543.12	10.787
543.46	12.210
543.80	10.851
544.14	11.370
544.48	11.761
544.82	11.909
545.16	10.853
545.50	9.946
545.84	11.023
546.18	11.852
546.52	10.892
546.86	10.503
547.20	10.878
547.54	10.924
547.88	10.549
548.22	11.111
548.56	10.650
548.90	10.149
549.24	10.942
549.58	10.915
549.92	10.459
550.26	10.939
550.60	11.040
550.94	10.543
551.28	10.363
551.62	10.714
551.96	10.809
552.30	10.261
552.64	10.765
552.98	10.293
553.32	10.997
553.66	11.061
554.00	10.782
554.34	11.197
554.68	10.265
555.02	10.841
555.36	10.980
555.69	10.058
556.03	10.530
556.37	10.513
556.71	10.843
557.05	10.927
557.39	10.219
557.73	10.634
558.07	10.861
558.41	10.565
558.75	11.089
559.08	9.603
559.42	10.014
559.76	11.058
560.10	10.248
560.44	9.960
560.78	10.375
561.12	9.606
561.45	10.158
561.79	10.745
562.13	10.967
562.47	9.679
562.81	9.810
563.15	10.038
563.48	10.379
563.82	9.915
564.16	9.146
564.50	10.369
564.84	9.971
565.17	10.059
565.51	10.817
565.85	9.679
566.19	9.965
566.52	9.655
566.86	10.130
567.20	9.516
567.54	10.143
567.88	10.296
568.21	10.030
568.55	10.168
568.89	10.123
569.23	10.139
569.56	10.082
569.90	9.979
570.24	9.511
570.57	9.942
570.91	9.767
571.25	9.662
571.59	10.131
571.92	9.622
572.26	9.767
572.60	9.637
572.93	9.852
573.27	9.694
573.61	10.032
573.95	10.075
574.28	9.928
574.62	9.686
574.96	9.307
575.29	9.033
575.63	9.540
575.97	9.725
576.30	9.647
576.64	9.234
576.98	9.408
577.31	9.396
577.65	9.802
577.98	9.469
578.32	9.340
578.66	9.310
578.99	9.728
579.33	9.404
579.67	9.270
580.00	9.643
580.34	9.119
580.67	8.981
581.01	9.498
581.35	9.371
581.68	9.299
582.02	9.397
582.35	9.635
582.69	9.425
583.02	9.381
583.36	9.715
583.70	9.134
584.03	9.407
584.37	9.306
584.70	9.438
585.04	9.044
585.37	9.368
585.71	9.364
586.04	9.489
586.38	9.401
586.72	9.175
587.05	8.877
587.39	8.950
587.72	9.354
588.06	9.309
588.39	9.335
588.73	9.286
589.06	9.114
589.40	8.881
589.73	9.222
590.07	9.184
590.40	9.094
590.73	8.625
591.07	9.345
591.40	9.370
591.74	8.824
592.07	9.216
592.41	9.069
592.74	9.159
593.08	8.662
593.41	9.478
593.75	9.339
594.08	9.209
594.41	8.910
594.75	8.967
595.08	8.782
595.42	8.831
595.75	8.783
596.09	9.082
596.42	8.886
596.75	9.533
597.09	9.051
597.42	8.264
597.75	8.820
598.09	9.246
598.42	9.047
598.76	8.789
599.09	8.651
599.42	8.716
599.76	8.848
600.09	9.109
600.42	8.609
600.76	8.884
601.09	8.364
601.42	8.548
601.76	8.517
602.09	8.721
602.42	7.997
602.76	8.487
603.09	9.068
603.42	8.960
603.76	8.421
604.09	9.368
604.42	8.881
604.76	8.828
605.09	8.775
605.42	8.214
605.75	8.923
606.09	8.511
606.42	8.172
606.75	8.471
607.09	8.525
607.42	8.516
607.75	8.988
608.08	8.603
608.42	8.182
608.75	9.038
609.08	8.447
609.41	8.249
609.75	8.170
610.08	8.619
610.41	8.369
610.74	8.824
611.07	8.037
611.41	9.193
611.74	8.822
612.07	7.807
612.40	8.413
612.73	7.922
613.07	8.264
613.40	8.951
613.73	8.666
614.06	8.440
614.39	7.969
614.72	8.054
615.06	8.133
615.39	7.878
615.72	8.578
616.05	7.674
616.38	8.123
616.71	8.621
617.05	7.827
617.38	8.454
617.71	8.315
618.04	8.257
618.37	7.978
618.70	8.032
619.03	7.467
619.36	8.015
619.69	8.072
620.03	7.910
620.36	7.853
620.69	7.526
621.02	8.333
621.35	7.983
621.68	9.038
622.01	7.900
622.34	7.880
622.67	7.148
623.00	7.085
623.33	8.162
623.66	7.977
623.99	7.176
624.32	8.707
624.65	7.529
624.99	7.802
625.32	8.426
625.65	7.620
625.98	7.390
626.31	7.938
626.64	7.766
626.97	7.802
627.30	6.986
627.63	8.552
627.96	8.634
628.29	7.938
628.62	7.137
628.95	7.450
629.28	6.882
629.61	8.670
629.94	7.029
630.26	7.373
630.59	7.513
630.92	6.147
631.25	8.945
631.58	7.815
631.91	6.467
632.24	7.012
632.57	7.306
632.90	7.422
633.23	7.143
633.56	6.837
633.89	7.335
634.22	8.316
634.55	8.142
634.88	7.035
635.20	8.827
635.53	6.441
635.86	7.476
636.19	8.165
636.52	8.544
636.85	7.150
637.18	7.796
637.51	7.204
637.83	8.084
638.16	8.065
638.49	7.394
638.82	7.215
639.15	5.842
639.48	8.430
639.81	7.044
640.13	6.949
640.46	5.212
640.79	5.515
641.12	8.571
641.45	6.148
641.77	10.526
642.10	5.118
642.43	8.644
642.76	6.640
643.09	5.890
643.41	6.303
643.74	9.241
644.07	7.862
644.40	7.921
644.73	6.676
645.05	6.608
645.38	7.482
645.71	8.358
646.04	8.321
646.36	6.277
646.69	5.982
647.02	8.104
647.35	7.328
647.67	7.729
648.00	7.006
648.33	6.757
648.66	5.421
648.98	7.619
649.31	7.307
649.64	6.773
649.96	7.825
650.29	5.841
650.62	6.789
650.94	6.456
651.27	6.437
651.60	5.848
651.92	5.775
652.25	7.091
652.58	6.740
652.90	5.233
653.23	7.606
653.56	7.133
653.88	8.287
654.21	7.465
654.54	6.214
654.86	7.224
655.19	7.026
655.52	7.662
655.84	7.065
656.17	8.449
656.49	11.850
656.82	13.150
657.15	10.177
657.47	7.735
657.80	5.751
658.13	4.461
658.45	5.943
658.78	7.267
659.10	6.838
659.43	6.703
659.75	6.080
660.08	5.938
660.41	6.038
660.73	7.526
661.06	5.874
661.38	6.220
661.71	6.724
662.03	5.820
662.36	7.513
662.68	6.379
663.01	7.080
663.33	9.074
663.66	8.425
663.98	5.769
664.31	7.317
664.63	4.817
664.96	5.808
665.28	4.900
665.61	7.692
665.93	4.821
666.26	7.168
666.58	7.196
666.91	7.477
667.23	6.857
667.56	5.917
667.88	8.000
668.21	5.469
668.53	4.440
668.86	6.876
669.18	4.888
669.50	5.169
669.83	5.000
670.15	2.756
670.48	4.563
670.80	4.015
671.13	5.293
671.45	5.512
671.77	7.721
672.10	5.500
672.42	5.016
672.75	4.762
673.07	5.970
673.39	5.239
673.72	5.705
674.04	6.379
674.37	6.082
674.69	8.113
675.01	5.905
675.34	6.679
675.66	4.494
675.98	6.716
676.31	6.250
676.63	7.414
676.95	8.429
677.28	6.855
677.60	4.921
677.92	6.334
678.25	5.667
678.57	8.719
678.89	6.485
679.22	4.878
679.54	6.838
679.86	4.746
680.18	6.302
680.51	7.390
680.83	6.710
681.15	6.207
681.48	7.254
681.80	5.699
682.12	5.070
682.44	5.008
682.77	5.674
683.09	5.303
683.41	5.814
683.73	6.641
684.06	5.535
684.38	5.903
684.70	5.745
685.02	7.229
685.34	6.156
685.67	5.521
685.99	5.061
686.31	4.215
686.63	4.739
686.96	7.886
687.28	6.026
687.60	3.199
687.92	3.859
688.24	6.511
688.56	5.345
688.89	6.897
689.21	4.892
689.53	4.510
689.85	4.931
690.17	6.481
690.49	4.781
690.82	3.366
691.14	4.656
691.46	5.927
691.78	4.604
692.10	3.303
692.42	5.536
692.74	5.989
693.06	3.704
693.39	4.175
693.71	3.759
694.03	5.948
694.35	6.667
694.67	3.696
694.99	4.468
695.31	2.870
695.63	4.978
695.95	6.211
696.27	5.714
696.59	7.965
696.91	5.856
697.23	6.374
697.56	5.906
697.88	4.545
698.20	6.403
698.52	6.629
698.84	4.782
699.16	7.755
699.48	4.812
699.80	5.319
700.12	5.677
700.44	7.143
700.76	6.888
701.08	6.295
701.40	5.440
701.72	6.965
702.04	5.882
702.36	3.665
702.68	6.112
703.00	4.890
703.32	3.941
703.64	6.112
703.96	7.637
704.28	3.931
704.60	6.582
704.91	5.867
705.23	3.014
705.55	7.521
705.87	7.273
706.19	4.908
706.51	2.711
706.83	4.323
707.15	1.852
707.47	4.907
707.79	5.022
708.11	4.025
708.43	4.086
708.74	2.679
709.06	3.712
709.38	4.695
709.70	7.196
710.02	6.977
710.34	6.915
710.66	4.749
710.98	6.831
711.29	3.571
711.61	4.520
711.93	7.407
712.25	4.324
712.57	6.490
712.89	9.118
713.20	5.030
713.52	6.647
713.84	8.635
714.16	7.105
714.48	5.928
714.80	6.753
715.11	5.512
715.43	5.040
715.75	5.263
716.07	4.972
716.39	5.738
716.70	4.217
717.02	9.508
717.34	1.742
717.66	4.027
717.97	1.027
718.29	0.344
718.61	3.947
718.93	3.236
719.24	5.590
719.56	4.601
719.88	5.706
720.20	7.097
720.51	5.901
720.83	5.938
721.15	5.263
721.46	-0.685
721.78	3.000
722.10	3.236
722.42	1.342
722.73	3.871
723.05	8.772
723.37	3.819
723.68	6.810
724.00	3.971
724.32	-1.056
724.63	7.343
724.95	8.511
725.27	5.923
725.58	2.473
725.90	4.828
726.22	5.956
726.53	7.143
726.85	7.233
727.16	3.323
727.48	6.422
727.80	6.623
728.11	5.654
728.43	4.040
728.74	7.358
729.06	3.974
729.38	2.922
729.69	3.020
730.01	5.357
730.32	5.758
730.64	5.346
730.96	0.621
731.27	8.101
731.59	3.022
731.90	4.935
732.22	5.469
732.53	1.934
732.85	4.571
733.16	2.933
733.48	4.268
733.80	2.786
734.11	4.558
734.43	7.297
734.74	6.582
735.06	4.523
735.37	3.243
735.69	5.676
736.00	7.627
736.32	6.199
736.63	4.167
736.95	4.598
737.26	5.455
737.58	1.515
737.89	6.765
738.21	3.670
738.52	2.951
738.83	5.119
739.15	4.965
739.46	5.442
739.78	5.828
740.09	4.871
740.41	5.248
740.72	3.000
741.04	8.091
741.35	4.561
741.66	3.137
741.98	6.967
742.29	2.092
742.61	4.825
742.92	3.077
743.23	5.415
743.55	6.589
743.86	4.400
744.18	0.413
744.49	4.219
744.80	2.881
745.12	1.266
745.43	3.659
745.74	3.448
746.06	2.542
746.37	8.017
746.68	8.943
747.00	4.583
747.31	1.717
747.62	8.462
747.94	4.453
748.25	1.606
748.56	3.673
748.88	1.709
749.19	4.741
749.50	-1.732
749.82	4.819
750.13	3.559
750.44	2.000
750.75	6.154
751.07	4.615
751.38	5.994
751.69	5.112
752.01	2.589
752.32	0.980
752.63	3.741
752.94	3.460
753.26	2.974
753.57	1.111
753.88	0.749
754.19	5.788
754.51	2.251
754.82	2.251
755.13	5.246
755.44	2.048
755.75	7.237
756.07	6.866
756.38	2.830
756.69	7.229
757.00	1.108
757.31	5.464
757.63	2.813
757.94	3.521
758.25	4.063
758.56	3.050
758.87	6.591
759.18	4.000
759.50	6.232
759.81	7.283
760.12	6.199
760.43	6.250
760.74	3.448
761.05	7.000
761.36	4.819
761.67	3.553
761.99	4.595
762.30	3.963
762.61	4.620
762.92	5.597
763.23	8.240
763.54	3.957
763.85	4.124
764.16	6.734
764.47	2.817
764.78	4.792
765.10	4.692
765.41	10.000
765.72	0.265
766.03	4.237
766.34	2.821
766.65	0.348
766.96	3.586
767.27	-0.461
767.58	2.985
767.89	9.135
768.20	3.756
768.51	8.333
768.82	5.221
769.13	5.303
769.44	-1.923
769.75	2.527
770.06	2.692
770.37	4.724
770.68	-3.830
770.99	-1.215
771.30	6.667
771.61	4.183
771.92	1.111
772.23	3.644
772.54	3.704
772.85	5.991
773.16	9.048
773.47	-1.587
773.78	-1.622
774.09	3.977
774.39	3.500
774.70	9.290
775.01	4.268
775.32	-2.353
775.63	2.454
775.94	-7.006
776.25	5.161
776.56	5.769
776.87	7.483
777.18	0.000
777.48	-2.098
777.79	2.703
778.10	3.676
778.41	2.083
778.72	10.345
779.03	-3.704
779.34	5.455
779.65	5.181
779.95	5.556
780.26	3.409
780.57	1.935
780.88	7.971
781.19	7.742
781.50	7.647
781.80	6.452
782.11	7.937
782.42	-0.505
782.73	-2.994
783.04	3.352
783.34	-0.606
783.65	-1.307
783.96	6.211
784.27	0.595
784.57	0.000
784.88	5.000
785.19	3.150
785.50	1.575
785.81	6.015
786.11	1.538
786.42	-2.878
786.73	0.000
787.04	3.759
787.34	2.459
787.65	1.600
787.96	10.448
788.26	12.587
788.57	2.098
788.88	6.579
789.19	7.190
789.49	2.055
789.80	9.220
790.11	10.236
790.41	7.031
790.72	5.085
791.03	-12.621
791.33	8.696
791.64	8.772
791.95	-0.893
792.25	4.762
792.56	0.000
792.87	-1.042
793.17	4.464
793.48	-5.208
793.79	-6.024
794.09	3.670
794.40	-9.174
794.70	6.803
795.01	-0.649
795.32	6.164
795.62	7.042
795.93	0.000
796.23	10.656
796.54	2.679
796.85	-3.191
797.15	-7.609
797.46	-5.479
797.76	-12.500
798.07	2.174
798.37	1.031
798.68	-12.987
798.99	13.793
799.29	3.371
799.60	4.255
799.90	6.024
800.21	-7.692
800.51	-1.493
800.82	-2.941
801.12	-15.068
801.43	-26.471
801.73	3.390
802.04	0.000
802.34	-15.000
802.65	-1.695
802.95	5.970
803.26	0.000
803.56	-1.370
803.87	5.714
804.17	16.438
804.48	-33.333
804.78	-12.500
805.09	-6.897
805.39	-1.351
805.70	-16.901
806.00	2.439
806.30	0.000
806.61	-19.178
806.91	13.462
807.22	-5.556
807.52	-11.494
807.83	0.000
808.13	12.048
808.43	-4.494
808.74	-2.500
809.04	-13.235
809.35	-2.667
809.65	12.857
809.95	8.219
810.26	-19.298
810.56	-3.448
810.86	27.941
811.17	-7.018
811.47	1.639
811.77	-26.667
812.08	3.390
812.38	-1.667
812.69	0.000
812.99	-5.660
813.29	-33.333
813.59	-2.000
813.90	3.509
814.20	-14.545
814.50	4.225
814.81	7.692
815.11	16.393
815.41	-4.478
815.72	5.172
816.02	-21.429
816.32	22.222
816.62	2.273
816.93	4.444
817.23	3.704
817.53	-6.383
817.84	2.381
818.14	5.882
818.44	4.082
818.74	6.667
819.04	-7.692
819.35	-20.000
819.65	-7.692
819.95	-1.887
820.25	4.444
820.56	-7.143
820.86	-18.750
821.16	-17.949
821.46	-6.977
821.76	-4.000
822.07	14.286
822.37	-28.261
822.67	-4.255
822.97	-32.432
823.27	-5.000
823.57	36.735
823.88	6.667
824.18	-5.000
824.48	-23.333
824.78	-24.000
825.08	-9.091
825.38	13.333
825.69	-4.255
825.99	2.778
826.29	-22.857
826.59	-15.385
826.89	-4.651
827.19	-8.000
827.49	-23.529
827.79	6.250
828.09	-10.811
828.39	-30.000
828.70	14.634
829.00	-16.279
829.30	-32.143
829.60	5.882
829.90	-4.348
830.20	-5.714
830.50	-13.793
830.80	-61.111
831.10	-53.846
831.40	-2.941
831.70	-14.286
832.00	19.355
832.30	-70.588
832.60	-41.667
832.90	-123.077
833.20	-31.579
833.50	15.000
833.80	-26.316
834.10	-23.810
834.40	2.778
834.70	28.125
835.00	-28.571
835.30	-23.529
835.60	6.667
835.90	-4.000
836.20	-90.909
836.50	-8.000
836.80	-12.121
837.10	-3.704
837.40	7.407
837.70	-81.250
838.00	17.857
838.30	4.348
838.60	10.345
838.90	-42.857
839.19	-60.870
839.49	-108.333
839.79	4.348
840.09	-75.000
840.39	-40.000
840.69	9.677
840.99	3.571
841.29	6.667
841.59	-63.158
841.88	12.821
842.18	15.385
842.48	-230.000
842.78	-20.000
843.08	16.667
843.38	16.129
843.68	-38.889
843.97	5.882
844.27	6.250
844.57	-31.579
844.87	-60.000
845.17	-33.333
845.47	57.143
845.76	-28.571
846.06	-11.111
846.36	-29.412
846.66	19.231
846.96	-73.333
847.25	-52.941
847.55	34.783
847.85	20.000
848.15	-23.529
848.44	-45.455
848.74	38.095
849.04	-8.333
849.34	-50.000
849.63	-17.391
849.93	500.000
850.23	26.667
850.53	7.692
850.82	-54.545
851.12	-13.636
851.42	9.091
851.71	38.462
852.01	-20.000
852.31	38.462
852.61	0.000
852.90	-41.667
853.20	11.111
853.50	-122.222
853.79	-38.095
854.09	-36.364
854.39	-83.333
854.68	-3.226
854.98	-11.538
855.28	22.222
855.57	25.000
855.87	16.000
856.17	0.000
856.46	-7.407
856.76	-11.111
857.05	-43.478
857.35	-41.667
857.65	-46.154
857.94	0.000
858.24	14.815
858.53	13.043
858.83	0.000
859.13	-17.647
859.42	23.529
859.72	71.429
860.01	15.000
860.31	-66.667
860.60	-20.000
860.90	-6.667
861.20	-16.667
861.49	-46.154
861.79	10.000
862.08	-53.846
862.38	6.250
862.67	-11.765
862.97	-56.250
863.26	-33.333
863.56	-60.000
863.85	-90.909
864.15	0.000
864.44	-100.000
864.74	0.000
865.03	6.250
865.33	-110.000
865.62	-9.677
865.92	-4.545
866.21	47.826
866.51	50.000
866.80	-220.000
867.10	-16.667
867.39	-66.667
867.69	1300.000
867.98	-14.286
868.27	41.176
868.57	-1600.000
868.86	-150.000
869.16	-19.048
869.45	33.333
869.75	27.273
870.04	0.000
870.33	16.667
870.63	-157.143
870.92	-150.000
871.22	-175.000
871.51	-136.364
871.80	-433.333
872.10	-500.000
>>>>>End Processed Spectral Data<<<<<
