SpectraSuite Data File
++++++++++++++++++++++++++++++++++++
Date: Thu May 14 16:39:30 PDT 2015
User: schluterlab
Dark Spectrum Present: Yes
Reference Spectrum Present: Yes
Number of Sampled Component Spectra: 1
Spectrometers: USB2E3373
Integration Time (usec): 3000 (USB2E3373)
Spectra Averaged: 3 (USB2E3373)
Boxcar Smoothing: 0 (USB2E3373)
Correct for Electrical Dark: No (USB2E3373)
Strobe/Lamp Enabled: No (USB2E3373)
Correct for Detector Non-linearity: No (USB2E3373)
Correct for Stray Light: No (USB2E3373)
Number of Pixels in Processed Spectrum: 2048
>>>>>Begin Processed Spectral Data<<<<<
178.53	0.000
178.91	128.571
179.29	-800.000
179.67	-100.000
180.04	100.000
180.42	-0.000
180.80	160.000
181.18	-900.000
181.56	1000.000
181.94	200.000
182.31	-125.000
182.69	-0.000
183.07	-50.000
183.45	75.000
183.83	-50.000
184.20	-233.333
184.58	700.000
184.96	-125.000
185.34	-33.333
185.72	-60.000
186.09	166.667
186.47	200.000
186.85	300.000
187.23	-55.556
187.61	-900.000
187.98	-80.000
188.36	300.000
188.74	-75.000
189.12	-33.333
189.49	-6.250
189.87	-125.000
190.25	11.111
190.63	-40.000
191.00	-188.889
191.38	0.000
191.76	-275.000
192.14	33.333
192.51	-50.000
192.89	16.667
193.27	0.000
193.65	42.857
194.02	-1200.000
194.40	-71.429
194.78	142.857
195.15	0.000
195.53	-72.727
195.91	0.000
196.29	-75.000
196.66	-23.077
197.04	-1100.000
197.42	-42.857
197.79	-400.000
198.17	-37.500
198.55	-114.286
198.92	0.000
199.30	-112.500
199.68	-36.364
200.05	35.714
200.43	-200.000
200.81	142.857
201.18	0.000
201.56	44.444
201.94	0.000
202.31	300.000
202.69	-222.222
203.07	100.000
203.44	22.222
203.82	-225.000
204.19	-58.333
204.57	33.333
204.95	-62.500
205.32	-1300.000
205.70	175.000
206.08	-50.000
206.45	-116.667
206.83	160.000
207.20	-100.000
207.58	-40.000
207.96	-100.000
208.33	-66.667
208.71	33.333
209.08	183.333
209.46	0.000
209.84	216.667
210.21	700.000
210.59	400.000
210.96	433.333
211.34	75.000
211.71	-37.500
212.09	-700.000
212.46	0.000
212.84	800.000
213.22	-260.000
213.59	-125.000
213.97	30.000
214.34	33.333
214.72	133.333
215.09	-200.000
215.47	0.000
215.84	-28.571
216.22	200.000
216.59	120.000
216.97	-80.000
217.34	-75.000
217.72	-87.500
218.09	-75.000
218.47	-300.000
218.84	0.000
219.22	20.000
219.59	5.882
219.97	20.000
220.34	350.000
220.72	33.333
221.09	92.308
221.47	0.000
221.84	60.000
222.22	-142.857
222.59	0.000
222.97	62.500
223.34	-200.000
223.72	-800.000
224.09	25.000
224.46	-125.000
224.84	80.000
225.21	-300.000
225.59	-175.000
225.96	-75.000
226.34	0.000
226.71	250.000
227.08	-50.000
227.46	13.333
227.83	-100.000
228.21	10.526
228.58	25.000
228.95	200.000
229.33	16.667
229.70	10.000
230.08	78.947
230.45	-50.000
230.82	-300.000
231.20	-14.286
231.57	-41.667
231.95	-27.273
232.32	9.091
232.69	5.000
233.07	-150.000
233.44	35.294
233.81	-20.000
234.19	22.222
234.56	68.182
234.93	44.828
235.31	0.000
235.68	16.667
236.05	-20.000
236.43	19.231
236.80	28.000
237.17	18.519
237.55	-6.061
237.92	-130.000
238.29	9.677
238.67	-22.727
239.04	-2.778
239.41	-14.286
239.79	8.696
240.16	-7.407
240.53	-10.870
240.91	-15.686
241.28	6.557
241.65	5.970
242.02	9.459
242.40	-1.538
242.77	-6.667
243.14	-7.317
243.51	-15.789
243.89	-12.821
244.26	3.960
244.63	6.863
245.00	0.935
245.38	-7.018
245.75	-10.619
246.12	0.794
246.49	-6.202
246.87	-2.857
247.24	9.272
247.61	1.316
247.98	2.013
248.36	-0.617
248.73	-11.043
249.10	-1.639
249.47	4.478
249.84	4.188
250.22	-3.627
250.59	3.333
250.96	2.273
251.33	-8.163
251.70	2.991
252.08	2.083
252.45	0.820
252.82	-1.653
253.19	-1.172
253.56	1.521
253.94	-5.385
254.31	0.000
254.68	4.196
255.05	1.303
255.42	-2.721
255.79	2.589
256.16	-0.331
256.54	0.331
256.91	0.328
257.28	-1.311
257.65	-1.911
258.02	-3.540
258.39	0.000
258.76	3.058
259.14	2.011
259.51	-1.441
259.88	-3.399
260.25	-0.278
260.62	0.548
260.99	2.732
261.36	3.485
261.73	-1.061
262.10	-1.648
262.47	1.072
262.85	2.525
263.22	-1.039
263.59	-3.158
263.96	0.512
264.33	-2.558
264.70	0.247
265.07	1.909
265.44	3.175
265.81	0.463
266.18	0.907
266.55	-2.009
266.92	-1.822
267.29	1.751
267.66	1.330
268.03	-0.218
268.40	1.461
268.77	-2.278
269.14	-2.423
269.51	-0.219
269.88	1.434
270.25	-1.006
270.62	0.000
270.99	2.222
271.36	0.792
271.73	1.375
272.10	0.200
272.47	1.603
272.84	-0.602
273.21	0.601
273.58	1.411
273.95	-0.769
274.32	-0.951
274.69	-0.387
275.06	2.015
275.43	0.370
275.80	1.587
276.17	-0.556
276.54	-2.425
276.91	-1.252
277.28	0.723
277.65	0.898
278.02	0.551
278.39	-1.087
278.76	-1.582
279.13	-0.177
279.50	3.093
279.87	1.610
280.23	-2.817
280.60	1.695
280.97	1.480
281.34	-2.886
281.71	1.523
282.08	0.498
282.45	0.000
282.82	-0.314
283.19	-0.969
283.56	0.164
283.92	1.051
284.29	2.370
284.66	0.493
285.03	-0.481
285.40	0.464
285.77	0.929
286.14	-0.305
286.51	0.000
286.87	-0.474
287.24	1.657
287.61	0.000
287.98	0.302
288.35	0.000
288.72	0.000
289.08	2.343
289.45	-0.444
289.82	-0.151
290.19	0.862
290.56	1.549
290.93	0.143
291.29	0.964
291.66	0.689
292.03	0.271
292.40	1.361
292.77	1.348
293.13	0.000
293.50	-0.263
293.87	-0.268
294.24	1.867
294.60	1.391
294.97	-1.342
295.34	0.640
295.71	0.504
296.08	0.129
296.44	0.980
296.81	1.462
297.18	0.747
297.55	1.533
297.91	1.068
298.28	0.948
298.65	1.308
299.02	1.299
299.38	1.373
299.75	0.818
300.12	0.926
300.48	0.346
300.85	1.575
301.22	0.447
301.59	0.571
301.95	2.373
302.32	2.778
302.69	2.738
303.05	1.523
303.42	1.552
303.79	2.708
304.15	2.419
304.52	2.537
304.89	2.723
305.25	2.692
305.62	2.299
305.99	2.371
306.35	2.218
306.72	2.172
307.09	2.843
307.45	2.588
307.82	2.725
308.19	2.018
308.55	3.182
308.92	2.921
309.29	2.586
309.65	3.704
310.02	2.772
310.38	3.445
310.75	3.398
311.12	4.219
311.48	3.226
311.85	3.609
312.22	3.321
312.58	4.131
312.95	4.302
313.31	5.059
313.68	5.495
314.05	6.143
314.41	4.554
314.78	5.086
315.14	6.987
315.51	5.633
315.87	7.111
316.24	6.027
316.61	8.082
316.97	6.335
317.34	6.173
317.70	6.812
318.07	7.672
318.43	8.588
318.80	9.615
319.16	8.155
319.53	8.569
319.89	9.202
320.26	10.498
320.62	9.486
320.99	10.434
321.35	10.074
321.72	12.558
322.08	11.722
322.45	11.834
322.81	12.184
323.18	12.035
323.54	12.586
323.91	13.256
324.27	14.028
324.64	14.358
325.00	15.008
325.37	15.561
325.73	16.198
326.10	17.356
326.46	16.531
326.83	16.974
327.19	16.850
327.56	18.340
327.92	17.781
328.29	18.548
328.65	18.174
329.01	18.443
329.38	20.303
329.74	19.349
330.11	21.062
330.47	21.146
330.84	20.844
331.20	20.500
331.56	22.097
331.93	21.674
332.29	22.119
332.66	21.927
333.02	21.776
333.38	21.728
333.75	22.559
334.11	23.353
334.48	23.597
334.84	22.770
335.20	23.006
335.57	23.272
335.93	22.975
336.29	22.379
336.66	23.129
337.02	22.993
337.38	24.065
337.75	21.901
338.11	24.474
338.47	22.498
338.84	24.027
339.20	23.168
339.56	22.817
339.93	23.071
340.29	23.188
340.65	22.141
341.02	23.863
341.38	23.363
341.74	22.599
342.11	24.940
342.47	22.240
342.83	23.430
343.20	24.448
343.56	23.176
343.92	24.420
344.28	24.609
344.65	24.186
345.01	23.947
345.37	23.717
345.73	22.058
346.10	22.933
346.46	22.627
346.82	24.419
347.19	23.071
347.55	24.583
347.91	23.997
348.27	24.810
348.63	22.925
349.00	23.490
349.36	24.833
349.72	23.140
350.08	24.666
350.45	21.977
350.81	23.605
351.17	23.383
351.53	24.716
351.89	24.981
352.26	23.209
352.62	24.104
352.98	23.664
353.34	21.957
353.70	23.344
354.07	25.633
354.43	23.386
354.79	23.485
355.15	23.032
355.51	24.050
355.87	23.560
356.24	23.498
356.60	23.429
356.96	23.351
357.32	22.974
357.68	22.328
358.04	22.305
358.40	23.060
358.77	23.904
359.13	22.969
359.49	22.082
359.85	23.785
360.21	23.099
360.57	22.828
360.93	22.920
361.29	23.649
361.66	23.244
362.02	24.078
362.38	23.120
362.74	24.651
363.10	23.934
363.46	24.238
363.82	23.722
364.18	23.716
364.54	23.928
364.90	23.746
365.26	22.897
365.62	23.600
365.98	23.758
366.35	24.362
366.71	24.014
367.07	23.613
367.43	23.703
367.79	23.822
368.15	24.080
368.51	24.357
368.87	24.494
369.23	23.333
369.59	23.566
369.95	23.327
370.31	22.687
370.67	24.209
371.03	24.100
371.39	23.439
371.75	24.072
372.11	23.916
372.47	25.118
372.83	24.084
373.19	23.816
373.55	24.729
373.91	22.904
374.27	24.256
374.63	24.154
374.99	24.337
375.35	24.156
375.71	24.129
376.07	23.564
376.42	24.118
376.78	24.984
377.14	24.267
377.50	24.984
377.86	23.645
378.22	23.174
378.58	24.078
378.94	24.002
379.30	23.667
379.66	25.103
380.02	24.409
380.38	24.654
380.74	24.676
381.09	24.564
381.45	24.375
381.81	25.468
382.17	23.990
382.53	24.269
382.89	23.928
383.25	24.619
383.61	23.900
383.97	24.028
384.32	25.060
384.68	23.086
385.04	24.581
385.40	25.044
385.76	24.853
386.12	25.015
386.48	25.059
386.83	24.791
387.19	24.044
387.55	23.298
387.91	24.486
388.27	24.423
388.62	25.086
388.98	23.463
389.34	24.042
389.70	24.869
390.06	25.222
390.42	23.735
390.77	25.105
391.13	25.528
391.49	25.181
391.85	24.545
392.20	24.555
392.56	25.458
392.92	24.700
393.28	24.212
393.64	24.916
393.99	24.811
394.35	25.935
394.71	24.431
395.07	23.593
395.42	24.272
395.78	24.314
396.14	24.480
396.50	24.644
396.85	24.925
397.21	24.675
397.57	24.735
397.92	23.826
398.28	24.009
398.64	24.371
399.00	23.665
399.35	24.241
399.71	24.185
400.07	24.256
400.42	24.214
400.78	23.958
401.14	24.189
401.49	24.957
401.85	24.884
402.21	25.029
402.57	24.883
402.92	24.291
403.28	23.770
403.63	22.971
403.99	23.397
404.35	24.218
404.70	23.796
405.06	23.533
405.42	24.649
405.77	24.864
406.13	23.879
406.49	24.268
406.84	23.823
407.20	24.203
407.55	23.864
407.91	24.199
408.27	23.852
408.62	24.549
408.98	23.622
409.34	23.284
409.69	23.300
410.05	24.971
410.40	24.072
410.76	24.173
411.11	24.547
411.47	23.771
411.83	24.103
412.18	24.157
412.54	24.778
412.89	23.807
413.25	24.153
413.60	24.354
413.96	24.417
414.31	23.966
414.67	24.389
415.03	23.631
415.38	23.518
415.74	24.435
416.09	24.614
416.45	22.855
416.80	23.929
417.16	24.585
417.51	24.097
417.87	24.893
418.22	24.012
418.58	23.730
418.93	24.098
419.29	23.613
419.64	24.070
420.00	23.976
420.35	24.537
420.71	23.550
421.06	23.577
421.42	23.452
421.77	23.748
422.12	24.366
422.48	23.605
422.83	23.658
423.19	23.926
423.54	24.004
423.90	23.909
424.25	23.733
424.61	23.823
424.96	23.998
425.31	23.779
425.67	23.940
426.02	24.350
426.38	24.512
426.73	23.884
427.09	24.856
427.44	23.375
427.79	24.433
428.15	24.201
428.50	24.213
428.85	23.995
429.21	23.404
429.56	23.988
429.92	24.275
430.27	24.000
430.62	24.231
430.98	24.594
431.33	23.607
431.68	23.276
432.04	24.175
432.39	23.996
432.74	23.573
433.10	24.554
433.45	23.746
433.80	24.624
434.16	24.070
434.51	24.203
434.86	24.647
435.22	24.442
435.57	23.939
435.92	24.930
436.28	24.516
436.63	24.686
436.98	23.886
437.34	24.577
437.69	23.665
438.04	23.585
438.39	24.296
438.75	23.077
439.10	23.732
439.45	24.203
439.81	24.124
440.16	23.539
440.51	23.746
440.86	23.180
441.22	23.633
441.57	24.214
441.92	23.133
442.27	24.545
442.63	23.646
442.98	23.853
443.33	24.093
443.68	24.034
444.03	25.118
444.39	23.625
444.74	24.758
445.09	24.024
445.44	24.131
445.79	23.946
446.15	24.306
446.50	23.824
446.85	23.930
447.20	24.226
447.55	23.902
447.91	24.188
448.26	23.837
448.61	23.804
448.96	24.303
449.31	23.118
449.66	23.529
450.02	23.681
450.37	24.294
450.72	24.058
451.07	23.975
451.42	24.090
451.77	23.569
452.12	24.323
452.47	24.242
452.83	24.775
453.18	24.518
453.53	23.205
453.88	24.020
454.23	23.446
454.58	24.086
454.93	23.726
455.28	24.142
455.63	24.048
455.98	23.575
456.34	23.734
456.69	24.103
457.04	24.173
457.39	23.559
457.74	24.105
458.09	23.668
458.44	24.030
458.79	23.259
459.14	23.335
459.49	24.165
459.84	23.295
460.19	23.542
460.54	22.998
460.89	23.928
461.24	23.161
461.59	24.350
461.94	22.932
462.29	23.908
462.64	23.537
462.99	23.227
463.34	24.400
463.69	23.154
464.04	24.514
464.39	24.439
464.74	23.831
465.09	23.068
465.44	24.195
465.79	24.114
466.14	23.606
466.49	23.474
466.84	23.140
467.19	23.873
467.54	22.209
467.89	22.644
468.24	23.823
468.59	22.988
468.94	22.436
469.29	22.975
469.64	23.903
469.99	23.773
470.34	23.886
470.68	23.035
471.03	23.510
471.38	23.283
471.73	22.757
472.08	23.477
472.43	23.299
472.78	24.559
473.13	22.756
473.48	23.384
473.83	22.983
474.17	23.154
474.52	23.211
474.87	23.533
475.22	23.606
475.57	23.364
475.92	22.897
476.27	23.269
476.61	22.586
476.96	21.898
477.31	22.475
477.66	22.980
478.01	22.471
478.36	23.180
478.70	22.463
479.05	23.569
479.40	23.100
479.75	23.631
480.10	23.496
480.45	23.428
480.79	23.447
481.14	22.518
481.49	22.899
481.84	22.759
482.19	22.667
482.53	21.950
482.88	22.907
483.23	22.588
483.58	21.965
483.92	22.119
484.27	22.439
484.62	22.525
484.97	22.589
485.31	21.823
485.66	21.010
486.01	21.090
486.36	21.292
486.70	21.773
487.05	21.811
487.40	21.871
487.75	21.934
488.09	21.922
488.44	21.486
488.79	22.428
489.13	20.927
489.48	21.398
489.83	22.093
490.17	21.790
490.52	22.044
490.87	21.362
491.22	21.577
491.56	22.056
491.91	22.242
492.26	22.415
492.60	22.081
492.95	22.027
493.30	22.277
493.64	22.208
493.99	22.368
494.34	21.080
494.68	21.756
495.03	21.586
495.37	22.237
495.72	22.585
496.07	22.568
496.41	21.321
496.76	21.852
497.11	21.444
497.45	22.011
497.80	21.901
498.14	21.134
498.49	21.783
498.84	22.623
499.18	22.042
499.53	21.928
499.87	21.495
500.22	21.060
500.56	21.592
500.91	21.968
501.26	21.318
501.60	20.901
501.95	21.711
502.29	21.369
502.64	20.726
502.98	21.700
503.33	21.037
503.67	20.802
504.02	21.060
504.36	21.716
504.71	21.130
505.06	21.692
505.40	21.481
505.75	22.040
506.09	20.672
506.44	21.031
506.78	21.560
507.13	21.715
507.47	21.270
507.82	20.265
508.16	20.315
508.51	20.722
508.85	21.540
509.19	20.606
509.54	21.470
509.88	21.030
510.23	21.952
510.57	21.411
510.92	21.093
511.26	19.721
511.61	20.135
511.95	20.595
512.30	21.073
512.64	20.390
512.98	20.410
513.33	21.270
513.67	20.857
514.02	21.002
514.36	20.716
514.70	20.625
515.05	20.490
515.39	21.312
515.74	20.679
516.08	20.655
516.42	20.984
516.77	21.030
517.11	19.288
517.46	21.050
517.80	21.807
518.14	20.838
518.49	20.662
518.83	20.596
519.17	20.732
519.52	20.388
519.86	20.169
520.20	20.554
520.55	20.975
520.89	20.608
521.23	20.156
521.58	20.621
521.92	20.227
522.26	20.504
522.61	20.428
522.95	20.012
523.29	20.862
523.64	20.404
523.98	21.392
524.32	21.089
524.66	20.774
525.01	19.706
525.35	19.357
525.69	19.664
526.04	19.805
526.38	19.943
526.72	19.089
527.06	20.176
527.41	20.350
527.75	19.656
528.09	20.307
528.43	20.071
528.78	19.884
529.12	19.438
529.46	19.224
529.80	19.851
530.15	19.420
530.49	19.632
530.83	19.835
531.17	20.072
531.51	20.036
531.86	19.892
532.20	19.573
532.54	19.689
532.88	19.030
533.22	20.448
533.57	19.273
533.91	18.911
534.25	18.994
534.59	19.023
534.93	18.506
535.27	19.549
535.62	20.011
535.96	19.349
536.30	19.036
536.64	20.601
536.98	20.357
537.32	18.704
537.66	19.464
538.01	19.215
538.35	18.758
538.69	18.750
539.03	19.191
539.37	18.257
539.71	19.279
540.05	18.825
540.39	17.787
540.73	18.397
541.07	18.455
541.42	18.547
541.76	17.675
542.10	17.853
542.44	18.758
542.78	19.708
543.12	18.117
543.46	18.376
543.80	17.626
544.14	17.953
544.48	18.794
544.82	18.791
545.16	17.651
545.50	17.795
545.84	18.432
546.18	18.580
546.52	18.217
546.86	17.610
547.20	18.321
547.54	18.477
547.88	17.360
548.22	18.246
548.56	18.081
548.90	17.373
549.24	17.568
549.58	18.486
549.92	18.176
550.26	17.735
550.60	17.549
550.94	18.499
551.28	17.888
551.62	19.003
551.96	18.058
552.30	18.292
552.64	17.113
552.98	16.656
553.32	17.749
553.66	17.621
554.00	17.591
554.34	17.696
554.68	17.495
555.02	17.346
555.36	17.554
555.69	17.297
556.03	16.456
556.37	17.084
556.71	16.677
557.05	17.508
557.39	17.253
557.73	16.314
558.07	17.086
558.41	17.409
558.75	17.106
559.08	17.537
559.42	16.735
559.76	16.689
560.10	17.013
560.44	16.623
560.78	17.688
561.12	17.241
561.45	17.518
561.79	16.667
562.13	16.389
562.47	16.276
562.81	16.582
563.15	17.172
563.48	17.589
563.82	16.143
564.16	16.778
564.50	17.163
564.84	16.283
565.17	16.941
565.51	15.420
565.85	16.033
566.19	15.323
566.52	15.331
566.86	16.072
567.20	15.226
567.54	15.295
567.88	15.698
568.21	16.403
568.55	16.115
568.89	16.069
569.23	15.463
569.56	15.201
569.90	14.790
570.24	14.907
570.57	15.074
570.91	14.054
571.25	14.406
571.59	14.862
571.92	14.579
572.26	14.426
572.60	14.687
572.93	14.306
573.27	14.133
573.61	14.293
573.95	14.008
574.28	14.179
574.62	14.006
574.96	13.917
575.29	13.880
575.63	13.929
575.97	14.228
576.30	13.644
576.64	13.911
576.98	13.667
577.31	14.039
577.65	13.351
577.98	13.667
578.32	13.587
578.66	13.551
578.99	13.516
579.33	13.717
579.67	13.350
580.00	13.621
580.34	13.743
580.67	13.350
581.01	13.436
581.35	13.676
581.68	13.629
582.02	13.192
582.35	13.565
582.69	13.582
583.02	13.698
583.36	13.576
583.70	13.383
584.03	13.367
584.37	13.528
584.70	13.350
585.04	13.136
585.37	13.080
585.71	13.096
586.04	13.166
586.38	13.695
586.72	13.086
587.05	13.175
587.39	13.363
587.72	13.110
588.06	13.612
588.39	13.094
588.73	13.122
589.06	13.234
589.40	13.522
589.73	13.753
590.07	13.428
590.40	13.692
590.73	13.185
591.07	13.887
591.40	13.297
591.74	13.474
592.07	13.804
592.41	13.407
592.74	13.348
593.08	13.567
593.41	13.532
593.75	13.592
594.08	13.026
594.41	13.365
594.75	12.355
595.08	12.685
595.42	13.149
595.75	13.400
596.09	13.216
596.42	13.185
596.75	13.315
597.09	13.091
597.42	13.270
597.75	13.603
598.09	13.016
598.42	13.309
598.76	12.801
599.09	12.353
599.42	12.705
599.76	12.843
600.09	12.846
600.42	12.713
600.76	12.847
601.09	12.346
601.42	12.702
601.76	12.862
602.09	12.652
602.42	12.614
602.76	12.804
603.09	12.188
603.42	12.681
603.76	12.227
604.09	12.988
604.42	12.917
604.76	12.443
605.09	12.565
605.42	12.679
605.75	12.192
606.09	11.945
606.42	12.404
606.75	12.144
607.09	12.135
607.42	12.331
607.75	12.583
608.08	12.194
608.42	12.293
608.75	12.687
609.08	12.351
609.41	12.660
609.75	12.232
610.08	12.797
610.41	12.447
610.74	12.269
611.07	11.812
611.41	12.601
611.74	12.286
612.07	12.108
612.40	11.787
612.73	12.665
613.07	13.203
613.40	12.608
613.73	12.374
614.06	12.463
614.39	12.148
614.72	12.130
615.06	12.271
615.39	11.696
615.72	12.038
616.05	11.948
616.38	12.109
616.71	12.435
617.05	11.821
617.38	13.002
617.71	12.473
618.04	12.250
618.37	11.749
618.70	12.161
619.03	11.947
619.36	11.899
619.69	11.595
620.03	12.367
620.36	12.331
620.69	11.906
621.02	13.058
621.35	12.554
621.68	14.027
622.01	12.740
622.34	11.925
622.67	12.234
623.00	10.999
623.33	12.541
623.66	13.035
623.99	11.718
624.32	12.671
624.65	11.969
624.99	12.159
625.32	12.671
625.65	12.744
625.98	12.000
626.31	11.765
626.64	12.747
626.97	11.853
627.30	10.402
627.63	11.928
627.96	13.063
628.29	11.829
628.62	12.175
628.95	12.358
629.28	11.555
629.61	12.458
629.94	11.464
630.26	12.119
630.59	12.176
630.92	12.035
631.25	13.238
631.58	11.488
631.91	10.965
632.24	12.968
632.57	11.385
632.90	11.936
633.23	12.143
633.56	12.041
633.89	11.983
634.22	12.786
634.55	12.004
634.88	12.879
635.20	13.132
635.53	12.542
635.86	11.593
636.19	14.316
636.52	12.131
636.85	12.053
637.18	12.682
637.51	12.581
637.83	12.957
638.16	12.327
638.49	13.850
638.82	12.401
639.15	12.027
639.48	14.781
639.81	11.663
640.13	13.428
640.46	10.303
640.79	10.662
641.12	12.547
641.45	11.418
641.77	13.479
642.10	12.598
642.43	13.564
642.76	13.686
643.09	11.644
643.41	10.924
643.74	11.310
644.07	12.828
644.40	11.457
644.73	11.321
645.05	12.335
645.38	13.669
645.71	12.317
646.04	14.060
646.36	11.387
646.69	14.110
647.02	13.761
647.35	13.893
647.67	13.527
648.00	10.828
648.33	12.312
648.66	11.127
648.98	12.245
649.31	11.367
649.64	12.616
649.96	12.599
650.29	11.961
650.62	10.184
650.94	9.910
651.27	9.731
651.60	11.696
651.92	11.398
652.25	11.867
652.58	11.142
652.90	10.465
653.23	11.972
653.56	11.555
653.88	13.483
654.21	12.254
654.54	11.272
654.86	12.323
655.19	11.041
655.52	10.136
655.84	9.514
656.17	11.579
656.49	16.102
656.82	17.748
657.15	13.487
657.47	10.262
657.80	7.523
658.13	5.971
658.45	7.702
658.78	9.279
659.10	9.368
659.43	9.156
659.75	8.999
660.08	9.020
660.41	10.174
660.73	8.552
661.06	9.838
661.38	10.207
661.71	11.207
662.03	9.700
662.36	12.880
662.68	11.069
663.01	12.212
663.33	12.098
663.66	14.286
663.98	10.769
664.31	14.447
664.63	11.368
664.96	11.797
665.28	10.526
665.61	11.538
665.93	9.643
666.26	14.158
666.58	9.594
666.91	13.084
667.23	11.619
667.56	11.440
667.88	13.800
668.21	10.547
668.53	9.073
668.86	11.591
669.18	10.183
669.50	10.537
669.83	8.800
670.15	9.252
670.48	12.103
670.80	8.987
671.13	10.964
671.45	10.827
671.77	11.864
672.10	10.000
672.42	11.974
672.75	10.753
673.07	10.299
673.39	8.783
673.72	10.906
674.04	11.207
674.37	11.807
674.69	12.169
675.01	8.952
675.34	10.687
675.66	11.049
675.98	13.246
676.31	8.984
676.63	13.118
676.95	9.387
677.28	8.468
677.60	9.055
677.92	10.940
678.25	10.603
678.57	11.744
678.89	12.287
679.22	8.188
679.54	11.966
679.86	7.966
680.18	9.453
680.51	10.220
680.83	11.620
681.15	8.966
681.48	10.363
681.80	11.399
682.12	9.266
682.44	11.018
682.77	10.284
683.09	10.227
683.41	10.078
683.73	10.436
684.06	9.410
684.38	6.977
684.70	11.131
685.02	9.639
685.34	8.486
685.67	8.675
685.99	8.896
686.31	6.831
686.63	10.269
686.96	9.779
687.28	8.632
687.60	8.754
687.92	9.807
688.24	10.851
688.56	10.000
688.89	9.256
689.21	10.176
689.53	9.804
689.85	8.284
690.17	9.259
690.49	8.964
690.82	11.287
691.14	8.097
691.46	9.943
691.78	12.155
692.10	8.807
692.42	8.750
692.74	8.893
693.06	8.519
693.39	9.488
693.71	8.835
694.03	8.364
694.35	11.619
694.67	9.651
694.99	10.638
695.31	9.051
695.63	9.957
695.95	8.489
696.27	10.110
696.59	9.735
696.91	9.009
697.23	12.308
697.56	7.128
697.88	8.333
698.20	9.040
698.52	10.417
698.84	8.940
699.16	9.796
699.48	9.623
699.80	7.660
700.12	10.262
700.44	9.677
700.76	9.976
701.08	11.622
701.40	6.736
701.72	11.940
702.04	10.695
702.36	6.545
702.68	11.002
703.00	10.024
703.32	7.389
703.64	10.024
703.96	12.411
704.28	8.108
704.60	9.367
704.91	7.653
705.23	9.863
705.55	10.585
705.87	10.303
706.19	9.509
706.51	5.422
706.83	10.086
707.15	6.085
707.47	8.645
707.79	8.734
708.11	5.508
708.43	6.022
708.74	6.473
709.06	9.281
709.38	9.859
709.70	10.174
710.02	9.819
710.34	10.904
710.66	7.821
710.98	8.470
711.29	4.670
711.61	9.887
711.93	11.396
712.25	10.000
712.57	13.569
712.89	12.059
713.20	8.580
713.52	10.405
713.84	9.192
714.16	8.947
714.48	7.990
714.80	7.532
715.11	8.661
715.43	8.223
715.75	8.158
716.07	9.669
716.39	10.383
716.70	7.530
717.02	6.885
717.34	4.530
717.66	9.732
717.97	7.534
718.29	6.529
718.61	7.566
718.93	9.709
719.24	9.317
719.56	6.442
719.88	9.009
720.20	7.097
720.51	9.317
720.83	7.500
721.15	9.211
721.46	4.452
721.78	9.333
722.10	4.531
722.42	7.047
722.73	8.065
723.05	8.421
723.37	8.681
723.68	10.036
724.00	9.747
724.32	12.676
724.63	8.392
724.95	8.156
725.27	8.362
725.58	3.534
725.90	10.000
726.22	8.150
726.53	8.117
726.85	10.692
727.16	9.668
727.48	8.563
727.80	8.940
728.11	6.007
728.43	9.091
728.74	6.020
729.06	8.278
729.38	11.364
729.69	7.718
730.01	8.333
730.32	6.667
730.64	9.119
730.96	4.037
731.27	10.615
731.59	7.692
731.90	6.494
732.22	5.990
732.53	6.077
732.85	6.286
733.16	8.798
733.48	6.707
733.80	6.685
734.11	6.553
734.43	6.486
734.74	11.899
735.06	4.774
735.37	8.649
735.69	7.568
736.00	8.192
736.32	5.391
736.63	9.444
736.95	6.322
737.26	7.273
737.58	7.576
737.89	10.000
738.21	3.058
738.52	7.869
738.83	7.167
739.15	8.511
739.46	8.503
739.78	11.656
740.09	6.590
740.41	9.621
740.72	7.667
741.04	10.032
741.35	8.070
741.66	9.020
741.98	7.377
742.29	12.971
742.61	11.842
742.92	8.846
743.23	9.025
743.55	6.202
743.86	9.200
744.18	5.785
744.49	5.485
744.80	7.819
745.12	10.970
745.43	10.569
745.74	5.172
746.06	5.508
746.37	8.017
746.68	11.789
747.00	6.250
747.31	8.155
747.62	9.615
747.94	2.834
748.25	8.835
748.56	5.306
748.88	1.282
749.19	11.207
749.50	6.926
749.82	9.639
750.13	10.676
750.44	6.667
750.75	4.308
751.07	5.538
751.38	5.678
751.69	7.668
752.01	5.502
752.32	3.922
752.63	7.143
752.94	6.920
753.26	4.833
753.57	6.296
753.88	8.989
754.19	7.074
754.51	5.466
754.82	8.360
755.13	7.869
755.44	9.898
755.75	8.553
756.07	11.045
756.38	9.748
756.69	9.639
757.00	4.432
757.31	7.377
757.63	5.115
757.94	7.042
758.25	7.675
758.56	6.318
758.87	8.182
759.18	6.133
759.50	8.782
759.81	7.003
760.12	7.008
760.43	7.552
760.74	7.635
761.05	5.500
761.36	5.060
761.67	7.868
761.99	8.649
762.30	6.098
762.61	7.261
762.92	7.090
763.23	7.491
763.54	12.950
763.85	7.560
764.16	8.754
764.47	5.282
764.78	8.626
765.10	8.504
765.41	10.256
765.72	4.762
766.03	7.627
766.34	5.956
766.65	5.226
766.96	4.781
767.27	7.834
767.58	1.493
767.89	12.500
768.20	8.920
768.51	5.093
768.82	2.811
769.13	7.197
769.44	4.615
769.75	10.830
770.06	4.615
770.37	7.874
770.68	3.830
770.99	-0.405
771.30	11.111
771.61	7.224
771.92	1.481
772.23	8.502
772.54	-2.315
772.85	9.217
773.16	8.571
773.47	0.529
773.78	-4.865
774.09	4.545
774.39	8.500
774.70	7.650
775.01	-3.049
775.32	1.176
775.63	8.589
775.94	-2.548
776.25	6.452
776.56	10.897
776.87	12.925
777.18	5.517
777.48	6.993
777.79	2.703
778.10	0.735
778.41	9.028
778.72	10.345
779.03	2.469
779.34	-1.818
779.65	5.699
779.95	11.111
780.26	3.977
780.57	10.323
780.88	2.174
781.19	12.903
781.50	6.471
781.80	9.140
782.11	4.762
782.42	0.000
782.73	-0.599
783.04	5.587
783.34	6.667
783.65	2.614
783.96	3.727
784.27	9.524
784.57	3.974
784.88	7.857
785.19	11.024
785.50	0.787
785.81	6.767
786.11	10.000
786.42	3.597
786.73	2.878
787.04	10.526
787.34	4.918
787.65	8.800
787.96	1.493
788.26	8.392
788.57	11.189
788.88	4.605
789.19	16.340
789.49	6.164
789.80	5.674
790.11	15.748
790.41	7.031
790.72	4.237
791.03	-8.738
791.33	1.739
791.64	1.754
791.95	5.357
792.25	2.857
792.56	5.357
792.87	-1.042
793.17	4.464
793.48	7.292
793.79	-1.205
794.09	5.505
794.40	-9.174
794.70	10.204
795.01	4.545
795.32	2.055
795.62	11.268
795.93	6.061
796.23	8.197
796.54	-0.893
796.85	2.128
797.15	-3.261
797.46	4.110
797.76	3.750
798.07	1.087
798.37	1.031
798.68	-7.792
798.99	-2.299
799.29	3.371
799.60	-5.319
799.90	-2.410
800.21	-13.846
800.51	5.970
800.82	-1.471
801.12	-8.219
801.43	-5.882
801.73	-13.559
802.04	-12.121
802.34	-11.667
802.65	-11.864
802.95	4.478
803.26	6.780
803.56	-2.740
803.87	11.429
804.17	6.849
804.48	-24.561
804.78	16.667
805.09	-10.345
805.39	9.459
805.70	-9.859
806.00	0.000
806.30	4.819
806.61	2.740
806.91	10.577
807.22	6.667
807.52	-2.299
807.83	12.500
808.13	12.048
808.43	12.360
808.74	6.250
809.04	-13.235
809.35	8.000
809.65	-8.571
809.95	6.849
810.26	-5.263
810.56	-6.897
810.86	19.118
811.17	-5.263
811.47	-13.115
811.77	-28.889
812.08	0.000
812.38	-6.667
812.69	10.345
812.99	-11.321
813.29	-23.077
813.59	2.000
813.90	10.526
814.20	-25.455
814.50	19.718
814.81	7.692
815.11	-6.557
815.41	5.970
815.72	10.345
816.02	-1.786
816.32	4.444
816.62	4.545
816.93	4.444
817.23	14.815
817.53	0.000
817.84	4.762
818.14	-32.353
818.44	-16.327
818.74	-2.222
819.04	-23.077
819.35	-17.143
819.65	-38.462
819.95	13.208
820.25	4.444
820.56	-7.143
820.86	18.750
821.16	-12.821
821.46	-9.302
821.76	-14.000
822.07	12.500
822.37	2.174
822.67	-14.894
822.97	13.514
823.27	15.000
823.57	18.367
823.88	11.111
824.18	27.500
824.48	10.000
824.78	-8.000
825.08	9.091
825.38	8.889
825.69	8.511
825.99	11.111
826.29	-42.857
826.59	-20.513
826.89	-9.302
827.19	-4.000
827.49	11.765
827.79	16.667
828.09	-13.514
828.39	-13.333
828.70	21.951
829.00	-9.302
829.30	-17.857
829.60	0.000
829.90	2.174
830.20	-5.714
830.50	-20.690
830.80	-5.556
831.10	23.077
831.40	-2.941
831.70	38.095
832.00	32.258
832.30	-47.059
832.60	4.167
832.90	-92.308
833.20	-21.053
833.50	-75.000
833.80	10.526
834.10	-61.905
834.40	27.778
834.70	37.500
835.00	-28.571
835.30	17.647
835.60	-40.000
835.90	0.000
836.20	-18.182
836.50	-16.000
836.80	-18.182
837.10	3.704
837.40	22.222
837.70	-118.750
838.00	0.000
838.30	-39.130
838.60	17.241
838.90	-35.714
839.19	-21.739
839.49	-83.333
839.79	21.739
840.09	-31.250
840.39	-20.000
840.69	9.677
840.99	-67.857
841.29	-33.333
841.59	47.368
841.88	12.821
842.18	11.538
842.48	-80.000
842.78	-10.000
843.08	-3.333
843.38	0.000
843.68	-50.000
843.97	20.588
844.27	-62.500
844.57	-26.316
844.87	-60.000
845.17	20.000
845.47	47.619
845.76	-9.524
846.06	-11.111
846.36	-11.765
846.66	-11.538
846.96	-33.333
847.25	-11.765
847.55	13.043
847.85	0.000
848.15	11.765
848.44	-45.455
848.74	47.619
849.04	8.333
849.34	-25.000
849.63	-8.696
849.93	900.000
850.23	-40.000
850.53	30.769
850.82	-72.727
851.12	-9.091
851.42	-72.727
851.71	30.769
852.01	-30.000
852.31	0.000
852.61	-5.263
852.90	16.667
853.20	-5.556
853.50	-144.444
853.79	-23.810
854.09	-59.091
854.39	-100.000
854.68	9.677
854.98	-15.385
855.28	-22.222
855.57	-50.000
855.87	0.000
856.17	-18.182
856.46	-3.704
856.76	-27.778
857.05	-47.826
857.35	-41.667
857.65	0.000
857.94	0.000
858.24	11.111
858.53	26.087
858.83	0.000
859.13	-52.941
859.42	23.529
859.72	50.000
860.01	-10.000
860.31	-44.444
860.60	20.000
860.90	-33.333
861.20	-50.000
861.49	-53.846
861.79	26.667
862.08	-76.923
862.38	21.875
862.67	41.176
862.97	-31.250
863.26	-100.000
863.56	-30.000
863.85	-9.091
864.15	0.000
864.44	200.000
864.74	-78.571
865.03	-43.750
865.33	-100.000
865.62	0.000
865.92	27.273
866.21	69.565
866.51	-7.143
866.80	-120.000
867.10	8.333
867.39	-100.000
867.69	1700.000
867.98	-14.286
868.27	17.647
868.57	-1500.000
868.86	-100.000
869.16	19.048
869.45	25.000
869.75	72.727
870.04	-114.286
870.33	0.000
870.63	-171.429
870.92	-225.000
871.22	-100.000
871.51	-18.182
871.80	-733.333
872.10	-150.000
>>>>>End Processed Spectral Data<<<<<
