SpectraSuite Data File
++++++++++++++++++++++++++++++++++++
Date: Thu May 14 16:39:38 PDT 2015
User: schluterlab
Dark Spectrum Present: Yes
Reference Spectrum Present: Yes
Number of Sampled Component Spectra: 1
Spectrometers: USB2E3373
Integration Time (usec): 3000 (USB2E3373)
Spectra Averaged: 3 (USB2E3373)
Boxcar Smoothing: 0 (USB2E3373)
Correct for Electrical Dark: No (USB2E3373)
Strobe/Lamp Enabled: No (USB2E3373)
Correct for Detector Non-linearity: No (USB2E3373)
Correct for Stray Light: No (USB2E3373)
Number of Pixels in Processed Spectrum: 2048
>>>>>Begin Processed Spectral Data<<<<<
178.53	0.000
178.91	114.286
179.29	-1100.000
179.67	-500.000
180.04	85.714
180.42	30.000
180.80	-20.000
181.18	-400.000
181.56	200.000
181.94	-75.000
182.31	-150.000
182.69	-0.000
183.07	300.000
183.45	-50.000
183.83	66.667
184.20	300.000
184.58	700.000
184.96	-50.000
185.34	-66.667
185.72	-20.000
186.09	88.889
186.47	-0.000
186.85	180.000
187.23	-88.889
187.61	-1200.000
187.98	80.000
188.36	100.000
188.74	-150.000
189.12	33.333
189.49	25.000
189.87	-75.000
190.25	11.111
190.63	-100.000
191.00	-77.778
191.38	0.000
191.76	-100.000
192.14	16.667
192.51	-0.000
192.89	50.000
193.27	0.000
193.65	-57.143
194.02	-1000.000
194.40	14.286
194.78	71.429
195.15	0.000
195.53	-9.091
195.91	0.000
196.29	75.000
196.66	-15.385
197.04	-1000.000
197.42	-57.143
197.79	-200.000
198.17	-50.000
198.55	-114.286
198.92	11.111
199.30	-100.000
199.68	-9.091
200.05	-35.714
200.43	300.000
200.81	128.571
201.18	0.000
201.56	88.889
201.94	0.000
202.31	466.667
202.69	-100.000
203.07	800.000
203.44	-33.333
203.82	-325.000
204.19	-83.333
204.57	-83.333
204.95	-87.500
205.32	-400.000
205.70	75.000
206.08	-150.000
206.45	50.000
206.83	440.000
207.20	33.333
207.58	-240.000
207.96	-183.333
208.33	-33.333
208.71	25.000
209.08	150.000
209.46	0.000
209.84	-66.667
210.21	-200.000
210.59	250.000
210.96	266.667
211.34	175.000
211.71	37.500
212.09	-300.000
212.46	0.000
212.84	600.000
213.22	-240.000
213.59	-75.000
213.97	80.000
214.34	0.000
214.72	100.000
215.09	-300.000
215.47	0.000
215.84	100.000
216.22	600.000
216.59	40.000
216.97	-20.000
217.34	-50.000
217.72	-25.000
218.09	-175.000
218.47	-300.000
218.84	0.000
219.22	100.000
219.59	11.765
219.97	5.000
220.34	350.000
220.72	0.000
221.09	130.769
221.47	-266.667
221.84	-20.000
222.22	28.571
222.59	0.000
222.97	-87.500
223.34	-200.000
223.72	-800.000
224.09	-75.000
224.46	-450.000
224.84	160.000
225.21	-42.857
225.59	-75.000
225.96	-50.000
226.34	23.077
226.71	166.667
227.08	-450.000
227.46	26.667
227.83	50.000
228.21	26.316
228.58	125.000
228.95	200.000
229.33	-25.000
229.70	-40.000
230.08	57.895
230.45	10.000
230.82	0.000
231.20	28.571
231.57	158.333
231.95	63.636
232.32	45.455
232.69	45.000
233.07	-100.000
233.44	-64.706
233.81	-50.000
234.19	16.667
234.56	18.182
234.93	48.276
235.31	5.263
235.68	-22.222
236.05	-30.000
236.43	34.615
236.80	16.000
237.17	-3.704
237.55	15.152
237.92	-10.000
238.29	6.452
238.67	-2.273
239.04	-11.111
239.41	16.667
239.79	-8.696
240.16	1.852
240.53	-2.174
240.91	0.000
241.28	-6.557
241.65	8.955
242.02	10.811
242.40	-9.231
242.77	-10.667
243.14	-1.220
243.51	-7.895
243.89	-14.103
244.26	13.861
244.63	4.902
245.00	5.607
245.38	-7.018
245.75	-13.274
246.12	-3.175
246.49	-3.876
246.87	4.286
247.24	6.623
247.61	4.605
247.98	1.342
248.36	-0.617
248.73	-2.454
249.10	2.186
249.47	4.975
249.84	6.283
250.22	3.627
250.59	3.889
250.96	2.727
251.33	-1.020
251.70	1.709
252.08	2.500
252.45	1.230
252.82	-2.479
253.19	0.781
253.56	0.760
253.94	3.846
254.31	2.652
254.68	4.545
255.05	3.583
255.42	1.020
255.79	3.236
256.16	2.980
256.54	0.662
256.91	2.951
257.28	-1.639
257.65	1.274
258.02	-0.885
258.39	1.140
258.76	3.976
259.14	4.598
259.51	3.170
259.88	5.099
260.25	3.333
260.62	6.301
260.99	3.825
261.36	4.290
261.73	2.653
262.10	1.648
262.47	0.000
262.85	5.808
263.22	0.000
263.59	1.579
263.96	2.558
264.33	1.535
264.70	3.457
265.07	4.773
265.44	7.256
265.81	0.463
266.18	2.494
266.55	1.786
266.92	2.506
267.29	4.376
267.66	2.439
268.03	4.148
268.40	2.505
268.77	-0.456
269.14	-0.441
269.51	2.632
269.88	5.533
270.25	4.024
270.62	3.376
270.99	5.253
271.36	6.535
271.73	3.536
272.10	4.409
272.47	3.206
272.84	2.410
273.21	2.605
273.58	2.823
273.95	1.923
274.32	0.951
274.69	0.580
275.06	2.747
275.43	1.848
275.80	2.998
276.17	0.370
276.54	2.239
276.91	1.073
277.28	1.989
277.65	2.334
278.02	3.860
278.39	1.812
278.76	0.703
279.13	3.014
279.50	4.467
279.87	4.472
280.23	0.000
280.60	2.542
280.97	4.112
281.34	2.377
281.71	4.399
282.08	2.658
282.45	3.601
282.82	3.140
283.19	1.939
283.56	2.459
283.92	3.153
284.29	4.423
284.66	2.791
285.03	1.442
285.40	3.246
285.77	3.251
286.14	2.748
286.51	2.892
286.87	2.212
287.24	4.066
287.61	1.794
287.98	1.813
288.35	1.479
288.72	3.846
289.08	3.953
289.45	1.627
289.82	1.657
290.19	2.299
290.56	4.225
290.93	2.710
291.29	3.581
291.66	2.893
292.03	2.171
292.40	4.354
292.77	2.426
293.13	2.436
293.50	1.708
293.87	3.087
294.24	3.867
294.60	3.287
294.97	2.013
295.34	2.817
295.71	2.144
296.08	1.292
296.44	3.186
296.81	3.532
297.18	2.117
297.55	3.184
297.91	2.728
298.28	1.659
298.65	2.735
299.02	1.653
299.38	2.403
299.75	2.921
300.12	1.968
300.48	2.995
300.85	2.137
301.22	2.237
301.59	2.397
301.95	3.164
302.32	4.778
302.69	2.738
303.05	3.156
303.42	2.439
303.79	3.021
304.15	2.944
304.52	2.431
304.89	2.513
305.25	3.106
305.62	2.612
305.99	2.990
306.35	2.923
306.72	3.102
307.09	3.046
307.45	4.762
307.82	3.734
308.19	3.633
308.55	2.989
308.92	3.408
309.29	3.736
309.65	2.729
310.02	3.168
310.38	4.035
310.75	2.816
311.12	4.794
311.48	2.835
311.85	3.229
312.22	3.700
312.58	3.005
312.95	4.876
313.31	4.336
313.68	4.762
314.05	5.420
314.41	5.191
314.78	4.541
315.14	6.080
315.51	6.094
315.87	5.491
316.24	6.393
316.61	7.726
316.97	5.520
317.34	6.702
317.70	6.463
318.07	7.143
318.43	7.398
318.80	9.615
319.16	7.983
319.53	7.883
319.89	8.151
320.26	8.541
320.62	8.156
320.99	9.049
321.35	11.091
321.72	10.977
322.08	9.017
322.45	10.388
322.81	9.747
323.18	11.504
323.54	10.948
323.91	11.210
324.27	12.651
324.64	12.427
325.00	11.609
325.37	13.350
325.73	12.810
326.10	12.733
326.46	13.436
326.83	13.851
327.19	13.701
327.56	14.308
327.92	13.611
328.29	14.677
328.65	14.405
329.01	14.721
329.38	16.344
329.74	15.240
330.11	14.555
330.47	15.922
330.84	15.676
331.20	15.417
331.56	14.645
331.93	15.397
332.29	16.695
332.66	15.698
333.02	15.662
333.38	15.940
333.75	14.983
334.11	16.931
334.48	16.502
334.84	17.162
335.20	16.121
335.57	15.261
335.93	17.355
336.29	15.474
336.66	16.232
337.02	16.973
337.38	15.986
337.75	15.785
338.11	17.073
338.47	17.122
338.84	17.090
339.20	15.586
339.56	16.474
339.93	16.338
340.29	16.345
340.65	15.328
341.02	16.600
341.38	17.704
341.74	15.658
342.11	16.814
342.47	15.488
342.83	17.472
343.20	16.108
343.56	16.119
343.92	16.733
344.28	16.484
344.65	17.132
345.01	16.537
345.37	17.885
345.73	16.056
346.10	17.473
346.46	16.297
346.82	18.127
347.19	16.578
347.55	17.451
347.91	16.419
348.27	17.754
348.63	16.679
349.00	16.928
349.36	17.621
349.72	16.667
350.08	17.459
350.45	16.198
350.81	16.516
351.17	16.090
351.53	15.997
351.89	17.995
352.26	16.866
352.62	17.687
352.98	16.947
353.34	17.102
353.70	16.256
354.07	17.586
354.43	16.553
354.79	17.352
355.15	16.630
355.51	18.129
355.87	16.230
356.24	18.175
356.60	16.260
356.96	17.198
357.32	16.059
357.68	16.398
358.04	16.392
358.40	16.493
358.77	16.959
359.13	16.765
359.49	17.100
359.85	17.114
360.21	17.432
360.57	17.229
360.93	16.855
361.29	17.544
361.66	18.030
362.02	18.859
362.38	17.147
362.74	17.318
363.10	18.088
363.46	17.175
363.82	16.761
364.18	17.523
364.54	16.943
364.90	17.324
365.26	17.862
365.62	18.067
365.98	17.563
366.35	16.711
366.71	17.483
367.07	17.727
367.43	17.991
367.79	17.186
368.15	17.592
368.51	17.727
368.87	17.309
369.23	16.733
369.59	17.623
369.95	17.985
370.31	18.096
370.67	18.088
371.03	19.183
371.39	17.663
371.75	18.707
372.11	18.902
372.47	17.874
372.83	19.175
373.19	18.279
373.55	16.938
373.91	17.655
374.27	18.047
374.63	17.050
374.99	18.236
375.35	18.377
375.71	18.194
376.07	19.109
376.42	18.262
376.78	19.080
377.14	18.403
377.50	18.406
377.86	18.042
378.22	19.162
378.58	17.955
378.94	19.308
379.30	18.336
379.66	18.519
380.02	18.177
380.38	19.585
380.74	17.746
381.09	18.931
381.45	18.580
381.81	19.496
382.17	19.181
382.53	18.304
382.89	19.300
383.25	19.285
383.61	18.750
383.97	18.257
384.32	19.079
384.68	18.561
385.04	18.566
385.40	18.975
385.76	20.164
386.12	19.330
386.48	19.353
386.83	19.190
387.19	18.540
387.55	18.721
387.91	19.692
388.27	19.111
388.62	18.671
388.98	18.782
389.34	18.975
389.70	19.814
390.06	18.828
390.42	19.217
390.77	19.386
391.13	18.545
391.49	19.263
391.85	18.182
392.20	19.632
392.56	19.669
392.92	19.738
393.28	19.735
393.64	18.492
393.99	19.930
394.35	19.509
394.71	20.299
395.07	18.862
395.42	19.360
395.78	21.328
396.14	19.846
396.50	19.299
396.85	19.261
397.21	19.527
397.57	19.965
397.92	19.874
398.28	19.880
398.64	19.050
399.00	19.319
399.35	19.634
399.71	19.837
400.07	19.708
400.42	19.208
400.78	20.544
401.14	19.465
401.49	19.670
401.85	19.477
402.21	19.583
402.57	19.836
402.92	19.149
403.28	18.326
403.63	18.974
403.99	18.884
404.35	19.159
404.70	19.887
405.06	18.913
405.42	19.789
405.77	19.466
406.13	19.341
406.49	19.257
406.84	19.335
407.20	19.005
407.55	19.019
407.91	19.862
408.27	18.905
408.62	19.546
408.98	19.327
409.34	18.710
409.69	19.963
410.05	19.285
410.40	20.244
410.76	19.181
411.11	18.586
411.47	19.533
411.83	19.224
412.18	20.060
412.54	19.739
412.89	19.790
413.25	18.623
413.60	18.380
413.96	20.105
414.31	19.490
414.67	18.843
415.03	19.508
415.38	19.042
415.74	18.326
416.09	19.309
416.45	18.472
416.80	18.727
417.16	18.646
417.51	19.552
417.87	18.271
418.22	19.401
418.58	18.835
418.93	19.790
419.29	18.989
419.64	18.788
420.00	19.110
420.35	18.473
420.71	18.553
421.06	19.609
421.42	19.610
421.77	18.255
422.12	18.076
422.48	18.792
422.83	19.277
423.19	19.469
423.54	19.801
423.90	18.774
424.25	18.880
424.61	18.944
424.96	19.330
425.31	19.427
425.67	18.572
426.02	18.871
426.38	18.599
426.73	19.029
427.09	19.031
427.44	18.788
427.79	17.745
428.15	17.979
428.50	18.764
428.85	18.772
429.21	18.351
429.56	18.559
429.92	18.231
430.27	18.554
430.62	18.906
430.98	18.495
431.33	18.231
431.68	18.199
432.04	18.690
432.39	18.961
432.74	18.836
433.10	19.362
433.45	17.781
433.80	18.240
434.16	18.440
434.51	18.499
434.86	19.055
435.22	19.394
435.57	18.573
435.92	18.976
436.28	18.714
436.63	17.750
436.98	18.196
437.34	18.264
437.69	18.382
438.04	18.562
438.39	18.036
438.75	17.820
439.10	18.816
439.45	18.726
439.81	17.740
440.16	17.158
440.51	18.172
440.86	17.454
441.22	18.435
441.57	19.130
441.92	18.041
442.27	18.788
442.63	18.331
442.98	18.196
443.33	18.306
443.68	19.078
444.03	18.815
444.39	18.539
444.74	18.683
445.09	18.297
445.44	18.493
445.79	18.199
446.15	18.397
446.50	17.933
446.85	19.066
447.20	18.182
447.55	18.044
447.91	17.330
448.26	18.023
448.61	17.641
448.96	18.133
449.31	17.179
449.66	16.558
450.02	17.722
450.37	18.221
450.72	17.277
451.07	18.508
451.42	17.620
451.77	17.454
452.12	17.325
452.47	17.469
452.83	18.243
453.18	17.980
453.53	17.231
453.88	17.062
454.23	18.079
454.58	17.644
454.93	16.566
455.28	18.362
455.63	18.249
455.98	17.877
456.34	17.197
456.69	17.754
457.04	16.785
457.39	17.572
457.74	18.177
458.09	16.529
458.44	17.134
458.79	17.019
459.14	16.780
459.49	17.940
459.84	17.104
460.19	16.768
460.54	17.490
460.89	16.993
461.24	15.977
461.59	17.266
461.94	16.144
462.29	17.245
462.64	16.717
462.99	16.259
463.34	17.716
463.69	16.940
464.04	17.009
464.39	17.321
464.74	16.933
465.09	16.205
465.44	16.953
465.79	16.764
466.14	16.832
466.49	16.421
466.84	15.758
467.19	16.474
467.54	15.805
467.89	15.920
468.24	16.454
468.59	15.692
468.94	15.035
469.29	15.597
469.64	15.575
469.99	15.488
470.34	16.275
470.68	16.063
471.03	15.848
471.38	16.089
471.73	15.150
472.08	15.228
472.43	15.834
472.78	16.499
473.13	15.234
473.48	16.193
473.83	15.961
474.17	15.006
474.52	15.454
474.87	15.725
475.22	16.225
475.57	15.732
475.92	15.879
476.27	15.069
476.61	14.642
476.96	14.286
477.31	15.396
477.66	15.635
478.01	14.896
478.36	14.855
478.70	15.123
479.05	15.900
479.40	15.745
479.75	15.322
480.10	14.922
480.45	14.585
480.79	14.921
481.14	14.844
481.49	14.630
481.84	14.883
482.19	15.398
482.53	15.348
482.88	15.109
483.23	14.540
483.58	14.760
483.92	14.495
484.27	14.691
484.62	14.563
484.97	14.386
485.31	14.044
485.66	13.962
486.01	14.220
486.36	14.251
486.70	14.756
487.05	14.580
487.40	14.233
487.75	14.580
488.09	14.117
488.44	13.964
488.79	14.233
489.13	14.048
489.48	13.825
489.83	13.722
490.17	13.285
490.52	13.834
490.87	13.917
491.22	13.302
491.56	14.121
491.91	13.781
492.26	13.760
492.60	13.642
492.95	13.295
493.30	13.581
493.64	13.228
493.99	13.421
494.34	13.502
494.68	12.805
495.03	13.392
495.37	13.182
495.72	13.152
496.07	13.234
496.41	12.613
496.76	13.720
497.11	12.739
497.45	13.379
497.80	13.861
498.14	13.016
498.49	13.097
498.84	12.431
499.18	13.720
499.53	13.049
499.87	12.879
500.22	12.244
500.56	12.326
500.91	12.815
501.26	13.500
501.60	12.771
501.95	12.766
502.29	13.164
502.64	13.030
502.98	12.856
503.33	12.441
503.67	12.386
504.02	12.566
504.36	12.913
504.71	12.540
505.06	12.688
505.40	11.700
505.75	12.568
506.09	12.385
506.44	12.210
506.78	12.523
507.13	12.955
507.47	12.743
507.82	12.027
508.16	11.616
508.51	11.908
508.85	11.998
509.19	12.032
509.54	12.296
509.88	12.385
510.23	12.530
510.57	12.905
510.92	12.966
511.26	11.785
511.61	12.120
511.95	11.225
512.30	12.309
512.64	11.144
512.98	11.756
513.33	12.198
513.67	12.035
514.02	11.344
514.36	12.020
514.70	11.719
515.05	11.731
515.39	12.283
515.74	12.089
516.08	11.516
516.42	12.140
516.77	11.882
517.11	11.965
517.46	12.301
517.80	12.133
518.14	12.187
518.49	11.497
518.83	11.815
519.17	11.524
519.52	11.373
519.86	11.299
520.20	11.502
520.55	11.172
520.89	11.430
521.23	11.725
521.58	10.734
521.92	11.048
522.26	11.168
522.61	11.748
522.95	11.130
523.29	10.632
523.64	11.155
523.98	11.808
524.32	11.633
524.66	11.895
525.01	10.702
525.35	11.200
525.69	10.789
526.04	10.218
526.38	11.092
526.72	11.015
527.06	11.085
527.41	11.079
527.75	10.926
528.09	11.629
528.43	11.072
528.78	10.520
529.12	10.837
529.46	10.230
529.80	11.041
530.15	11.246
530.49	10.202
530.83	11.039
531.17	10.215
531.51	10.529
531.86	11.298
532.20	10.976
532.54	10.233
532.88	11.091
533.22	10.548
533.57	11.079
533.91	10.382
534.25	11.532
534.59	10.977
534.93	10.583
535.27	10.366
535.62	10.915
535.96	10.633
536.30	10.106
536.64	10.871
536.98	10.517
537.32	10.864
537.66	11.354
538.01	10.574
538.35	9.562
538.69	10.337
539.03	10.546
539.37	10.424
539.71	10.991
540.05	10.552
540.39	10.208
540.73	10.018
541.07	9.687
541.42	10.691
541.76	9.905
542.10	9.469
542.44	9.744
542.78	10.949
543.12	10.191
543.46	9.707
543.80	9.532
544.14	10.114
544.48	10.106
544.82	10.353
545.16	10.197
545.50	10.785
545.84	9.737
546.18	10.556
546.52	9.936
546.86	10.000
547.20	10.496
547.54	10.175
547.88	9.222
548.22	9.415
548.56	8.953
548.90	10.269
549.24	9.848
549.58	9.716
549.92	8.865
550.26	9.903
550.60	10.083
550.94	9.314
551.28	9.769
551.62	10.175
551.96	10.291
552.30	10.644
552.64	9.645
552.98	8.796
553.32	10.225
553.66	9.582
554.00	9.773
554.34	9.459
554.68	9.555
555.02	9.396
555.36	10.059
555.69	8.584
556.03	9.521
556.37	10.451
556.71	9.258
557.05	9.712
557.39	9.555
557.73	9.577
558.07	9.073
558.41	9.900
558.75	9.398
559.08	9.186
559.42	9.328
559.76	9.430
560.10	9.846
560.44	9.301
560.78	9.938
561.12	9.052
561.45	9.854
561.79	9.219
562.13	9.612
562.47	9.371
562.81	9.620
563.15	8.965
563.48	9.136
563.82	9.250
564.16	8.783
564.50	8.343
564.84	9.263
565.17	9.235
565.51	8.976
565.85	9.323
566.19	9.159
566.52	9.245
566.86	9.451
567.20	8.320
567.54	9.241
567.88	9.582
568.21	9.140
568.55	9.400
568.89	9.169
569.23	9.379
569.56	8.832
569.90	8.553
570.24	9.275
570.57	8.659
570.91	8.665
571.25	8.562
571.59	8.878
571.92	8.715
572.26	8.867
572.60	8.518
572.93	8.934
573.27	8.654
573.61	8.788
573.95	8.740
574.28	8.876
574.62	8.709
574.96	8.668
575.29	8.614
575.63	8.547
575.97	8.695
576.30	8.438
576.64	8.351
576.98	8.360
577.31	8.717
577.65	8.770
577.98	8.678
578.32	8.494
578.66	8.368
578.99	8.560
579.33	8.515
579.67	8.454
580.00	8.541
580.34	8.617
580.67	8.230
581.01	8.178
581.35	8.455
581.68	8.500
582.02	8.697
582.35	8.566
582.69	8.365
583.02	8.223
583.36	8.688
583.70	8.021
584.03	8.399
584.37	8.566
584.70	8.117
585.04	7.603
585.37	7.998
585.71	8.350
586.04	7.838
586.38	8.333
586.72	7.621
587.05	7.521
587.39	7.903
587.72	8.278
588.06	8.486
588.39	8.613
588.73	8.254
589.06	8.155
589.40	8.543
589.73	8.419
590.07	8.256
590.40	8.485
590.73	8.271
591.07	8.414
591.40	7.932
591.74	7.949
592.07	8.567
592.41	8.360
592.74	8.591
593.08	8.376
593.41	8.049
593.75	8.161
594.08	8.270
594.41	8.013
594.75	7.838
595.08	8.143
595.42	8.279
595.75	8.363
596.09	8.336
596.42	8.420
596.75	8.028
597.09	8.121
597.42	8.105
597.75	7.958
598.09	7.817
598.42	8.645
598.76	7.681
599.09	8.010
599.42	8.146
599.76	8.155
600.09	8.141
600.42	8.442
600.76	7.959
601.09	7.965
601.42	8.239
601.76	7.724
602.09	7.934
602.42	7.706
602.76	7.897
603.09	7.489
603.42	7.587
603.76	7.717
604.09	8.126
604.42	8.183
604.76	7.610
605.09	8.097
605.42	7.895
605.75	8.115
606.09	7.913
606.42	7.734
606.75	7.646
607.09	7.450
607.42	8.324
607.75	7.620
608.08	7.735
608.42	7.618
608.75	7.711
609.08	7.046
609.41	7.808
609.75	7.411
610.08	7.652
610.41	7.477
610.74	7.521
611.07	7.904
611.41	7.578
611.74	7.991
612.07	7.667
612.40	6.844
612.73	7.237
613.07	7.433
613.40	7.603
613.73	7.270
614.06	7.802
614.39	8.017
614.72	7.666
615.06	7.170
615.39	7.927
615.72	7.536
616.05	7.528
616.38	7.871
616.71	7.158
617.05	7.348
617.38	8.507
617.71	7.721
618.04	7.447
618.37	7.268
618.70	7.523
619.03	7.407
619.36	7.830
619.69	7.111
620.03	7.407
620.36	7.546
620.69	7.156
621.02	8.661
621.35	7.402
621.68	7.737
622.01	7.402
622.34	7.880
622.67	7.629
623.00	6.208
623.33	7.830
623.66	7.912
623.99	6.583
624.32	8.122
624.65	6.757
624.99	7.412
625.32	7.577
625.65	7.687
625.98	7.458
626.31	7.371
626.64	7.766
626.97	7.577
627.30	6.682
627.63	7.802
627.96	7.658
628.29	8.249
628.62	6.381
628.95	7.625
629.28	6.372
629.61	6.902
629.94	6.778
630.26	7.203
630.59	6.390
630.92	5.108
631.25	7.871
631.58	8.286
631.91	6.748
632.24	6.052
632.57	6.546
632.90	6.520
633.23	6.735
633.56	8.061
633.89	6.921
634.22	6.757
634.55	7.724
634.88	6.710
635.20	7.212
635.53	7.684
635.86	6.717
636.19	7.953
636.52	6.646
636.85	6.946
637.18	7.484
637.51	6.452
637.83	8.859
638.16	6.106
638.49	7.512
638.82	6.539
639.15	6.987
639.48	8.661
639.81	7.737
640.13	7.656
640.46	5.697
640.79	6.618
641.12	6.211
641.45	7.152
641.77	9.499
642.10	7.218
642.43	7.979
642.76	7.453
643.09	6.575
643.41	5.322
643.74	6.483
644.07	6.759
644.40	6.223
644.73	5.370
645.05	6.314
645.38	6.187
645.71	7.478
646.04	9.039
646.36	5.985
646.69	8.589
647.02	7.492
647.35	6.412
647.67	8.213
648.00	6.688
648.33	8.108
648.66	8.845
648.98	7.755
649.31	6.901
649.64	8.101
649.96	7.427
650.29	5.841
650.62	6.789
650.94	5.856
651.27	6.886
651.60	6.287
651.92	5.015
652.25	7.381
652.58	7.703
652.90	4.215
653.23	7.183
653.56	7.561
653.88	7.444
654.21	7.042
654.54	5.925
654.86	7.790
655.19	5.772
655.52	6.784
655.84	6.474
656.17	7.990
656.49	11.485
656.82	12.641
657.15	9.913
657.47	7.446
657.80	5.377
658.13	4.130
658.45	5.466
658.78	6.876
659.10	6.300
659.43	6.284
659.75	6.202
660.08	5.714
660.41	5.294
660.73	5.131
661.06	4.258
661.38	4.306
661.71	5.517
662.03	5.820
662.36	5.546
662.68	6.004
663.01	7.611
663.33	8.507
663.66	8.059
663.98	5.385
664.31	6.942
664.63	5.202
664.96	4.356
665.28	5.082
665.61	6.643
665.93	5.536
666.26	6.810
666.58	3.875
666.91	8.224
667.23	8.000
667.56	5.523
667.88	6.800
668.21	5.273
668.53	6.178
668.86	7.859
669.18	6.721
669.50	7.356
669.83	2.800
670.15	4.528
670.48	7.540
670.80	8.413
671.13	7.561
671.45	5.512
671.77	5.838
672.10	6.000
672.42	6.311
672.75	6.144
673.07	5.522
673.39	4.622
673.72	7.047
674.04	6.897
674.37	6.261
674.69	7.760
675.01	4.762
675.34	5.725
675.66	5.431
675.98	6.157
676.31	5.859
676.63	7.034
676.95	8.429
677.28	7.460
677.60	2.953
677.92	4.798
678.25	5.484
678.57	7.651
678.89	6.143
679.22	5.401
679.54	6.667
679.86	3.898
680.18	4.146
680.51	5.818
680.83	5.728
681.15	6.207
681.48	7.599
681.80	7.081
682.12	5.070
682.44	5.676
682.77	6.915
683.09	7.008
683.41	6.589
683.73	7.211
684.06	4.982
684.38	4.651
684.70	5.027
685.02	6.368
685.34	5.158
685.67	4.890
685.99	5.521
686.31	5.814
686.63	4.265
686.96	6.940
687.28	6.515
687.60	4.714
687.92	5.145
688.24	6.845
688.56	5.862
688.89	7.441
689.21	7.045
689.53	3.333
689.85	4.734
690.17	6.481
690.49	4.582
690.82	5.149
691.14	4.656
691.46	6.119
691.78	7.919
692.10	5.688
692.42	6.071
692.74	5.263
693.06	2.407
693.39	7.590
693.71	6.015
694.03	5.390
694.35	4.381
694.67	6.776
694.99	8.085
695.31	3.532
695.63	6.710
695.95	6.004
696.27	5.495
696.59	6.637
696.91	7.883
697.23	6.813
697.56	4.277
697.88	6.250
698.20	4.143
698.52	8.144
698.84	5.405
699.16	8.163
699.48	4.393
699.80	4.681
700.12	7.424
700.44	5.991
700.76	5.701
701.08	5.327
701.40	5.959
701.72	5.224
702.04	7.487
702.36	3.665
702.68	5.379
703.00	6.846
703.32	5.665
703.64	5.623
703.96	7.399
704.28	2.703
704.60	6.582
704.91	5.102
705.23	6.849
705.55	3.900
705.87	6.970
706.19	6.135
706.51	0.301
706.83	3.458
707.15	3.704
707.47	4.673
707.79	5.677
708.11	3.178
708.43	3.011
708.74	4.241
709.06	5.800
709.38	7.512
709.70	6.452
710.02	6.202
710.34	7.447
710.66	3.631
710.98	8.197
711.29	6.044
711.61	4.520
711.93	5.413
712.25	5.405
712.57	8.555
712.89	7.647
713.20	3.254
713.52	6.647
713.84	5.850
714.16	3.158
714.48	5.670
714.80	8.571
715.11	5.512
715.43	5.040
715.75	8.158
716.07	6.354
716.39	7.650
716.70	4.217
717.02	7.869
717.34	1.394
717.66	5.705
717.97	1.370
718.29	2.749
718.61	3.289
718.93	4.207
719.24	6.211
719.56	4.601
719.88	7.508
720.20	6.129
720.51	3.106
720.83	5.000
721.15	2.961
721.46	3.082
721.78	7.333
722.10	5.178
722.42	2.685
722.73	4.194
723.05	3.158
723.37	4.514
723.68	4.301
724.00	7.220
724.32	2.465
724.63	0.000
724.95	7.447
725.27	3.833
725.58	0.707
725.90	10.345
726.22	5.016
726.53	4.870
726.85	7.547
727.16	8.761
727.48	7.645
727.80	6.954
728.11	2.473
728.43	5.387
728.74	4.348
729.06	5.960
729.38	4.870
729.69	4.362
730.01	5.655
730.32	2.121
730.64	6.604
730.96	2.174
731.27	6.983
731.59	7.967
731.90	3.117
732.22	5.469
732.53	1.934
732.85	5.143
733.16	5.572
733.48	0.305
733.80	5.292
734.11	4.843
734.43	5.676
734.74	7.089
735.06	3.266
735.37	8.108
735.69	6.216
736.00	7.062
736.32	4.582
736.63	5.833
736.95	7.471
737.26	4.848
737.58	-0.909
737.89	7.353
738.21	3.364
738.52	2.951
738.83	6.826
739.15	3.191
739.46	5.782
739.78	5.521
740.09	6.304
740.41	7.289
740.72	4.000
741.04	5.178
741.35	7.719
741.66	5.882
741.98	6.557
742.29	2.092
742.61	7.018
742.92	4.231
743.23	9.386
743.55	8.140
743.86	6.000
744.18	2.066
744.49	0.844
744.80	6.996
745.12	5.063
745.43	2.846
745.74	-0.862
746.06	4.661
746.37	2.532
746.68	10.163
747.00	3.333
747.31	5.150
747.62	8.846
747.94	6.478
748.25	6.024
748.56	5.306
748.88	-0.427
749.19	4.310
749.50	0.866
749.82	10.040
750.13	6.406
750.44	5.667
750.75	4.000
751.07	6.154
751.38	7.571
751.69	4.792
752.01	3.560
752.32	6.209
752.63	2.381
752.94	6.574
753.26	4.089
753.57	2.593
753.88	5.243
754.19	3.859
754.51	6.752
754.82	8.360
755.13	5.574
755.44	2.730
755.75	6.908
756.07	8.358
756.38	2.830
756.69	6.024
757.00	3.324
757.31	4.098
757.63	2.558
757.94	6.573
758.25	5.643
758.56	4.139
758.87	7.500
759.18	2.133
759.50	5.666
759.81	5.322
760.12	4.313
760.43	4.427
760.74	5.172
761.05	7.000
761.36	4.578
761.67	4.569
761.99	2.973
762.30	3.963
762.61	0.990
762.92	0.373
763.23	6.367
763.54	7.554
763.85	6.873
764.16	6.397
764.47	7.042
764.78	6.070
765.10	4.106
765.41	8.462
765.72	5.026
766.03	6.215
766.34	2.194
766.65	1.045
766.96	4.781
767.27	5.991
767.58	0.498
767.89	8.654
768.20	3.286
768.51	1.389
768.82	8.032
769.13	7.576
769.44	-0.385
769.75	7.220
770.06	5.000
770.37	7.087
770.68	1.702
770.99	-2.429
771.30	6.667
771.61	6.844
771.92	8.148
772.23	9.312
772.54	-0.463
772.85	7.834
773.16	8.571
773.47	-2.646
773.78	-2.703
774.09	2.273
774.39	8.500
774.70	8.197
775.01	4.878
775.32	-1.765
775.63	0.613
775.94	3.185
776.25	5.161
776.56	10.897
776.87	7.483
777.18	2.069
777.48	3.497
777.79	5.405
778.10	-2.941
778.41	7.639
778.72	-0.690
779.03	3.086
779.34	10.303
779.65	3.109
779.95	10.556
780.26	3.977
780.57	-4.516
780.88	13.768
781.19	7.097
781.50	10.588
781.80	3.763
782.11	5.820
782.42	-0.505
782.73	2.994
783.04	3.911
783.34	-1.212
783.65	0.654
783.96	5.590
784.27	8.929
784.57	-3.974
784.88	-2.857
785.19	7.087
785.50	6.299
785.81	12.782
786.11	5.385
786.42	-2.158
786.73	3.597
787.04	9.774
787.34	0.820
787.65	3.200
787.96	9.701
788.26	8.392
788.57	9.790
788.88	7.895
789.19	8.497
789.49	2.055
789.80	4.255
790.11	6.299
790.41	-0.781
790.72	8.475
791.03	-4.854
791.33	4.348
791.64	-3.509
791.95	-0.893
792.25	-1.905
792.56	5.357
792.87	-7.292
793.17	3.571
793.48	6.250
793.79	1.205
794.09	0.917
794.40	2.752
794.70	7.483
795.01	2.597
795.32	5.479
795.62	9.155
795.93	0.758
796.23	6.557
796.54	8.036
796.85	1.064
797.15	0.000
797.46	-8.219
797.76	-1.250
798.07	-3.261
798.37	-17.526
798.68	-14.286
798.99	5.747
799.29	5.618
799.60	9.574
799.90	-4.819
800.21	-13.846
800.51	-1.493
800.82	-7.353
801.12	-12.329
801.43	-10.294
801.73	-1.695
802.04	7.576
802.34	3.333
802.65	6.780
802.95	2.985
803.26	-10.169
803.56	0.000
803.87	4.286
804.17	6.849
804.48	-17.544
804.78	11.111
805.09	-3.448
805.39	9.459
805.70	0.000
806.00	2.439
806.30	0.000
806.61	-4.110
806.91	15.385
807.22	3.333
807.52	0.000
807.83	-8.333
808.13	4.819
808.43	6.742
808.74	0.000
809.04	-5.882
809.35	5.333
809.65	5.714
809.95	8.219
810.26	-3.509
810.56	-6.897
810.86	2.941
811.17	-1.754
811.47	-1.639
811.77	-13.333
812.08	6.780
812.38	8.333
812.69	5.172
812.99	-16.981
813.29	-23.077
813.59	2.000
813.90	14.035
814.20	7.273
814.50	26.761
814.81	16.667
815.11	6.557
815.41	0.000
815.72	12.069
816.02	19.643
816.32	20.000
816.62	9.091
816.93	15.556
817.23	20.370
817.53	-14.894
817.84	9.524
818.14	11.765
818.44	-6.122
818.74	-11.111
819.04	0.000
819.35	-17.143
819.65	-11.538
819.95	16.981
820.25	8.889
820.56	-11.905
820.86	0.000
821.16	-2.564
821.46	-27.907
821.76	-26.000
822.07	14.286
822.37	-8.696
822.67	8.511
822.97	-35.135
823.27	-10.000
823.57	4.082
823.88	15.556
824.18	10.000
824.48	6.667
824.78	-28.000
825.08	27.273
825.38	17.778
825.69	2.128
825.99	0.000
826.29	-42.857
826.59	7.692
826.89	-6.977
827.19	4.000
827.49	-11.765
827.79	12.500
828.09	-21.622
828.39	16.667
828.70	-2.439
829.00	11.628
829.30	7.143
829.60	14.706
829.90	-13.043
830.20	-17.143
830.50	-27.586
830.80	-50.000
831.10	23.077
831.40	-8.824
831.70	-38.095
832.00	29.032
832.30	-94.118
832.60	-20.833
832.90	-7.692
833.20	-10.526
833.50	0.000
833.80	-52.632
834.10	-71.429
834.40	11.111
834.70	9.375
835.00	-37.143
835.30	-5.882
835.60	-46.667
835.90	-44.000
836.20	-45.455
836.50	-28.000
836.80	-15.152
837.10	0.000
837.40	3.704
837.70	-75.000
838.00	0.000
838.30	-21.739
838.60	-6.897
838.90	-14.286
839.19	-60.870
839.49	-91.667
839.79	17.391
840.09	-68.750
840.39	-30.000
840.69	16.129
840.99	-3.571
841.29	-86.667
841.59	5.263
841.88	20.513
842.18	-23.077
842.48	-30.000
842.78	-15.000
843.08	-10.000
843.38	12.903
843.68	-66.667
843.97	2.941
844.27	18.750
844.57	-15.789
844.87	-70.000
845.17	6.667
845.47	9.524
845.76	-9.524
846.06	-122.222
846.36	-70.588
846.66	-57.692
846.96	-73.333
847.25	-76.471
847.55	26.087
847.85	-15.000
848.15	0.000
848.44	-90.909
848.74	-9.524
849.04	-20.833
849.34	12.500
849.63	4.348
849.93	700.000
850.23	-20.000
850.53	15.385
850.82	-118.182
851.12	4.545
851.42	-45.455
851.71	53.846
852.01	-35.000
852.31	15.385
852.61	-26.316
852.90	91.667
853.20	0.000
853.50	-77.778
853.79	-28.571
854.09	-13.636
854.39	-75.000
854.68	3.226
854.98	-11.538
855.28	5.556
855.57	10.714
855.87	8.000
856.17	0.000
856.46	0.000
856.76	0.000
857.05	-34.783
857.35	-20.833
857.65	-69.231
857.94	-4.762
858.24	0.000
858.53	-8.696
858.83	-76.471
859.13	-5.882
859.42	-11.765
859.72	-7.143
860.01	0.000
860.31	-77.778
860.60	70.000
860.90	-33.333
861.20	-61.111
861.49	84.615
861.79	10.000
862.08	-69.231
862.38	31.250
862.67	23.529
862.97	-18.750
863.26	-66.667
863.56	-70.000
863.85	-27.273
864.15	-33.333
864.44	-300.000
864.74	7.143
865.03	-25.000
865.33	-140.000
865.62	-16.129
865.92	31.818
866.21	21.739
866.51	-21.429
866.80	-220.000
867.10	-108.333
867.39	-116.667
867.69	1100.000
867.98	-114.286
868.27	11.765
868.57	-1600.000
868.86	-50.000
869.16	9.524
869.45	-8.333
869.75	-18.182
870.04	-71.429
870.33	16.667
870.63	-142.857
870.92	-75.000
871.22	-62.500
871.51	18.182
871.80	-133.333
872.10	-600.000
>>>>>End Processed Spectral Data<<<<<
