SpectraSuite Data File
++++++++++++++++++++++++++++++++++++
Date: Thu May 14 16:42:20 PDT 2015
User: schluterlab
Dark Spectrum Present: Yes
Reference Spectrum Present: Yes
Number of Sampled Component Spectra: 1
Spectrometers: USB2E3373
Integration Time (usec): 3000 (USB2E3373)
Spectra Averaged: 3 (USB2E3373)
Boxcar Smoothing: 0 (USB2E3373)
Correct for Electrical Dark: No (USB2E3373)
Strobe/Lamp Enabled: No (USB2E3373)
Correct for Detector Non-linearity: No (USB2E3373)
Correct for Stray Light: No (USB2E3373)
Number of Pixels in Processed Spectrum: 2048
>>>>>Begin Processed Spectral Data<<<<<
178.53	0.000
178.91	-14.286
179.29	-1600.000
179.67	-800.000
180.04	114.286
180.42	20.000
180.80	-80.000
181.18	-200.000
181.56	800.000
181.94	-0.000
182.31	100.000
182.69	-0.000
183.07	150.000
183.45	-0.000
183.83	133.333
184.20	200.000
184.58	100.000
184.96	25.000
185.34	88.889
185.72	80.000
186.09	111.111
186.47	400.000
186.85	160.000
187.23	-33.333
187.61	-1200.000
187.98	80.000
188.36	-100.000
188.74	0.000
189.12	66.667
189.49	12.500
189.87	-62.500
190.25	100.000
190.63	80.000
191.00	-22.222
191.38	0.000
191.76	-225.000
192.14	133.333
192.51	500.000
192.89	300.000
193.27	0.000
193.65	42.857
194.02	-800.000
194.40	100.000
194.78	14.286
195.15	0.000
195.53	-9.091
195.91	0.000
196.29	-250.000
196.66	38.462
197.04	-500.000
197.42	-28.571
197.79	400.000
198.17	62.500
198.55	0.000
198.92	22.222
199.30	-25.000
199.68	27.273
200.05	71.429
200.43	-600.000
200.81	85.714
201.18	0.000
201.56	77.778
201.94	0.000
202.31	33.333
202.69	-33.333
203.07	-200.000
203.44	-66.667
203.82	225.000
204.19	16.667
204.57	-83.333
204.95	25.000
205.32	-600.000
205.70	-25.000
206.08	-50.000
206.45	33.333
206.83	220.000
207.20	16.667
207.58	-60.000
207.96	-33.333
208.33	66.667
208.71	16.667
209.08	100.000
209.46	0.000
209.84	166.667
210.21	-250.000
210.59	-0.000
210.96	266.667
211.34	150.000
211.71	137.500
212.09	400.000
212.46	0.000
212.84	400.000
213.22	-140.000
213.59	150.000
213.97	-30.000
214.34	-233.333
214.72	83.333
215.09	-50.000
215.47	0.000
215.84	28.571
216.22	200.000
216.59	60.000
216.97	100.000
217.34	150.000
217.72	-37.500
218.09	-150.000
218.47	-200.000
218.84	0.000
219.22	-120.000
219.59	35.294
219.97	30.000
220.34	550.000
220.72	-11.111
221.09	92.308
221.47	366.667
221.84	30.000
222.22	-114.286
222.59	0.000
222.97	-12.500
223.34	-40.000
223.72	0.000
224.09	50.000
224.46	-75.000
224.84	180.000
225.21	85.714
225.59	-75.000
225.96	75.000
226.34	34.615
226.71	166.667
227.08	-50.000
227.46	13.333
227.83	0.000
228.21	10.526
228.58	62.500
228.95	500.000
229.33	50.000
229.70	70.000
230.08	52.632
230.45	100.000
230.82	-166.667
231.20	21.429
231.57	66.667
231.95	-18.182
232.32	81.818
232.69	5.000
233.07	-25.000
233.44	5.882
233.81	-30.000
234.19	5.556
234.56	18.182
234.93	31.034
235.31	-5.263
235.68	-27.778
236.05	-35.000
236.43	46.154
236.80	28.000
237.17	25.926
237.55	-6.061
237.92	-140.000
238.29	9.677
238.67	-2.273
239.04	0.000
239.41	-2.381
239.79	-4.348
240.16	0.000
240.53	8.696
240.91	-11.765
241.28	11.475
241.65	14.925
242.02	14.865
242.40	0.000
242.77	1.333
243.14	-2.439
243.51	1.316
243.89	-10.256
244.26	1.980
244.63	8.824
245.00	-1.869
245.38	-4.386
245.75	-6.195
246.12	5.556
246.49	0.775
246.87	-1.429
247.24	3.974
247.61	1.974
247.98	5.369
248.36	3.086
248.73	-5.521
249.10	6.557
249.47	8.458
249.84	8.377
250.22	-0.518
250.59	-0.556
250.96	9.091
251.33	1.020
251.70	3.419
252.08	3.333
252.45	5.738
252.82	0.826
253.19	3.516
253.56	5.323
253.94	6.538
254.31	3.409
254.68	6.643
255.05	5.537
255.42	3.401
255.79	1.294
256.16	3.642
256.54	1.656
256.91	1.967
257.28	3.607
257.65	-2.548
258.02	2.065
258.39	3.419
258.76	5.199
259.14	3.161
259.51	3.458
259.88	0.567
260.25	0.278
260.62	2.740
260.99	6.011
261.36	4.826
261.73	1.592
262.10	2.198
262.47	3.217
262.85	5.051
263.22	0.260
263.59	0.789
263.96	1.535
264.33	0.767
264.70	3.704
265.07	5.489
265.44	4.989
265.81	2.083
266.18	3.855
266.55	3.125
266.92	1.367
267.29	3.720
267.66	2.439
268.03	1.965
268.40	0.835
268.77	0.456
269.14	0.881
269.51	2.412
269.88	5.738
270.25	5.433
270.62	3.165
270.99	5.455
271.36	3.960
271.73	4.126
272.10	4.208
272.47	1.002
272.84	2.811
273.21	3.006
273.58	3.831
273.95	1.923
274.32	0.760
274.69	0.967
275.06	2.747
275.43	1.848
275.80	4.409
276.17	1.852
276.54	4.104
276.91	3.757
277.28	1.808
277.65	3.770
278.02	3.125
278.39	0.906
278.76	1.230
279.13	1.596
279.50	3.952
279.87	3.757
280.23	0.176
280.60	2.881
280.97	3.289
281.34	1.528
281.71	4.907
282.08	2.824
282.45	3.273
282.82	2.512
283.19	0.485
283.56	4.098
283.92	5.255
284.29	3.791
284.66	3.284
285.03	1.122
285.40	3.246
285.77	3.406
286.14	3.359
286.51	2.740
286.87	3.633
287.24	3.012
287.61	2.093
287.98	3.021
288.35	3.402
288.72	2.515
289.08	4.978
289.45	2.219
289.82	2.410
290.19	2.443
290.56	4.507
290.93	2.853
291.29	2.342
291.66	1.515
292.03	2.578
292.40	4.626
292.77	3.369
293.13	2.842
293.50	3.811
293.87	2.819
294.24	5.067
294.60	3.793
294.97	1.745
295.34	4.866
295.71	2.396
296.08	2.713
296.44	2.696
296.81	3.289
297.18	2.117
297.55	4.127
297.91	3.559
298.28	4.502
298.65	4.281
299.02	3.188
299.38	4.805
299.75	4.439
300.12	2.199
300.48	3.802
300.85	3.150
301.22	4.474
301.59	3.995
301.95	4.520
302.32	5.000
302.69	3.943
303.05	4.135
303.42	3.659
303.79	4.375
304.15	4.416
304.52	3.805
304.89	5.340
305.25	5.590
305.62	5.538
305.99	6.289
306.35	4.234
306.72	6.101
307.09	5.279
307.45	6.418
307.82	6.054
308.19	6.054
308.55	5.497
308.92	6.329
309.29	6.226
309.65	6.043
310.02	6.535
310.38	7.283
310.75	6.893
311.12	7.958
311.48	7.527
311.85	8.167
312.22	7.685
312.58	9.014
312.95	9.082
313.31	8.853
313.68	9.524
314.05	10.750
314.41	11.749
314.78	10.082
315.14	10.708
315.51	12.096
315.87	11.341
316.24	12.511
316.61	12.877
316.97	10.769
317.34	14.021
317.70	14.148
318.07	14.462
318.43	15.476
318.80	15.886
319.16	16.309
319.53	15.681
319.89	16.214
320.26	17.883
320.62	18.174
320.99	18.560
321.35	19.871
321.72	21.302
322.08	20.920
322.45	22.403
322.81	23.285
323.18	22.920
323.54	24.655
323.91	26.157
324.27	26.248
324.64	26.700
325.00	27.778
325.37	28.583
325.73	29.587
326.10	30.089
326.46	30.945
326.83	32.746
327.19	33.465
327.56	34.466
327.92	34.776
328.29	34.355
328.65	34.673
329.01	36.717
329.38	36.647
329.74	38.527
330.11	37.586
330.47	37.489
330.84	38.501
331.20	38.083
331.56	39.601
331.93	40.335
332.29	41.441
332.66	39.618
333.02	40.034
333.38	41.527
333.75	41.582
334.11	41.368
334.48	42.244
334.84	42.396
335.20	41.646
335.57	42.917
335.93	43.884
336.29	42.346
336.66	44.239
337.02	42.475
337.38	43.707
337.75	44.132
338.11	44.743
338.47	43.342
338.84	44.839
339.20	43.808
339.56	43.904
339.93	44.335
340.29	44.605
340.65	43.390
341.02	43.655
341.38	45.190
341.74	45.601
342.11	45.615
342.47	44.003
342.83	46.860
343.20	46.525
343.56	45.870
343.92	47.238
344.28	46.953
344.65	45.349
345.01	47.270
345.37	47.823
345.73	47.311
346.10	48.596
346.46	49.130
346.82	47.266
347.19	47.288
347.55	49.165
347.91	46.434
348.27	48.710
348.63	49.200
349.00	48.098
349.36	47.584
349.72	48.884
350.08	49.406
350.45	49.658
350.81	49.397
351.17	49.925
351.53	49.356
351.89	49.886
352.26	50.149
352.62	50.522
352.98	50.076
353.34	49.888
353.70	51.233
354.07	51.341
354.43	51.632
354.79	52.057
355.15	50.993
355.51	50.877
355.87	50.411
356.24	52.624
356.60	51.146
356.96	53.002
357.32	51.896
357.68	51.903
358.04	52.171
358.40	51.269
358.77	53.216
359.13	53.028
359.49	52.045
359.85	52.574
360.21	52.726
360.57	52.118
360.93	54.161
361.29	52.702
361.66	52.860
362.02	55.115
362.38	53.197
362.74	53.701
363.10	53.439
363.46	54.155
363.82	54.261
364.18	54.328
364.54	53.389
364.90	53.980
365.26	54.552
365.62	54.467
365.98	55.752
366.35	54.295
366.71	55.034
367.07	55.616
367.43	54.498
367.79	56.005
368.15	55.853
368.51	55.751
368.87	54.278
369.23	54.733
369.59	56.011
369.95	55.172
370.31	57.394
370.67	55.433
371.03	54.986
371.39	55.205
371.75	57.015
372.11	55.759
372.47	56.872
372.83	56.545
373.19	55.837
373.55	57.046
373.91	55.828
374.27	56.080
374.63	57.104
374.99	55.968
375.35	55.390
375.71	56.194
376.07	56.294
376.42	56.864
376.78	55.998
377.14	55.958
377.50	57.559
377.86	57.389
378.22	57.425
378.58	57.194
378.94	56.455
379.30	56.708
379.66	56.849
380.02	57.357
380.38	57.776
380.74	57.972
381.09	57.375
381.45	56.818
381.81	58.255
382.17	57.957
382.53	57.368
382.89	56.716
383.25	59.027
383.61	58.275
383.97	58.009
384.32	57.177
384.68	56.323
385.04	58.473
385.40	57.985
385.76	58.792
386.12	56.553
386.48	58.118
386.83	58.939
387.19	57.126
387.55	56.984
387.91	57.477
388.27	57.621
388.62	56.816
388.98	56.684
389.34	56.747
389.70	57.757
390.06	57.549
390.42	56.747
390.77	57.797
391.13	56.808
391.49	57.367
391.85	57.818
392.20	55.457
392.56	57.058
392.92	56.325
393.28	57.877
393.64	56.425
393.99	57.118
394.35	57.593
394.71	57.246
395.07	55.928
395.42	56.768
395.78	58.013
396.14	57.398
396.50	57.067
396.85	55.158
397.21	56.509
397.57	55.948
397.92	56.758
398.28	56.437
398.64	56.693
399.00	54.921
399.35	55.079
399.71	56.522
400.07	56.485
400.42	55.530
400.78	56.366
401.14	56.972
401.49	56.509
401.85	57.674
402.21	55.968
402.57	55.927
402.92	54.846
403.28	56.440
403.63	55.251
403.99	54.038
404.35	56.111
404.70	55.637
405.06	53.641
405.42	56.265
405.77	55.507
406.13	55.754
406.49	55.968
406.84	54.626
407.20	53.773
407.55	55.663
407.91	53.928
408.27	53.180
408.62	54.392
408.98	54.092
409.34	53.724
409.69	54.759
410.05	54.513
410.40	55.046
410.76	54.010
411.11	54.413
411.47	54.115
411.83	54.380
412.18	54.639
412.54	54.594
412.89	54.598
413.25	53.725
413.60	54.681
413.96	54.079
414.31	53.541
414.67	53.906
415.03	53.415
415.38	53.090
415.74	51.802
416.09	53.671
416.45	52.035
416.80	52.632
417.16	53.193
417.51	53.362
417.87	52.851
418.22	52.575
418.58	53.160
418.93	52.037
419.29	53.884
419.64	50.900
420.00	51.810
420.35	52.386
420.71	52.039
421.06	52.559
421.42	52.236
421.77	51.535
422.12	52.220
422.48	51.203
422.83	51.807
423.19	51.618
423.54	52.434
423.90	51.353
424.25	52.373
424.61	51.493
424.96	52.554
425.31	51.221
425.67	51.208
426.02	51.356
426.38	51.665
426.73	50.502
427.09	50.865
427.44	50.300
427.79	50.691
428.15	51.256
428.50	50.449
428.85	50.402
429.21	51.117
429.56	50.543
429.92	50.909
430.27	51.084
430.62	50.904
430.98	51.205
431.33	49.609
431.68	49.713
432.04	50.533
432.39	50.455
432.74	49.258
433.10	49.432
433.45	49.498
433.80	50.429
434.16	49.897
434.51	50.103
434.86	51.249
435.22	50.478
435.57	51.356
435.92	50.529
436.28	50.512
436.63	50.191
436.98	49.544
437.34	50.902
437.69	49.422
438.04	49.815
438.39	48.823
438.75	49.364
439.10	51.374
439.45	49.469
439.81	49.435
440.16	48.901
440.51	48.439
440.86	48.583
441.22	48.875
441.57	49.371
441.92	48.836
442.27	48.535
442.63	48.634
442.98	48.132
443.33	48.711
443.68	49.009
444.03	49.389
444.39	49.561
444.74	48.341
445.09	47.846
445.44	47.998
445.79	48.611
446.15	48.356
446.50	49.561
446.85	48.152
447.20	48.888
447.55	48.536
447.91	48.168
448.26	47.939
448.61	47.928
448.96	49.249
449.31	48.250
449.66	47.658
450.02	48.049
450.37	49.334
450.72	48.009
451.07	48.747
451.42	46.736
451.77	48.638
452.12	48.194
452.47	46.940
452.83	48.142
453.18	47.110
453.53	46.927
453.88	46.770
454.23	47.062
454.58	47.591
454.93	46.541
455.28	48.284
455.63	46.219
455.98	47.207
456.34	46.702
456.69	47.737
457.04	47.459
457.39	45.510
457.74	46.477
458.09	46.623
458.44	46.713
458.79	45.952
459.14	45.779
459.49	46.633
459.84	45.908
460.19	45.197
460.54	46.735
460.89	46.056
461.24	46.149
461.59	45.324
461.94	43.982
462.29	45.577
462.64	44.961
462.99	45.888
463.34	44.971
463.69	44.783
464.04	45.748
464.39	44.787
464.74	43.158
465.09	45.386
465.44	44.099
465.79	43.733
466.14	43.252
466.49	43.947
466.84	43.967
467.19	43.988
467.54	42.186
467.89	42.299
468.24	43.102
468.59	42.733
468.94	43.415
469.29	42.232
469.64	42.022
469.99	42.766
470.34	42.698
470.68	44.429
471.03	43.157
471.38	43.427
471.73	42.913
472.08	42.893
472.43	41.782
472.78	42.254
473.13	42.415
473.48	41.631
473.83	41.788
474.17	42.087
474.52	42.514
474.87	41.030
475.22	42.197
475.57	40.083
475.92	40.966
476.27	40.415
476.61	40.654
476.96	39.625
477.31	40.891
477.66	40.766
478.01	39.400
478.36	39.681
478.70	40.739
479.05	41.053
479.40	40.375
479.75	40.250
480.10	39.555
480.45	39.881
480.79	40.181
481.14	39.017
481.49	39.846
481.84	39.513
482.19	39.699
482.53	40.184
482.88	38.680
483.23	39.840
483.58	39.345
483.92	38.298
484.27	38.400
484.62	39.026
484.97	38.103
485.31	37.698
485.66	36.403
486.01	35.402
486.36	36.339
486.70	37.171
487.05	37.262
487.40	38.008
487.75	37.837
488.09	37.532
488.44	36.652
488.79	36.425
489.13	37.256
489.48	36.544
489.83	36.338
490.17	35.682
490.52	36.864
490.87	36.760
491.22	36.742
491.56	35.836
491.91	36.764
492.26	36.434
492.60	36.248
492.95	35.981
493.30	36.172
493.64	36.137
493.99	35.965
494.34	34.887
494.68	35.503
495.03	35.330
495.37	34.798
495.72	35.057
496.07	34.268
496.41	34.620
496.76	35.780
497.11	34.692
497.45	33.923
497.80	34.518
498.14	34.966
498.49	34.329
498.84	34.963
499.18	34.503
499.53	34.484
499.87	34.725
500.22	33.437
500.56	34.413
500.91	33.684
501.26	33.909
501.60	33.009
501.95	33.218
502.29	33.567
502.64	33.581
502.98	32.442
503.33	32.052
503.67	32.665
504.02	33.144
504.36	33.691
504.71	32.614
505.06	32.788
505.40	32.815
505.75	32.286
506.09	32.597
506.44	32.637
506.78	32.202
507.13	32.596
507.47	32.260
507.82	31.487
508.16	31.788
508.51	31.271
508.85	32.121
509.19	31.739
509.54	31.940
509.88	31.957
510.23	32.152
510.57	32.286
510.92	30.672
511.26	31.217
511.61	30.420
511.95	31.040
512.30	31.659
512.64	31.184
512.98	31.016
513.33	30.998
513.67	30.546
514.02	30.966
514.36	31.509
514.70	31.198
515.05	29.875
515.39	30.866
515.74	30.753
516.08	30.639
516.42	30.665
516.77	31.020
517.11	29.139
517.46	29.745
517.80	30.037
518.14	31.991
518.49	29.935
518.83	29.963
519.17	30.264
519.52	29.612
519.86	29.989
520.20	29.233
520.55	29.682
520.89	29.505
521.23	28.922
521.58	29.718
521.92	29.802
522.26	29.267
522.61	29.225
522.95	28.835
523.29	28.276
523.64	29.036
523.98	29.435
524.32	30.201
524.66	29.197
525.01	27.690
525.35	28.547
525.69	27.146
526.04	27.784
526.38	27.414
526.72	28.316
527.06	28.915
527.41	28.455
527.75	27.791
528.09	27.686
528.43	28.182
528.78	28.382
529.12	27.867
529.46	27.206
529.80	27.803
530.15	27.246
530.49	28.114
530.83	27.804
531.17	27.121
531.51	28.400
531.86	27.163
532.20	27.744
532.54	26.631
532.88	27.273
533.22	26.576
533.57	27.005
533.91	26.712
534.25	26.964
534.59	26.264
534.93	25.750
535.27	27.155
535.62	25.981
535.96	25.276
536.30	26.733
536.64	26.486
536.98	26.937
537.32	26.481
537.66	27.137
538.01	25.196
538.35	26.553
538.69	25.541
539.03	26.426
539.37	25.442
539.71	25.405
540.05	25.600
540.39	25.795
540.73	24.772
541.07	25.199
541.42	25.222
541.76	24.437
542.10	25.151
542.44	25.152
542.78	24.878
543.12	24.672
543.46	24.359
543.80	23.981
544.14	24.117
544.48	24.941
544.82	25.554
545.16	23.733
545.50	24.685
545.84	24.801
546.18	25.247
546.52	24.204
546.86	24.528
547.20	23.664
547.54	24.719
547.88	23.448
548.22	23.450
548.56	23.347
548.90	23.463
549.24	23.526
549.58	22.776
549.92	23.278
550.26	24.013
550.60	24.378
550.94	23.545
551.28	23.498
551.62	24.798
551.96	23.172
552.30	23.964
552.64	23.709
552.98	23.893
553.32	24.566
553.66	22.958
554.00	23.644
554.34	23.745
554.68	23.176
555.02	23.916
555.36	23.340
555.69	22.357
556.03	22.825
556.37	23.467
556.71	22.765
557.05	23.067
557.39	22.163
557.73	22.523
558.07	22.848
558.41	22.857
558.75	22.380
559.08	22.477
559.42	22.016
559.76	23.202
560.10	22.773
560.44	21.966
560.78	22.562
561.12	22.660
561.45	22.202
561.79	22.100
562.13	21.688
562.47	21.270
562.81	21.899
563.15	21.907
563.48	22.250
563.82	21.342
564.16	21.502
564.50	21.335
564.84	21.829
565.17	21.412
565.51	21.289
565.85	21.378
566.19	20.507
566.52	20.889
566.86	20.543
567.20	20.228
567.54	20.977
567.88	20.948
568.21	20.800
568.55	20.384
568.89	20.744
569.23	20.870
569.56	20.242
569.90	20.456
570.24	19.831
570.57	19.500
570.91	19.443
571.25	19.468
571.59	19.204
571.92	19.243
572.26	18.793
572.60	18.810
572.93	19.371
573.27	19.078
573.61	18.899
573.95	18.937
574.28	19.108
574.62	18.599
574.96	18.438
575.29	18.242
575.63	18.388
575.97	19.066
576.30	18.554
576.64	18.420
576.98	18.178
577.31	18.594
577.65	18.304
577.98	18.053
578.32	17.963
578.66	18.187
578.99	18.124
579.33	18.253
579.67	18.404
580.00	18.476
580.34	18.128
580.67	18.116
581.01	18.131
581.35	17.943
581.68	17.516
582.02	17.622
582.35	17.692
582.69	17.875
583.02	17.642
583.36	17.909
583.70	17.587
584.03	17.447
584.37	17.675
584.70	17.726
585.04	17.368
585.37	17.521
585.71	17.195
586.04	17.635
586.38	17.688
586.72	17.047
587.05	17.472
587.39	17.726
587.72	17.225
588.06	17.529
588.39	17.849
588.73	17.116
589.06	17.494
589.40	17.333
589.73	17.995
590.07	17.706
590.40	18.391
590.73	17.851
591.07	17.982
591.40	17.379
591.74	17.448
592.07	18.108
592.41	16.995
592.74	17.039
593.08	17.548
593.41	17.585
593.75	16.868
594.08	17.207
594.41	17.404
594.75	17.004
595.08	16.857
595.42	17.078
595.75	17.372
596.09	17.147
596.42	17.162
596.75	17.599
597.09	17.818
597.42	16.885
597.75	16.895
598.09	18.254
598.42	17.772
598.76	17.157
599.09	17.373
599.42	16.326
599.76	16.474
600.09	16.817
600.42	16.650
600.76	16.215
601.09	16.827
601.42	16.752
601.76	16.517
602.09	16.405
602.42	16.685
602.76	16.494
603.09	17.181
603.42	16.582
603.76	16.103
604.09	17.246
604.42	16.954
604.76	15.791
605.09	16.793
605.42	17.105
605.75	16.538
606.09	16.163
606.42	16.381
606.75	16.004
607.09	15.822
607.42	16.031
607.75	16.686
608.08	16.417
608.42	16.364
608.75	17.040
609.08	16.341
609.41	15.968
609.75	16.205
610.08	16.755
610.41	16.610
610.74	16.218
611.07	16.652
611.41	16.368
611.74	16.813
612.07	16.503
612.40	16.065
612.73	16.430
613.07	16.137
613.40	17.036
613.73	16.659
614.06	16.389
614.39	15.889
614.72	16.788
615.06	15.929
615.39	16.191
615.72	16.588
616.05	16.270
616.38	16.398
616.71	16.928
617.05	16.134
617.38	15.998
617.71	17.171
618.04	16.676
618.37	16.066
618.70	17.081
619.03	15.771
619.36	16.091
619.69	16.784
620.03	16.635
620.36	15.951
620.69	17.088
621.02	16.535
621.35	17.344
621.68	17.426
622.01	16.726
622.34	15.900
622.67	17.113
623.00	15.385
623.33	18.049
623.66	15.888
623.99	16.129
624.32	17.869
624.65	16.474
624.99	16.580
625.32	16.395
625.65	16.318
625.98	16.407
626.31	15.804
626.64	17.363
626.97	16.654
627.30	14.958
627.63	16.204
627.96	17.117
628.29	16.654
628.62	16.037
628.95	15.776
629.28	16.822
629.61	17.088
629.94	15.565
630.26	15.847
630.59	16.494
630.92	16.104
631.25	17.621
631.58	17.043
631.91	17.901
632.24	17.099
632.57	16.509
632.90	16.851
633.23	16.735
633.56	16.020
633.89	14.773
634.22	17.568
634.55	16.597
634.88	16.775
635.20	18.945
635.53	18.079
635.86	17.226
636.19	17.709
636.52	19.093
636.85	16.445
637.18	16.320
637.51	16.989
637.83	17.276
638.16	17.512
638.49	17.136
638.82	15.671
639.15	16.151
639.48	18.014
639.81	18.014
640.13	17.786
640.46	15.030
640.79	16.176
641.12	18.261
641.45	16.939
641.77	19.384
642.10	17.323
642.43	18.085
642.76	18.428
643.09	17.534
643.41	17.087
643.74	17.103
644.07	18.483
644.40	15.842
644.73	18.433
645.05	17.034
645.38	18.849
645.71	18.035
646.04	18.938
646.36	15.766
646.69	15.798
647.02	17.278
647.35	19.542
647.67	18.519
648.00	20.541
648.33	17.868
648.66	14.693
648.98	15.646
649.31	16.509
649.64	17.795
649.96	17.109
650.29	15.021
650.62	18.246
650.94	16.667
651.27	15.419
651.60	16.667
651.92	16.413
652.25	16.932
652.58	16.919
652.90	14.971
653.23	17.042
653.56	15.407
653.88	20.225
654.21	16.338
654.54	16.185
654.86	15.722
655.19	14.931
655.52	15.004
655.84	12.767
656.17	14.768
656.49	20.584
656.82	22.890
657.15	17.832
657.47	13.671
657.80	10.034
658.13	7.913
658.45	10.414
658.78	13.342
659.10	12.763
659.43	12.986
659.75	13.052
660.08	12.941
660.41	14.309
660.73	15.051
661.06	14.978
661.38	17.384
661.71	17.931
662.03	17.637
662.36	16.100
662.68	16.886
663.01	15.929
663.33	20.416
663.66	18.315
663.98	16.923
664.31	17.824
664.63	16.570
664.96	16.152
665.28	17.604
665.61	16.783
665.93	16.964
666.26	15.950
666.58	14.760
666.91	18.505
667.23	18.095
667.56	16.765
667.88	17.600
668.21	13.086
668.53	14.286
668.86	17.485
669.18	15.682
669.50	16.103
669.83	13.200
670.15	16.142
670.48	15.873
670.80	15.870
671.13	16.257
671.45	16.535
671.77	16.949
672.10	15.833
672.42	16.667
672.75	14.286
673.07	15.522
673.39	13.867
673.72	15.436
674.04	17.069
674.37	17.531
674.69	16.226
675.01	16.000
675.34	13.931
675.66	15.918
675.98	18.657
676.31	16.797
676.63	16.540
676.95	16.667
677.28	14.919
677.60	13.780
677.92	17.274
678.25	18.099
678.57	14.947
678.89	17.577
679.22	14.634
679.54	16.068
679.86	15.424
680.18	14.262
680.51	15.566
680.83	14.566
681.15	13.103
681.48	14.853
681.80	15.889
682.12	14.161
682.44	12.855
682.77	13.830
683.09	16.098
683.41	17.636
683.73	14.991
684.06	15.683
684.38	12.880
684.70	16.517
685.02	15.835
685.34	13.977
685.67	13.407
685.99	14.110
686.31	15.552
686.63	15.008
686.96	16.562
687.28	13.681
687.60	13.468
687.92	14.309
688.24	14.357
688.56	12.759
688.89	13.975
689.21	17.613
689.53	11.961
689.85	16.371
690.17	12.593
690.49	14.542
690.82	14.653
691.14	14.170
691.46	16.061
691.78	16.759
692.10	11.743
692.42	12.679
692.74	14.338
693.06	12.963
693.39	15.939
693.71	12.218
694.03	12.825
694.35	14.095
694.67	15.195
694.99	17.234
695.31	13.907
695.63	14.719
695.95	12.215
696.27	14.505
696.59	15.929
696.91	16.441
697.23	14.945
697.56	12.831
697.88	10.417
698.20	12.806
698.52	15.909
698.84	15.177
699.16	16.122
699.48	12.971
699.80	13.617
700.12	14.847
700.44	15.668
700.76	14.964
701.08	14.770
701.40	15.285
701.72	13.433
702.04	14.439
702.36	14.921
702.68	16.870
703.00	13.203
703.32	14.532
703.64	13.203
703.96	17.661
704.28	13.022
704.60	16.709
704.91	14.541
705.23	17.260
705.55	15.042
705.87	15.152
706.19	15.337
706.51	12.651
706.83	10.951
707.15	12.963
707.47	13.318
707.79	13.755
708.11	12.288
708.43	12.043
708.74	11.384
709.06	16.937
709.38	13.850
709.70	17.122
710.02	11.370
710.34	13.032
710.66	11.453
710.98	14.481
711.29	11.264
711.61	13.277
711.93	14.245
712.25	12.973
712.57	15.339
712.89	18.235
713.20	15.385
713.52	13.873
713.84	12.535
714.16	13.947
714.48	11.856
714.80	15.325
715.11	13.648
715.43	12.997
715.75	16.053
716.07	14.088
716.39	15.301
716.70	16.566
717.02	14.098
717.34	13.240
717.66	16.779
717.97	15.068
718.29	14.089
718.61	15.132
718.93	12.621
719.24	13.043
719.56	11.043
719.88	13.514
720.20	15.484
720.51	14.286
720.83	11.563
721.15	8.553
721.46	9.932
721.78	8.000
722.10	9.061
722.42	15.436
722.73	14.839
723.05	12.281
723.37	12.500
723.68	15.054
724.00	12.996
724.32	13.380
724.63	13.636
724.95	14.184
725.27	12.544
725.58	11.661
725.90	18.621
726.22	12.539
726.53	13.961
726.85	15.094
727.16	15.408
727.48	16.208
727.80	15.563
728.11	8.834
728.43	13.468
728.74	11.371
729.06	12.914
729.38	16.558
729.69	12.081
730.01	13.690
730.32	10.909
730.64	14.465
730.96	9.627
731.27	13.966
731.59	12.912
731.90	9.870
732.22	12.240
732.53	11.326
732.85	13.714
733.16	9.971
733.48	8.537
733.80	11.142
734.11	13.390
734.43	10.811
734.74	17.215
735.06	9.548
735.37	9.459
735.69	12.703
736.00	14.124
736.32	12.938
736.63	11.944
736.95	10.632
737.26	12.424
737.58	10.303
737.89	12.647
738.21	11.315
738.52	14.098
738.83	13.311
739.15	9.220
739.46	15.646
739.78	11.656
740.09	8.883
740.41	14.286
740.72	11.667
741.04	12.298
741.35	12.281
741.66	15.294
741.98	14.344
742.29	10.042
742.61	13.158
742.92	13.077
743.23	13.357
743.55	12.791
743.86	12.000
744.18	10.331
744.49	11.814
744.80	14.403
745.12	13.502
745.43	15.854
745.74	10.345
746.06	13.136
746.37	16.034
746.68	18.293
747.00	12.500
747.31	12.876
747.62	15.769
747.94	8.502
748.25	7.631
748.56	12.653
748.88	14.530
749.19	14.224
749.50	9.524
749.82	11.245
750.13	14.591
750.44	10.333
750.75	12.308
751.07	12.308
751.38	11.356
751.69	11.821
752.01	10.680
752.32	11.438
752.63	10.544
752.94	9.343
753.26	10.037
753.57	11.111
753.88	12.734
754.19	11.576
754.51	6.752
754.82	11.254
755.13	15.410
755.44	12.628
755.75	8.882
756.07	13.433
756.38	10.692
756.69	12.048
757.00	6.648
757.31	8.470
757.63	7.673
757.94	8.920
758.25	11.061
758.56	11.983
758.87	10.909
759.18	9.333
759.50	15.014
759.81	10.924
760.12	11.321
760.43	10.417
760.74	12.562
761.05	8.750
761.36	7.952
761.67	9.137
761.99	7.568
762.30	9.451
762.61	9.241
762.92	12.313
763.23	10.487
763.54	14.029
763.85	9.278
764.16	9.428
764.47	11.620
764.78	11.502
765.10	8.211
765.41	14.103
765.72	6.349
766.03	11.017
766.34	8.464
766.65	8.362
766.96	7.570
767.27	10.599
767.58	5.970
767.89	17.788
768.20	9.390
768.51	8.796
768.82	8.032
769.13	9.091
769.44	5.385
769.75	12.996
770.06	10.385
770.37	11.811
770.68	5.957
770.99	8.907
771.30	12.222
771.61	13.308
771.92	8.889
772.23	9.312
772.54	7.870
772.85	15.207
773.16	12.381
773.47	6.349
773.78	4.865
774.09	10.795
774.39	11.500
774.70	13.115
775.01	13.415
775.32	12.941
775.63	11.043
775.94	8.280
776.25	10.323
776.56	22.436
776.87	12.245
777.18	3.448
777.48	9.091
777.79	10.811
778.10	11.029
778.41	9.722
778.72	15.862
779.03	10.494
779.34	9.091
779.65	13.990
779.95	10.556
780.26	6.818
780.57	12.258
780.88	14.493
781.19	13.548
781.50	11.765
781.80	11.828
782.11	8.466
782.42	6.566
782.73	3.593
783.04	14.525
783.34	4.242
783.65	11.765
783.96	8.075
784.27	8.333
784.57	15.894
784.88	10.714
785.19	11.024
785.50	11.024
785.81	9.023
786.11	13.846
786.42	5.036
786.73	3.597
787.04	15.038
787.34	9.016
787.65	5.600
787.96	15.672
788.26	18.182
788.57	11.189
788.88	13.816
789.19	14.379
789.49	11.644
789.80	11.348
790.11	15.748
790.41	12.500
790.72	15.254
791.03	-1.942
791.33	20.870
791.64	11.404
791.95	16.071
792.25	16.190
792.56	7.143
792.87	14.583
793.17	6.250
793.48	2.083
793.79	-1.205
794.09	5.505
794.40	11.009
794.70	8.844
795.01	6.494
795.32	6.849
795.62	18.310
795.93	9.091
796.23	11.475
796.54	5.357
796.85	18.085
797.15	20.652
797.46	2.740
797.76	3.750
798.07	13.043
798.37	1.031
798.68	11.688
798.99	21.839
799.29	12.360
799.60	9.574
799.90	7.229
800.21	20.000
800.51	7.463
800.82	1.471
801.12	-10.959
801.43	-1.471
801.73	3.390
802.04	12.121
802.34	5.000
802.65	13.559
802.95	8.955
803.26	11.864
803.56	9.589
803.87	11.429
804.17	6.849
804.48	-21.053
804.78	5.556
805.09	8.621
805.39	4.054
805.70	0.000
806.00	19.512
806.30	3.614
806.61	12.329
806.91	21.154
807.22	7.778
807.52	-1.149
807.83	2.778
808.13	25.301
808.43	8.989
808.74	13.750
809.04	-2.941
809.35	9.333
809.65	7.143
809.95	-1.370
810.26	-7.018
810.56	6.897
810.86	11.765
811.17	21.053
811.47	4.918
811.77	0.000
812.08	8.475
812.38	18.333
812.69	12.069
812.99	-1.887
813.29	0.000
813.59	22.000
813.90	7.018
814.20	9.091
814.50	18.310
814.81	15.385
815.11	26.230
815.41	13.433
815.72	24.138
816.02	14.286
816.32	20.000
816.62	11.364
816.93	15.556
817.23	20.370
817.53	-2.128
817.84	19.048
818.14	-2.941
818.44	26.531
818.74	-6.667
819.04	-23.077
819.35	-17.143
819.65	-38.462
819.95	15.094
820.25	20.000
820.56	7.143
820.86	12.500
821.16	5.128
821.46	13.953
821.76	-26.000
822.07	12.500
822.37	-4.348
822.67	10.638
822.97	2.703
823.27	2.500
823.57	16.327
823.88	22.222
824.18	12.500
824.48	-33.333
824.78	-20.000
825.08	12.121
825.38	42.222
825.69	25.532
825.99	22.222
826.29	-40.000
826.59	-25.641
826.89	-30.233
827.19	24.000
827.49	0.000
827.79	33.333
828.09	-32.432
828.39	-20.000
828.70	12.195
829.00	16.279
829.30	-10.714
829.60	26.471
829.90	19.565
830.20	5.714
830.50	-37.931
830.80	5.556
831.10	30.769
831.40	0.000
831.70	4.762
832.00	32.258
832.30	-11.765
832.60	0.000
832.90	-53.846
833.20	-5.263
833.50	-10.000
833.80	-5.263
834.10	-57.143
834.40	25.000
834.70	25.000
835.00	-22.857
835.30	8.824
835.60	6.667
835.90	-24.000
836.20	-72.727
836.50	4.000
836.80	12.121
837.10	-14.815
837.40	29.630
837.70	-25.000
838.00	46.429
838.30	-30.435
838.60	24.138
838.90	42.857
839.19	-34.783
839.49	-50.000
839.79	0.000
840.09	-68.750
840.39	0.000
840.69	6.452
840.99	14.286
841.29	13.333
841.59	-36.842
841.88	12.821
842.18	30.769
842.48	20.000
842.78	-35.000
843.08	-6.667
843.38	16.129
843.68	-83.333
843.97	11.765
844.27	6.250
844.57	31.579
844.87	-40.000
845.17	6.667
845.47	23.810
845.76	0.000
846.06	-22.222
846.36	-5.882
846.66	26.923
846.96	-6.667
847.25	23.529
847.55	26.087
847.85	40.000
848.15	-17.647
848.44	-27.273
848.74	23.810
849.04	-8.333
849.34	-6.250
849.63	8.696
849.93	350.000
850.23	46.667
850.53	61.538
850.82	27.273
851.12	36.364
851.42	0.000
851.71	61.538
852.01	-5.000
852.31	61.538
852.61	-5.263
852.90	-50.000
853.20	11.111
853.50	-44.444
853.79	0.000
854.09	-9.091
854.39	0.000
854.68	41.935
854.98	-7.692
855.28	11.111
855.57	-10.714
855.87	32.000
856.17	36.364
856.46	3.704
856.76	5.556
857.05	-21.739
857.35	8.333
857.65	-38.462
857.94	47.619
858.24	0.000
858.53	39.130
858.83	-5.882
859.13	-17.647
859.42	-5.882
859.72	85.714
860.01	25.000
860.31	-11.111
860.60	20.000
860.90	6.667
861.20	55.556
861.49	15.385
861.79	30.000
862.08	-38.462
862.38	40.625
862.67	23.529
862.97	18.750
863.26	11.111
863.56	90.000
863.85	-18.182
864.15	77.778
864.44	-133.333
864.74	50.000
865.03	-31.250
865.33	-80.000
865.62	-12.903
865.92	36.364
866.21	26.087
866.51	0.000
866.80	0.000
867.10	-58.333
867.39	-83.333
867.69	700.000
867.98	28.571
868.27	5.882
868.57	-1300.000
868.86	-20.000
869.16	-28.571
869.45	20.833
869.75	63.636
870.04	14.286
870.33	-16.667
870.63	-57.143
870.92	-75.000
871.22	12.500
871.51	-81.818
871.80	-366.667
872.10	-650.000
>>>>>End Processed Spectral Data<<<<<
