SpectraSuite Data File
++++++++++++++++++++++++++++++++++++
Date: Thu May 14 16:41:56 PDT 2015
User: schluterlab
Dark Spectrum Present: Yes
Reference Spectrum Present: Yes
Number of Sampled Component Spectra: 1
Spectrometers: USB2E3373
Integration Time (usec): 3000 (USB2E3373)
Spectra Averaged: 3 (USB2E3373)
Boxcar Smoothing: 0 (USB2E3373)
Correct for Electrical Dark: No (USB2E3373)
Strobe/Lamp Enabled: No (USB2E3373)
Correct for Detector Non-linearity: No (USB2E3373)
Correct for Stray Light: No (USB2E3373)
Number of Pixels in Processed Spectrum: 2048
>>>>>Begin Processed Spectral Data<<<<<
178.53	0.000
178.91	-0.000
179.29	-200.000
179.67	400.000
180.04	185.714
180.42	50.000
180.80	80.000
181.18	-900.000
181.56	100.000
181.94	175.000
182.31	-50.000
182.69	200.000
183.07	200.000
183.45	175.000
183.83	16.667
184.20	-266.667
184.58	1200.000
184.96	-50.000
185.34	-11.111
185.72	100.000
186.09	133.333
186.47	450.000
186.85	140.000
187.23	-77.778
187.61	-400.000
187.98	-120.000
188.36	100.000
188.74	-100.000
189.12	66.667
189.49	-12.500
189.87	-62.500
190.25	0.000
190.63	-80.000
191.00	22.222
191.38	0.000
191.76	-75.000
192.14	-50.000
192.51	100.000
192.89	50.000
193.27	0.000
193.65	-14.286
194.02	-300.000
194.40	-128.571
194.78	114.286
195.15	0.000
195.53	-18.182
195.91	0.000
196.29	250.000
196.66	38.462
197.04	-100.000
197.42	-71.429
197.79	150.000
198.17	25.000
198.55	-57.143
198.92	0.000
199.30	-25.000
199.68	-45.455
200.05	-14.286
200.43	-300.000
200.81	242.857
201.18	0.000
201.56	155.556
201.94	0.000
202.31	233.333
202.69	-88.889
203.07	1000.000
203.44	11.111
203.82	-25.000
204.19	0.000
204.57	0.000
204.95	-12.500
205.32	-300.000
205.70	-0.000
206.08	83.333
206.45	16.667
206.83	140.000
207.20	50.000
207.58	-360.000
207.96	-100.000
208.33	0.000
208.71	-0.000
209.08	133.333
209.46	0.000
209.84	166.667
210.21	200.000
210.59	50.000
210.96	133.333
211.34	275.000
211.71	50.000
212.09	-500.000
212.46	0.000
212.84	800.000
213.22	0.000
213.59	-150.000
213.97	-10.000
214.34	33.333
214.72	-0.000
215.09	-75.000
215.47	0.000
215.84	85.714
216.22	200.000
216.59	20.000
216.97	-180.000
217.34	-125.000
217.72	112.500
218.09	-100.000
218.47	-125.000
218.84	0.000
219.22	20.000
219.59	41.176
219.97	60.000
220.34	650.000
220.72	-66.667
221.09	0.000
221.47	166.667
221.84	-60.000
222.22	28.571
222.59	0.000
222.97	0.000
223.34	-300.000
223.72	-300.000
224.09	-50.000
224.46	25.000
224.84	220.000
225.21	-100.000
225.59	-175.000
225.96	-125.000
226.34	50.000
226.71	66.667
227.08	-450.000
227.46	0.000
227.83	-75.000
228.21	36.842
228.58	75.000
228.95	400.000
229.33	66.667
229.70	80.000
230.08	84.211
230.45	60.000
230.82	-33.333
231.20	50.000
231.57	0.000
231.95	-9.091
232.32	-36.364
232.69	50.000
233.07	275.000
233.44	35.294
233.81	-10.000
234.19	50.000
234.56	50.000
234.93	37.931
235.31	63.158
235.68	22.222
236.05	-30.000
236.43	65.385
236.80	72.000
237.17	29.630
237.55	21.212
237.92	80.000
238.29	25.806
238.67	25.000
239.04	33.333
239.41	16.667
239.79	43.478
240.16	5.556
240.53	36.957
240.91	15.686
241.28	16.393
241.65	29.851
242.02	41.892
242.40	23.077
242.77	24.000
243.14	24.390
243.51	28.947
243.89	15.385
244.26	24.752
244.63	24.510
245.00	29.907
245.38	29.825
245.75	17.699
246.12	26.190
246.49	18.605
246.87	29.286
247.24	23.179
247.61	32.895
247.98	26.174
248.36	27.778
248.73	25.767
249.10	29.508
249.47	30.846
249.84	34.031
250.22	27.979
250.59	31.667
250.96	30.000
251.33	26.531
251.70	26.496
252.08	31.667
252.45	28.279
252.82	28.099
253.19	28.906
253.56	33.080
253.94	30.000
254.31	29.545
254.68	32.867
255.05	28.990
255.42	27.211
255.79	26.537
256.16	30.132
256.54	30.464
256.91	29.508
257.28	28.525
257.65	26.752
258.02	28.614
258.39	27.066
258.76	32.416
259.14	29.310
259.51	28.818
259.88	29.745
260.25	30.278
260.62	29.315
260.99	30.874
261.36	30.563
261.73	29.178
262.10	27.747
262.47	30.027
262.85	31.818
263.22	26.753
263.59	25.789
263.96	30.179
264.33	27.110
264.70	31.111
265.07	31.026
265.44	31.293
265.81	28.241
266.18	28.345
266.55	27.679
266.92	29.157
267.29	30.853
267.66	29.490
268.03	29.258
268.40	33.403
268.77	28.474
269.14	29.736
269.51	28.070
269.88	27.049
270.25	28.169
270.62	29.536
270.99	28.687
271.36	30.891
271.73	30.648
272.10	28.858
272.47	28.457
272.84	28.916
273.21	29.659
273.58	29.839
273.95	27.692
274.32	27.376
274.69	29.207
275.06	29.304
275.43	24.769
275.80	30.335
276.17	25.741
276.54	27.052
276.91	29.696
277.28	29.837
277.65	27.648
278.02	29.412
278.39	27.355
278.76	28.998
279.13	25.887
279.50	30.412
279.87	28.265
280.23	25.000
280.60	28.136
280.97	28.454
281.34	27.165
281.71	28.426
282.08	26.578
282.45	27.005
282.82	27.002
283.19	26.979
283.56	27.213
283.92	30.330
284.29	29.226
284.66	27.422
285.03	24.840
285.40	27.357
285.77	28.483
286.14	27.939
286.51	26.484
286.87	26.066
287.24	26.355
287.61	26.158
287.98	24.924
288.35	25.148
288.72	25.592
289.08	26.794
289.45	24.408
289.82	25.602
290.19	27.155
290.56	25.493
290.93	25.678
291.29	24.793
291.66	24.931
292.03	23.474
292.40	25.850
292.77	23.450
293.13	23.139
293.50	22.470
293.87	23.087
294.24	25.733
294.60	23.515
294.97	21.879
295.34	24.072
295.71	21.564
296.08	22.739
296.44	22.059
296.81	21.315
297.18	21.046
297.55	21.462
297.91	22.420
298.28	21.090
298.65	21.760
299.02	23.022
299.38	19.908
299.75	20.444
300.12	19.792
300.48	22.235
300.85	20.360
301.22	20.246
301.59	20.091
301.95	20.678
302.32	19.667
302.69	20.153
303.05	20.131
303.42	20.288
303.79	19.583
304.15	19.979
304.52	18.922
304.89	20.628
305.25	18.737
305.62	19.749
305.99	19.485
306.35	18.952
306.72	20.889
307.09	19.188
307.45	19.255
307.82	18.971
308.19	19.072
308.55	19.769
308.92	18.500
309.29	20.019
309.65	17.934
310.02	18.911
310.38	19.587
310.75	20.000
311.12	19.463
311.48	20.626
311.85	17.474
312.22	18.406
312.58	19.155
312.95	18.356
313.31	19.241
313.68	19.505
314.05	18.970
314.41	20.856
314.78	19.346
315.14	19.601
315.51	19.206
315.87	19.622
316.24	17.078
316.61	19.094
316.97	18.190
317.34	18.695
317.70	19.301
318.07	20.018
318.43	19.388
318.80	19.398
319.16	18.884
319.53	17.995
319.89	17.353
320.26	18.505
320.62	17.642
320.99	18.283
321.35	19.224
321.72	18.512
322.08	17.493
322.45	18.880
322.81	17.960
323.18	16.991
323.54	18.793
323.91	18.594
324.27	17.986
324.64	18.808
325.00	18.325
325.37	19.001
325.73	17.603
326.10	19.708
326.46	20.033
326.83	19.135
327.19	18.425
327.56	19.605
327.92	18.253
328.29	18.145
328.65	17.337
329.01	18.697
329.38	19.208
329.74	17.723
330.11	18.921
330.47	18.618
330.84	18.002
331.20	17.417
331.56	18.544
331.93	18.075
332.29	19.322
332.66	18.522
333.02	16.248
333.38	17.785
333.75	17.593
334.11	17.765
334.48	18.317
334.84	18.777
335.20	18.304
335.57	17.707
335.93	18.430
336.29	16.889
336.66	17.325
337.02	17.391
337.38	17.262
337.75	17.521
338.11	17.830
338.47	17.204
338.84	17.597
339.20	18.113
339.56	17.957
339.93	17.323
340.29	17.391
340.65	17.762
341.02	17.877
341.38	17.947
341.74	17.837
342.11	17.860
342.47	16.759
342.83	18.357
343.20	16.926
343.56	17.241
343.92	16.653
344.28	16.641
344.65	17.442
345.01	17.083
345.37	16.330
345.73	16.991
346.10	17.161
346.46	16.456
346.82	16.629
347.19	17.112
347.55	16.995
347.91	16.642
348.27	17.754
348.63	16.984
349.00	16.033
349.36	17.323
349.72	16.815
350.08	17.459
350.45	16.806
350.81	16.591
351.17	16.767
351.53	16.755
351.89	17.084
352.26	16.642
352.62	16.493
352.98	17.023
353.34	15.683
353.70	16.487
354.07	16.542
354.43	15.793
354.79	15.782
355.15	15.747
355.51	15.716
355.87	15.557
356.24	16.122
356.60	15.521
356.96	16.457
357.32	15.911
357.68	15.520
358.04	15.344
358.40	15.746
358.77	16.374
359.13	16.100
359.49	14.647
359.85	16.751
360.21	16.141
360.57	16.080
360.93	16.573
361.29	16.211
361.66	16.148
362.02	16.423
362.38	17.006
362.74	15.712
363.10	16.369
363.46	16.136
363.82	15.554
364.18	16.397
364.54	16.528
364.90	15.518
365.26	15.586
365.62	16.067
365.98	16.201
366.35	16.711
366.71	15.918
367.07	16.171
367.43	16.284
367.79	16.589
368.15	17.458
368.51	16.509
368.87	15.480
369.23	15.733
369.59	15.301
369.95	15.957
370.31	15.868
370.67	15.612
371.03	15.997
371.39	15.245
371.75	15.750
372.11	16.328
372.47	14.963
372.83	15.576
373.19	16.678
373.55	15.650
373.91	15.201
374.27	16.494
374.63	15.088
374.99	16.313
375.35	15.065
375.71	16.000
376.07	15.429
376.42	15.365
376.78	15.538
377.14	16.157
377.50	15.370
377.86	16.318
378.22	15.749
378.58	15.696
378.94	15.317
379.30	15.290
379.66	14.932
380.02	15.638
380.38	15.783
380.74	15.662
381.09	14.518
381.45	15.511
381.81	16.101
382.17	15.380
382.53	15.556
382.89	15.914
383.25	15.358
383.61	14.178
383.97	15.077
384.32	15.072
384.68	15.023
385.04	15.905
385.40	15.969
385.76	16.002
386.12	14.901
386.48	14.706
386.83	15.197
387.19	15.064
387.55	14.495
387.91	14.897
388.27	16.109
388.62	15.120
388.98	15.285
389.34	16.087
389.70	14.875
390.06	15.690
390.42	14.819
390.77	16.315
391.13	14.965
391.49	15.580
391.85	14.788
392.20	15.540
392.56	15.475
392.92	14.722
393.28	15.478
393.64	14.581
393.99	15.514
394.35	15.654
394.71	15.509
395.07	15.090
395.42	15.420
395.78	16.392
396.14	16.280
396.50	15.914
396.85	15.027
397.21	15.444
397.57	16.019
397.92	15.235
398.28	14.938
398.64	15.389
399.00	14.712
399.35	14.974
399.71	15.326
400.07	15.216
400.42	15.192
400.78	14.468
401.14	15.424
401.49	15.691
401.85	15.465
402.21	15.469
402.57	15.904
402.92	15.426
403.28	14.403
403.63	14.081
403.99	14.786
404.35	15.009
404.70	14.561
405.06	15.380
405.42	15.047
405.77	15.976
406.13	15.559
406.49	14.977
406.84	14.903
407.20	15.316
407.55	14.597
407.91	15.462
408.27	15.312
408.62	14.951
408.98	15.728
409.34	14.604
409.69	15.698
410.05	16.002
410.40	15.545
410.76	15.536
411.11	15.196
411.47	15.295
411.83	15.697
412.18	16.627
412.54	15.708
412.89	15.716
413.25	16.309
413.60	14.704
413.96	15.676
414.31	15.694
414.67	15.086
415.03	15.446
415.38	16.456
415.74	15.761
416.09	15.793
416.45	14.402
416.80	14.810
417.16	15.900
417.51	15.940
417.87	14.347
418.22	16.048
418.58	14.932
418.93	16.414
419.29	15.783
419.64	14.586
420.00	15.964
420.35	15.609
420.71	15.623
421.06	15.354
421.42	15.080
421.77	14.809
422.12	15.275
422.48	15.463
422.83	16.046
423.19	15.597
423.54	15.210
423.90	15.130
424.25	15.840
424.61	14.524
424.96	15.651
425.31	15.977
425.67	14.976
426.02	15.938
426.38	15.442
426.73	14.900
427.09	16.667
427.44	15.401
427.79	15.423
428.15	15.753
428.50	15.112
428.85	15.155
429.21	15.372
429.56	14.758
429.92	15.577
430.27	15.614
430.62	15.535
430.98	15.494
431.33	16.080
431.68	15.278
432.04	15.998
432.39	16.069
432.74	15.582
433.10	15.846
433.45	15.663
433.80	15.880
434.16	15.496
434.51	15.416
434.86	15.907
435.22	16.631
435.57	15.861
435.92	16.194
436.28	15.870
436.63	15.674
436.98	15.405
437.34	16.122
437.69	16.511
438.04	16.235
438.39	15.221
438.75	15.108
439.10	16.649
439.45	15.372
439.81	14.915
440.16	15.496
440.51	15.942
440.86	15.898
441.22	15.916
441.57	15.933
441.92	16.101
442.27	15.758
442.63	15.002
442.98	15.848
443.33	16.307
443.68	16.056
444.03	16.651
444.39	15.811
444.74	16.386
445.09	15.864
445.44	15.753
445.79	15.565
446.15	15.930
446.50	16.848
446.85	15.564
447.20	16.103
447.55	15.952
447.91	16.230
448.26	15.803
448.61	16.950
448.96	17.060
449.31	16.225
449.66	15.577
450.02	16.297
450.37	16.249
450.72	15.770
451.07	16.800
451.42	15.713
451.77	15.675
452.12	16.761
452.47	16.221
452.83	17.173
453.18	16.404
453.53	16.025
453.88	15.737
454.23	16.554
454.58	16.367
454.93	15.959
455.28	16.135
455.63	16.998
455.98	17.207
456.34	15.607
456.69	16.696
457.04	16.548
457.39	15.632
457.74	16.890
458.09	16.090
458.44	16.541
458.79	16.658
459.14	16.256
459.49	17.317
459.84	16.212
460.19	16.047
460.54	16.922
460.89	17.099
461.24	16.149
461.59	17.156
461.94	15.459
462.29	17.301
462.64	17.441
462.99	16.949
463.34	17.132
463.69	16.764
464.04	17.899
464.39	17.265
464.74	17.446
465.09	16.724
465.44	17.060
465.79	16.288
466.14	16.884
466.49	16.895
466.84	17.025
467.19	16.647
467.54	16.510
467.89	17.069
468.24	16.731
468.59	15.750
468.94	16.958
469.29	17.516
469.64	16.465
469.99	17.591
470.34	17.017
470.68	17.567
471.03	18.009
471.38	17.397
471.73	17.620
472.08	17.132
472.43	17.339
472.78	17.569
473.13	17.636
473.48	17.825
473.83	17.295
474.17	17.116
474.52	17.679
474.87	18.272
475.22	17.127
475.57	16.407
475.92	16.775
476.27	17.039
476.61	17.238
476.96	17.935
477.31	17.277
477.66	18.520
478.01	17.692
478.36	17.747
478.70	17.389
479.05	18.303
479.40	17.325
479.75	17.627
480.10	17.906
480.45	18.004
480.79	16.961
481.14	17.188
481.49	17.583
481.84	17.755
482.19	17.333
482.53	17.753
482.88	17.545
483.23	17.430
483.58	16.943
483.92	16.888
484.27	17.866
484.62	17.409
484.97	16.991
485.31	17.001
485.66	15.690
486.01	15.568
486.36	15.322
486.70	16.249
487.05	16.541
487.40	16.554
487.75	16.234
488.09	16.878
488.44	16.677
488.79	17.639
489.13	17.451
489.48	16.893
489.83	17.586
490.17	17.213
490.52	18.062
490.87	18.232
491.22	18.068
491.56	18.473
491.91	18.840
492.26	18.044
492.60	18.758
492.95	18.561
493.30	18.198
493.64	17.652
493.99	18.509
494.34	18.293
494.68	17.602
495.03	18.458
495.37	17.843
495.72	18.186
496.07	19.018
496.41	17.675
496.76	18.474
497.11	18.004
497.45	17.911
497.80	19.058
498.14	18.141
498.49	18.474
498.84	18.464
499.18	18.444
499.53	18.789
499.87	18.374
500.22	17.275
500.56	18.219
500.91	18.215
501.26	19.591
501.60	18.118
501.95	18.324
502.29	19.000
502.64	18.889
502.98	18.248
503.33	18.704
503.67	18.055
504.02	17.732
504.36	18.945
504.71	18.374
505.06	18.281
505.40	18.739
505.75	18.807
506.09	19.107
506.44	19.499
506.78	18.624
507.13	19.594
507.47	19.754
507.82	18.703
508.16	18.738
508.51	19.316
508.85	18.895
509.19	18.948
509.54	19.404
509.88	18.796
510.23	20.058
510.57	19.961
510.92	19.448
511.26	19.192
511.61	18.542
511.95	19.961
512.30	19.695
512.64	18.391
512.98	19.310
513.33	20.111
513.67	19.888
514.02	20.491
514.36	19.898
514.70	20.104
515.05	20.282
515.39	19.895
515.74	20.626
516.08	20.127
516.42	21.088
516.77	20.347
517.11	20.371
517.46	20.201
517.80	20.470
518.14	21.219
518.49	20.228
518.83	20.703
519.17	20.409
519.52	20.545
519.86	20.275
520.20	20.607
520.55	20.427
520.89	20.383
521.23	21.385
521.58	21.186
521.92	20.113
522.26	21.363
522.61	21.354
522.95	21.626
523.29	21.149
523.64	20.908
523.98	21.335
524.32	21.834
524.66	21.172
525.01	20.668
525.35	20.563
525.69	19.954
526.04	20.838
526.38	21.667
526.72	21.338
527.06	20.704
527.41	20.991
527.75	21.971
528.09	21.251
528.43	21.670
528.78	20.694
529.12	20.356
529.46	21.529
529.80	21.625
530.15	20.812
530.49	21.590
530.83	21.192
531.17	21.147
531.51	20.939
531.86	21.034
532.20	21.646
532.54	20.946
532.88	22.121
533.22	21.391
533.57	21.581
533.91	21.437
534.25	20.407
534.59	20.977
534.93	20.034
535.27	21.183
535.62	22.115
535.96	21.092
536.30	20.329
536.64	21.922
536.98	21.710
537.32	20.741
537.66	22.333
538.01	21.571
538.35	20.706
538.69	21.274
539.03	22.256
539.37	21.378
539.71	21.081
540.05	21.403
540.39	20.293
540.73	20.279
541.07	21.214
541.42	21.559
541.76	21.115
542.10	20.989
542.44	21.011
542.78	20.499
543.12	21.156
543.46	20.330
543.80	20.863
544.14	20.766
544.48	21.277
544.82	20.706
545.16	20.572
545.50	21.390
545.84	20.453
546.18	22.160
546.52	21.210
546.86	21.132
547.20	20.992
547.54	20.724
547.88	20.976
548.22	20.526
548.56	20.889
548.90	21.015
549.24	21.398
549.58	21.640
549.92	21.556
550.26	21.942
550.60	22.272
550.94	22.445
551.28	21.650
551.62	22.439
551.96	21.812
552.30	20.841
552.64	21.220
552.98	21.460
553.32	22.186
553.66	21.994
554.00	22.573
554.34	21.943
554.68	20.852
555.02	21.156
555.36	23.208
555.69	21.653
556.03	21.185
556.37	21.840
556.71	21.497
557.05	22.109
557.39	22.031
557.73	22.127
558.07	21.457
558.41	21.196
558.75	22.515
559.08	23.243
559.42	21.879
559.76	21.506
560.10	22.505
560.44	21.768
560.78	22.375
561.12	20.690
561.45	21.655
561.79	21.856
562.13	21.503
562.47	21.517
562.81	21.772
563.15	21.970
563.48	22.063
563.82	21.342
564.16	21.139
564.50	21.216
564.84	21.416
565.17	21.176
565.51	20.368
565.85	20.546
566.19	20.334
566.52	20.655
566.86	21.166
567.20	19.685
567.54	20.287
567.88	20.336
568.21	20.751
568.55	19.856
568.89	20.200
569.23	19.138
569.56	18.718
569.90	18.781
570.24	18.078
570.57	17.704
570.91	17.116
571.25	17.414
571.59	17.339
571.92	17.457
572.26	17.178
572.60	17.390
572.93	17.395
573.27	17.168
573.61	17.496
573.95	17.213
574.28	16.608
574.62	16.894
574.96	16.564
575.29	16.303
575.63	16.609
575.97	17.006
576.30	17.049
576.64	16.846
576.98	16.606
577.31	16.667
577.65	16.447
577.98	16.133
578.32	16.032
578.66	16.076
578.99	16.445
579.33	16.763
579.67	16.704
580.00	16.790
580.34	17.256
580.67	16.659
581.01	16.248
581.35	16.443
581.68	16.327
582.02	15.928
582.35	15.834
582.69	16.028
583.02	16.352
583.36	16.369
583.70	16.474
584.03	16.607
584.37	16.564
584.70	17.335
585.04	16.392
585.37	16.527
585.71	16.332
586.04	16.469
586.38	16.411
586.72	16.596
587.05	16.782
587.39	16.928
587.72	16.986
588.06	16.779
588.39	17.177
588.73	17.354
589.06	17.353
589.40	17.394
589.73	17.834
590.07	17.706
590.40	18.154
590.73	17.780
591.07	18.652
591.40	18.002
591.74	18.124
592.07	19.245
592.41	17.863
592.74	17.927
593.08	17.484
593.41	17.294
593.75	17.040
594.08	17.449
594.41	17.596
594.75	17.502
595.08	17.699
595.42	17.078
595.75	17.501
596.09	17.655
596.42	18.130
596.75	18.140
597.09	19.030
597.42	18.395
597.75	18.228
598.09	18.175
598.42	18.858
598.76	17.807
599.09	17.515
599.42	17.566
599.76	17.398
600.09	17.351
600.42	18.051
600.76	17.338
601.09	17.491
601.42	17.782
601.76	18.172
602.09	17.548
602.42	18.139
602.76	17.934
603.09	17.107
603.42	17.991
603.76	17.759
604.09	18.169
604.42	18.275
604.76	17.618
605.09	18.548
605.42	18.341
605.75	18.000
606.09	17.880
606.42	17.658
606.75	17.841
607.09	17.550
607.42	18.035
607.75	17.780
608.08	17.601
608.42	18.259
608.75	18.325
609.08	18.251
609.41	18.262
609.75	19.107
610.08	18.865
610.41	18.479
610.74	18.277
611.07	19.050
611.41	19.238
611.74	19.261
612.07	19.729
612.40	18.916
612.73	18.875
613.07	19.120
613.40	19.538
613.73	19.403
614.06	18.744
614.39	19.485
614.72	19.505
615.06	18.672
615.39	18.753
615.72	19.384
616.05	18.504
616.38	18.971
616.71	19.540
617.05	18.637
617.38	20.225
617.71	19.816
618.04	19.050
618.37	20.219
618.70	20.136
619.03	20.131
619.36	20.469
619.69	20.307
620.03	20.527
620.36	20.552
620.69	20.358
621.02	20.472
621.35	22.279
621.68	22.849
622.01	21.423
622.34	20.293
622.67	21.512
623.00	19.703
623.33	21.367
623.66	20.558
623.99	19.552
624.32	21.248
624.65	20.399
624.99	21.977
625.32	21.293
625.65	21.713
625.98	20.542
626.31	21.332
626.64	21.392
626.97	21.905
627.30	21.412
627.63	21.305
627.96	22.598
628.29	22.646
628.62	22.754
628.95	23.050
629.28	21.665
629.61	22.054
629.94	21.590
630.26	23.051
630.59	22.453
630.92	22.511
631.25	24.687
631.58	23.446
631.91	23.618
632.24	24.976
632.57	23.624
632.90	24.273
633.23	25.510
633.56	24.694
633.89	24.277
634.22	25.260
634.55	24.530
634.88	24.784
635.20	25.942
635.53	24.294
635.86	24.160
636.19	25.239
636.52	24.367
636.85	24.208
637.18	24.636
637.51	24.516
637.83	25.360
638.16	25.346
638.49	23.944
638.82	24.690
639.15	24.857
639.48	27.021
639.81	24.480
640.13	25.913
640.46	24.848
640.79	25.613
641.12	26.335
641.45	26.223
641.77	27.471
642.10	25.722
642.43	26.729
642.76	24.119
643.09	26.301
643.41	27.031
643.74	24.552
644.07	28.966
644.40	26.025
644.73	26.270
645.05	27.606
645.38	27.770
645.71	27.859
646.04	28.121
646.36	28.175
646.69	28.681
647.02	28.287
647.35	26.718
647.67	27.697
648.00	28.185
648.33	27.027
648.66	27.532
648.98	26.395
649.31	26.522
649.64	27.092
649.96	25.862
650.29	24.896
650.62	26.308
650.94	24.775
651.27	24.701
651.60	26.170
651.92	26.900
652.25	27.641
652.58	26.272
652.90	25.436
653.23	26.197
653.56	24.108
653.88	28.230
654.21	25.915
654.54	23.555
654.86	26.062
655.19	23.588
655.52	20.670
655.84	16.020
656.17	17.686
656.49	24.641
656.82	26.572
657.15	20.760
657.47	15.724
657.80	11.815
658.13	9.219
658.45	12.582
658.78	15.609
659.10	15.410
659.43	16.008
659.75	16.579
660.08	17.591
660.41	20.099
660.73	21.893
661.06	23.642
661.38	26.635
661.71	26.897
662.03	26.631
662.36	29.875
662.68	30.206
663.01	28.850
663.33	29.112
663.66	28.388
663.98	28.269
664.31	31.895
664.63	25.819
664.96	29.220
665.28	25.953
665.61	28.497
665.93	27.500
666.26	28.495
666.58	26.568
666.91	29.159
667.23	29.714
667.56	28.008
667.88	29.200
668.21	28.125
668.53	25.869
668.86	29.666
669.18	27.088
669.50	30.020
669.83	25.600
670.15	26.969
670.48	29.762
670.80	28.107
671.13	27.977
671.45	28.150
671.77	27.307
672.10	25.667
672.42	24.272
672.75	23.810
673.07	24.478
673.39	24.807
673.72	26.174
674.04	26.034
674.37	26.834
674.69	26.279
675.01	25.714
675.34	26.718
675.66	27.903
675.98	27.425
676.31	27.344
676.63	29.087
676.95	27.778
677.28	29.435
677.60	25.591
677.92	27.639
678.25	26.874
678.57	26.690
678.89	26.621
679.22	24.564
679.54	24.615
679.86	26.102
680.18	25.207
680.51	25.943
680.83	26.514
681.15	23.966
681.48	27.288
681.80	26.252
682.12	26.224
682.44	24.374
682.77	27.660
683.09	25.758
683.41	26.357
683.73	24.858
684.06	26.937
684.38	23.614
684.70	25.853
685.02	27.022
685.34	23.794
685.67	22.713
685.99	22.546
686.31	20.930
686.63	23.381
686.96	25.079
687.28	24.593
687.60	23.737
687.92	23.151
688.24	23.372
688.56	23.103
688.89	25.953
689.21	26.027
689.53	24.314
689.85	23.866
690.17	24.074
690.49	25.697
690.82	25.743
691.14	25.304
691.46	24.857
691.78	25.599
692.10	24.954
692.42	21.786
692.74	23.775
693.06	21.852
693.39	27.514
693.71	26.692
694.03	24.349
694.35	23.429
694.67	25.257
694.99	29.149
695.31	26.711
695.63	27.273
695.95	24.845
696.27	27.033
696.59	27.876
696.91	24.775
697.23	30.769
697.56	23.422
697.88	25.568
698.20	27.307
698.52	28.409
698.84	28.274
699.16	26.735
699.48	27.615
699.80	26.596
700.12	24.672
700.44	26.037
700.76	27.791
701.08	27.361
701.40	28.238
701.72	26.866
702.04	24.599
702.36	25.131
702.68	24.939
703.00	25.183
703.32	25.862
703.64	26.895
703.96	26.492
704.28	24.079
704.60	27.595
704.91	26.786
705.23	28.493
705.55	28.134
705.87	30.000
706.19	31.288
706.51	25.602
706.83	27.954
707.15	24.074
707.47	22.664
707.79	24.236
708.11	22.669
708.43	22.151
708.74	20.313
709.06	24.362
709.38	26.291
709.70	26.799
710.02	25.840
710.34	26.596
710.66	25.698
710.98	27.322
711.29	23.626
711.61	25.141
711.93	27.066
712.25	27.838
712.57	25.664
712.89	28.824
713.20	26.331
713.52	26.590
713.84	22.006
714.16	28.947
714.48	25.000
714.80	27.013
715.11	25.197
715.43	27.586
715.75	26.579
716.07	23.204
716.39	26.503
716.70	25.301
717.02	27.869
717.34	26.829
717.66	30.201
717.97	23.288
718.29	28.522
718.61	23.684
718.93	25.890
719.24	29.193
719.56	29.448
719.88	25.526
720.20	25.484
720.51	24.845
720.83	27.500
721.15	24.342
721.46	23.973
721.78	26.000
722.10	21.036
722.42	23.490
722.73	21.290
723.05	27.719
723.37	27.778
723.68	24.373
724.00	29.242
724.32	23.239
724.63	23.077
724.95	31.560
725.27	24.390
725.58	24.735
725.90	29.310
726.22	22.884
726.53	25.974
726.85	27.987
727.16	23.263
727.48	28.746
727.80	26.490
728.11	19.788
728.43	23.569
728.74	23.411
729.06	23.510
729.38	30.519
729.69	21.812
730.01	24.405
730.32	21.212
730.64	29.874
730.96	22.671
731.27	25.419
731.59	23.352
731.90	22.597
732.22	19.531
732.53	21.823
732.85	20.286
733.16	23.460
733.48	20.732
733.80	22.841
734.11	23.362
734.43	23.514
734.74	23.544
735.06	21.106
735.37	21.351
735.69	23.243
736.00	24.294
736.32	22.102
736.63	22.778
736.95	23.276
737.26	23.939
737.58	21.212
737.89	22.941
738.21	20.489
738.52	22.295
738.83	26.280
739.15	26.596
739.46	26.531
739.78	21.472
740.09	25.215
740.41	24.781
740.72	23.000
741.04	25.243
741.35	24.211
741.66	25.098
741.98	27.459
742.29	26.778
742.61	28.070
742.92	26.538
743.23	25.271
743.55	26.744
743.86	28.800
744.18	25.620
744.49	24.051
744.80	28.807
745.12	26.160
745.43	25.203
745.74	25.000
746.06	30.508
746.37	29.536
746.68	31.707
747.00	28.333
747.31	27.468
747.62	29.615
747.94	25.101
748.25	24.096
748.56	26.122
748.88	28.632
749.19	27.155
749.50	27.706
749.82	28.514
750.13	24.911
750.44	24.000
750.75	21.231
751.07	25.538
751.38	24.290
751.69	22.684
752.01	21.359
752.32	23.529
752.63	23.469
752.94	25.606
753.26	22.677
753.57	21.111
753.88	23.221
754.19	27.331
754.51	24.437
754.82	27.010
755.13	27.541
755.44	24.232
755.75	23.355
756.07	26.567
756.38	23.270
756.69	27.108
757.00	18.837
757.31	21.585
757.63	17.903
757.94	19.953
758.25	21.219
758.56	18.301
758.87	19.773
759.18	24.000
759.50	21.813
759.81	23.249
760.12	21.833
760.43	19.792
760.74	22.660
761.05	17.500
761.36	20.000
761.67	20.305
761.99	22.162
762.30	22.256
762.61	21.452
762.92	22.388
763.23	23.596
763.54	21.223
763.85	24.055
764.16	21.212
764.47	25.352
764.78	23.323
765.10	22.287
765.41	21.538
765.72	17.460
766.03	19.492
766.34	17.241
766.65	18.467
766.96	21.116
767.27	28.111
767.58	18.905
767.89	30.769
768.20	27.230
768.51	27.315
768.82	26.104
769.13	20.076
769.44	20.000
769.75	22.383
770.06	23.846
770.37	27.165
770.68	18.298
770.99	17.004
771.30	23.704
771.61	25.095
771.92	17.037
772.23	25.911
772.54	14.815
772.85	25.346
773.16	23.333
773.47	24.339
773.78	25.405
774.09	26.136
774.39	27.000
774.70	22.404
775.01	28.049
775.32	27.059
775.63	23.926
775.94	18.471
776.25	29.677
776.56	34.615
776.87	31.293
777.18	24.138
777.48	28.671
777.79	17.568
778.10	28.676
778.41	26.389
778.72	28.966
779.03	25.926
779.34	27.879
779.65	27.461
779.95	30.556
780.26	23.864
780.57	27.097
780.88	25.362
781.19	21.935
781.50	20.588
781.80	27.419
782.11	26.455
782.42	15.657
782.73	25.749
783.04	25.698
783.34	26.061
783.65	20.915
783.96	24.845
784.27	19.643
784.57	19.868
784.88	17.857
785.19	26.772
785.50	24.409
785.81	21.053
786.11	31.538
786.42	17.266
786.73	22.302
787.04	26.316
787.34	24.590
787.65	22.400
787.96	23.134
788.26	30.070
788.57	32.168
788.88	27.632
789.19	32.680
789.49	29.452
789.80	17.730
790.11	28.346
790.41	20.313
790.72	29.661
791.03	14.563
791.33	23.478
791.64	25.439
791.95	30.357
792.25	24.762
792.56	27.679
792.87	25.000
793.17	19.643
793.48	27.083
793.79	9.639
794.09	18.349
794.40	26.606
794.70	18.367
795.01	16.883
795.32	15.753
795.62	17.606
795.93	18.939
796.23	27.869
796.54	15.179
796.85	18.085
797.15	23.913
797.46	17.808
797.76	22.500
798.07	22.826
798.37	23.711
798.68	10.390
798.99	21.839
799.29	16.854
799.60	26.596
799.90	19.277
800.21	24.615
800.51	23.881
800.82	14.706
801.12	16.438
801.43	14.706
801.73	10.169
802.04	27.273
802.34	38.333
802.65	18.644
802.95	20.896
803.26	27.119
803.56	24.658
803.87	22.857
804.17	36.986
804.48	19.298
804.78	34.722
805.09	12.069
805.39	14.865
805.70	5.634
806.00	26.829
806.30	16.867
806.61	8.219
806.91	23.077
807.22	11.111
807.52	11.494
807.83	43.056
808.13	33.735
808.43	31.461
808.74	13.750
809.04	10.294
809.35	13.333
809.65	25.714
809.95	31.507
810.26	8.772
810.56	13.793
810.86	33.824
811.17	15.789
811.47	18.033
811.77	8.889
812.08	23.729
812.38	38.333
812.69	15.517
812.99	15.094
813.29	20.513
813.59	40.000
813.90	38.596
814.20	14.545
814.50	32.394
814.81	21.795
815.11	19.672
815.41	16.418
815.72	32.759
816.02	23.214
816.32	33.333
816.62	47.727
816.93	28.889
817.23	33.333
817.53	29.787
817.84	35.714
818.14	32.353
818.44	48.980
818.74	22.222
819.04	-5.128
819.35	11.429
819.65	11.538
819.95	33.962
820.25	31.111
820.56	-4.762
820.86	15.625
821.16	12.821
821.46	20.930
821.76	-4.000
822.07	21.429
822.37	17.391
822.67	21.277
822.97	-2.703
823.27	12.500
823.57	32.653
823.88	42.222
824.18	47.500
824.48	16.667
824.78	48.000
825.08	36.364
825.38	53.333
825.69	21.277
825.99	30.556
826.29	-28.571
826.59	30.769
826.89	32.558
827.19	10.000
827.49	17.647
827.79	31.250
828.09	8.108
828.39	-3.333
828.70	9.756
829.00	-9.302
829.30	35.714
829.60	67.647
829.90	13.043
830.20	37.143
830.50	31.034
830.80	27.778
831.10	0.000
831.40	29.412
831.70	42.857
832.00	35.484
832.30	-17.647
832.60	8.333
832.90	30.769
833.20	31.579
833.50	0.000
833.80	21.053
834.10	-19.048
834.40	36.111
834.70	40.625
835.00	0.000
835.30	17.647
835.60	20.000
835.90	4.000
836.20	0.000
836.50	28.000
836.80	-12.121
837.10	11.111
837.40	25.926
837.70	-37.500
838.00	60.714
838.30	-4.348
838.60	31.034
838.90	42.857
839.19	-8.696
839.49	-41.667
839.79	30.435
840.09	-37.500
840.39	25.000
840.69	41.935
840.99	-3.571
841.29	-26.667
841.59	5.263
841.88	41.026
842.18	23.077
842.48	-10.000
842.78	-20.000
843.08	56.667
843.38	29.032
843.68	-22.222
843.97	52.941
844.27	6.250
844.57	-31.579
844.87	10.000
845.17	60.000
845.47	38.095
845.76	-9.524
846.06	11.111
846.36	47.059
846.66	38.462
846.96	13.333
847.25	29.412
847.55	43.478
847.85	15.000
848.15	-5.882
848.44	9.091
848.74	4.762
849.04	8.333
849.34	6.250
849.63	26.087
849.93	100.000
850.23	53.333
850.53	53.846
850.82	0.000
851.12	54.545
851.42	-9.091
851.71	61.538
852.01	30.000
852.31	69.231
852.61	5.263
852.90	50.000
853.20	72.222
853.50	-33.333
853.79	9.524
854.09	-50.000
854.39	-175.000
854.68	3.226
854.98	-7.692
855.28	-5.556
855.57	-3.571
855.87	32.000
856.17	-18.182
856.46	18.519
856.76	11.111
857.05	26.087
857.35	20.833
857.65	38.462
857.94	61.905
858.24	18.519
858.53	17.391
858.83	-23.529
859.13	23.529
859.42	52.941
859.72	42.857
860.01	-15.000
860.31	-33.333
860.60	-20.000
860.90	0.000
861.20	16.667
861.49	15.385
861.79	26.667
862.08	-46.154
862.38	40.625
862.67	-11.765
862.97	12.500
863.26	-133.333
863.56	-30.000
863.85	-54.545
864.15	16.667
864.44	-333.333
864.74	-7.143
865.03	-25.000
865.33	-10.000
865.62	9.677
865.92	45.455
866.21	30.435
866.51	42.857
866.80	-60.000
867.10	-16.667
867.39	33.333
867.69	-0.000
867.98	-71.429
868.27	17.647
868.57	-1600.000
868.86	-60.000
869.16	14.286
869.45	45.833
869.75	27.273
870.04	28.571
870.33	41.667
870.63	-28.571
870.92	175.000
871.22	-200.000
871.51	-18.182
871.80	-433.333
872.10	50.000
>>>>>End Processed Spectral Data<<<<<
