SpectraSuite Data File
++++++++++++++++++++++++++++++++++++
Date: Thu May 14 16:39:13 PDT 2015
User: schluterlab
Dark Spectrum Present: Yes
Reference Spectrum Present: Yes
Number of Sampled Component Spectra: 1
Spectrometers: USB2E3373
Integration Time (usec): 3000 (USB2E3373)
Spectra Averaged: 3 (USB2E3373)
Boxcar Smoothing: 0 (USB2E3373)
Correct for Electrical Dark: No (USB2E3373)
Strobe/Lamp Enabled: No (USB2E3373)
Correct for Detector Non-linearity: No (USB2E3373)
Correct for Stray Light: No (USB2E3373)
Number of Pixels in Processed Spectrum: 2048
>>>>>Begin Processed Spectral Data<<<<<
178.53	0.000
178.91	85.714
179.29	-1800.000
179.67	-900.000
180.04	114.286
180.42	10.000
180.80	80.000
181.18	-300.000
181.56	200.000
181.94	25.000
182.31	-25.000
182.69	266.667
183.07	100.000
183.45	100.000
183.83	50.000
184.20	-166.667
184.58	600.000
184.96	-25.000
185.34	0.000
185.72	160.000
186.09	133.333
186.47	250.000
186.85	220.000
187.23	-55.556
187.61	-500.000
187.98	140.000
188.36	-75.000
188.74	-50.000
189.12	-33.333
189.49	50.000
189.87	-100.000
190.25	44.444
190.63	20.000
191.00	-133.333
191.38	0.000
191.76	-125.000
192.14	-33.333
192.51	250.000
192.89	100.000
193.27	0.000
193.65	-28.571
194.02	-900.000
194.40	-14.286
194.78	57.143
195.15	0.000
195.53	-9.091
195.91	0.000
196.29	0.000
196.66	-38.462
197.04	-900.000
197.42	-71.429
197.79	-200.000
198.17	-25.000
198.55	-28.571
198.92	77.778
199.30	62.500
199.68	-9.091
200.05	-78.571
200.43	0.000
200.81	85.714
201.18	0.000
201.56	144.444
201.94	0.000
202.31	266.667
202.69	-22.222
203.07	-300.000
203.44	22.222
203.82	-50.000
204.19	0.000
204.57	-266.667
204.95	62.500
205.32	-700.000
205.70	-175.000
206.08	0.000
206.45	-33.333
206.83	340.000
207.20	33.333
207.58	-140.000
207.96	-100.000
208.33	150.000
208.71	58.333
209.08	216.667
209.46	0.000
209.84	116.667
210.21	400.000
210.59	-100.000
210.96	133.333
211.34	50.000
211.71	50.000
212.09	-1500.000
212.46	0.000
212.84	400.000
213.22	20.000
213.59	-125.000
213.97	-30.000
214.34	-300.000
214.72	200.000
215.09	-225.000
215.47	0.000
215.84	85.714
216.22	250.000
216.59	-80.000
216.97	-20.000
217.34	50.000
217.72	75.000
218.09	-200.000
218.47	-200.000
218.84	0.000
219.22	100.000
219.59	35.294
219.97	10.000
220.34	800.000
220.72	-11.111
221.09	61.538
221.47	-366.667
221.84	20.000
222.22	-57.143
222.59	0.000
222.97	62.500
223.34	-300.000
223.72	-1600.000
224.09	25.000
224.46	25.000
224.84	180.000
225.21	-28.571
225.59	-100.000
225.96	-300.000
226.34	19.231
226.71	166.667
227.08	-300.000
227.46	-26.667
227.83	-200.000
228.21	52.632
228.58	50.000
228.95	300.000
229.33	-8.333
229.70	-50.000
230.08	36.842
230.45	40.000
230.82	100.000
231.20	-35.714
231.57	66.667
231.95	9.091
232.32	0.000
232.69	20.000
233.07	125.000
233.44	11.765
233.81	-30.000
234.19	88.889
234.56	18.182
234.93	0.000
235.31	26.316
235.68	0.000
236.05	-30.000
236.43	46.154
236.80	68.000
237.17	44.444
237.55	3.030
237.92	-10.000
238.29	25.806
238.67	25.000
239.04	13.889
239.41	23.810
239.79	17.391
240.16	20.370
240.53	-6.522
240.91	15.686
241.28	9.836
241.65	35.821
242.02	22.973
242.40	12.308
242.77	24.000
243.14	19.512
243.51	-1.316
243.89	2.564
244.26	27.723
244.63	28.431
245.00	16.822
245.38	20.175
245.75	7.965
246.12	18.254
246.49	19.380
246.87	22.857
247.24	24.503
247.61	17.763
247.98	18.121
248.36	16.049
248.73	11.656
249.10	20.219
249.47	23.383
249.84	30.890
250.22	18.653
250.59	24.444
250.96	24.091
251.33	14.796
251.70	18.803
252.08	17.500
252.45	23.361
252.82	20.661
253.19	16.797
253.56	23.194
253.94	18.462
254.31	20.833
254.68	23.427
255.05	21.824
255.42	22.109
255.79	21.683
256.16	23.510
256.54	23.841
256.91	24.918
257.28	22.623
257.65	20.701
258.02	20.944
258.39	21.083
258.76	22.630
259.14	22.414
259.51	19.885
259.88	21.246
260.25	21.389
260.62	23.562
260.99	24.317
261.36	24.129
261.73	19.098
262.10	24.451
262.47	20.375
262.85	26.263
263.22	21.039
263.59	17.105
263.96	23.018
264.33	22.506
264.70	24.691
265.07	24.582
265.44	24.490
265.81	23.380
266.18	24.717
266.55	23.884
266.92	21.412
267.29	25.164
267.66	20.843
268.03	24.672
268.40	22.756
268.77	22.096
269.14	22.467
269.51	22.588
269.88	23.975
270.25	21.529
270.62	24.895
270.99	24.242
271.36	23.564
271.73	22.593
272.10	22.445
272.47	24.048
272.84	20.884
273.21	21.042
273.58	22.379
273.95	21.538
274.32	20.342
274.69	22.244
275.06	24.176
275.43	21.996
275.80	22.222
276.17	20.556
276.54	22.015
276.91	21.467
277.28	23.146
277.65	22.980
278.02	22.610
278.39	20.471
278.76	20.035
279.13	23.404
279.50	22.680
279.87	24.150
280.23	20.423
280.60	21.695
280.97	23.026
281.34	22.411
281.71	24.027
282.08	20.764
282.45	21.277
282.82	20.879
283.19	20.032
283.56	21.148
283.92	20.571
284.29	23.697
284.66	20.854
285.03	19.391
285.40	20.866
285.77	22.136
286.14	22.290
286.51	19.787
286.87	20.221
287.24	21.386
287.61	20.927
287.98	19.486
288.35	19.675
288.72	21.450
289.08	20.351
289.45	19.379
289.82	19.578
290.19	19.684
290.56	20.423
290.93	19.829
291.29	20.799
291.66	20.523
292.03	18.182
292.40	20.544
292.77	18.059
293.13	19.892
293.50	18.528
293.87	18.658
294.24	19.467
294.60	18.837
294.97	18.121
295.34	17.542
295.71	16.520
296.08	17.571
296.44	18.015
296.81	19.610
297.18	16.687
297.55	17.571
297.91	17.319
298.28	16.588
298.65	15.933
299.02	17.946
299.38	17.277
299.75	17.991
300.12	15.625
300.48	16.935
300.85	17.435
301.22	17.002
301.59	16.210
301.95	16.158
302.32	16.444
302.69	15.772
303.05	16.213
303.42	16.186
303.79	17.083
304.15	16.930
304.52	15.011
304.89	16.126
305.25	16.977
305.62	15.987
305.99	17.216
306.35	16.028
306.72	16.546
307.09	14.619
307.45	16.563
307.82	14.934
308.19	15.641
308.55	15.815
308.92	14.703
309.29	15.613
309.65	16.277
310.02	15.248
310.38	14.862
310.75	15.243
311.12	16.683
311.48	15.152
311.85	16.239
312.22	15.085
312.58	15.775
312.95	15.201
313.31	15.718
313.68	15.751
314.05	16.350
314.41	15.392
314.78	15.622
315.14	14.882
315.51	15.974
315.87	16.022
316.24	15.342
316.61	16.519
316.97	14.661
317.34	15.785
317.70	16.594
318.07	15.608
318.43	14.881
318.80	15.468
319.16	14.335
319.53	13.882
319.89	14.373
320.26	15.658
320.62	14.539
320.99	15.235
321.35	15.434
321.72	16.651
322.08	15.059
322.45	15.176
322.81	15.704
323.18	14.867
323.54	15.345
323.91	15.214
324.27	15.835
324.64	16.037
325.00	15.257
325.37	15.479
325.73	15.620
326.10	15.815
326.46	15.798
326.83	15.612
327.19	15.512
327.56	15.652
327.92	15.264
328.29	14.919
328.65	15.578
329.01	15.144
329.38	16.007
329.74	15.582
330.11	15.668
330.47	14.490
330.84	15.245
331.20	15.500
331.56	16.898
331.93	16.318
332.29	17.119
332.66	14.867
333.02	14.489
333.38	15.688
333.75	15.067
334.11	15.847
334.48	15.264
334.84	16.313
335.20	15.281
335.57	15.852
335.93	15.455
336.29	15.308
336.66	13.877
337.02	15.635
337.38	16.071
337.75	14.959
338.11	15.812
338.47	15.219
338.84	15.736
339.20	14.153
339.56	15.568
339.93	14.943
340.29	15.459
340.65	15.166
341.02	15.563
341.38	15.279
341.74	14.931
342.11	14.481
342.47	15.091
342.83	15.378
343.20	14.554
343.56	14.916
343.92	15.292
344.28	15.000
344.65	15.039
345.01	14.587
345.37	15.474
345.73	14.809
346.10	14.665
346.46	14.320
346.82	16.030
347.19	15.508
347.55	14.795
347.91	13.893
348.27	14.264
348.63	14.090
349.00	14.392
349.36	15.316
349.72	14.955
350.08	14.636
350.45	14.144
350.81	14.253
351.17	14.962
351.53	13.798
351.89	14.882
352.26	15.448
352.62	13.731
352.98	14.122
353.34	13.891
353.70	13.482
354.07	14.083
354.43	13.971
354.79	14.211
355.15	13.760
355.51	15.570
355.87	13.762
356.24	14.373
356.60	13.304
356.96	14.010
357.32	15.019
357.68	13.836
358.04	13.772
358.40	14.478
358.77	13.743
359.13	13.294
359.49	13.680
359.85	13.343
360.21	14.060
360.57	13.855
360.93	13.188
361.29	14.526
361.66	13.541
362.02	15.449
362.38	14.898
362.74	14.595
363.10	14.099
363.46	13.504
363.82	14.347
364.18	14.215
364.54	14.592
364.90	13.579
365.26	13.517
365.62	14.067
365.98	13.887
366.35	14.295
366.71	14.014
367.07	14.005
367.43	14.314
367.79	14.997
368.15	13.311
368.51	14.073
368.87	13.717
369.23	13.267
369.59	13.866
369.95	13.320
370.31	14.720
370.67	13.618
371.03	14.474
371.39	12.962
371.75	13.411
372.11	13.347
372.47	14.015
372.83	13.482
373.19	13.676
373.55	13.279
373.91	12.270
374.27	14.812
374.63	14.344
374.99	13.859
375.35	14.156
375.71	12.516
376.07	12.782
376.42	13.917
376.78	13.487
377.14	13.911
377.50	13.725
377.86	13.732
378.22	13.293
378.58	13.853
378.94	13.380
379.30	13.708
379.66	14.227
380.02	13.214
380.38	14.055
380.74	13.859
381.09	13.589
381.45	13.182
381.81	13.642
382.17	13.183
382.53	13.626
382.89	13.600
383.25	13.365
383.61	12.095
383.97	13.545
384.32	13.038
384.68	12.239
385.04	12.840
385.40	13.730
385.76	13.247
386.12	12.986
386.48	13.294
386.83	14.064
387.19	12.920
387.55	12.676
387.91	12.614
388.27	13.395
388.62	13.631
388.98	13.085
389.34	13.259
389.70	13.190
390.06	12.966
390.42	13.434
390.77	14.269
391.13	13.380
391.49	13.829
391.85	12.970
392.20	13.167
392.56	14.294
392.92	13.522
393.28	13.212
393.64	12.849
393.99	13.364
394.35	13.610
394.71	13.473
395.07	12.156
395.42	13.478
395.78	13.772
396.14	13.012
396.50	13.539
396.85	13.476
397.21	13.136
397.57	12.662
397.92	13.345
398.28	12.493
398.64	12.185
399.00	12.880
399.35	13.403
399.71	13.315
400.07	13.251
400.42	12.398
400.78	13.715
401.14	13.660
401.49	13.246
401.85	12.616
402.21	13.963
402.57	13.380
402.92	12.825
403.28	12.529
403.63	12.589
403.99	12.470
404.35	14.042
404.70	13.371
405.06	12.826
405.42	12.939
405.77	13.304
406.13	12.696
406.49	12.782
406.84	13.241
407.20	12.912
407.55	12.901
407.91	13.199
408.27	12.426
408.62	12.565
408.98	13.639
409.34	12.962
409.69	13.412
410.05	13.365
410.40	13.341
410.76	12.900
411.11	13.033
411.47	13.391
411.83	13.345
412.18	13.193
412.54	13.456
412.89	13.329
413.25	13.600
413.60	13.383
413.96	13.520
414.31	13.598
414.67	13.715
415.03	13.354
415.38	13.430
415.74	12.767
416.09	13.757
416.45	12.899
416.80	13.770
417.16	12.644
417.51	13.138
417.87	13.243
418.22	13.353
418.58	12.887
418.93	14.144
419.29	13.687
419.64	12.965
420.00	12.997
420.35	13.532
420.71	13.498
421.06	13.744
421.42	13.532
421.77	13.032
422.12	13.161
422.48	13.313
422.83	14.074
423.19	13.050
423.54	14.768
423.90	12.921
424.25	13.547
424.61	12.916
424.96	14.168
425.31	13.960
425.67	12.936
426.02	13.282
426.38	13.375
426.73	13.504
427.09	14.302
427.44	12.889
427.79	12.659
428.15	12.215
428.50	13.146
428.85	12.916
429.21	14.096
429.56	13.475
429.92	13.563
430.27	13.735
430.62	13.483
430.98	12.691
431.33	13.783
431.68	12.931
432.04	13.916
432.39	12.480
432.74	13.242
433.10	14.494
433.45	13.378
433.80	14.163
434.16	13.223
434.51	13.515
434.86	13.355
435.22	13.603
435.57	14.092
435.92	13.689
436.28	13.652
436.63	13.763
436.98	13.741
437.34	13.191
437.69	13.043
438.04	13.062
438.39	14.072
438.75	13.448
439.10	13.319
439.45	13.471
439.81	12.994
440.16	13.405
440.51	14.437
440.86	13.563
441.22	13.826
441.57	13.260
441.92	13.628
442.27	13.384
442.63	13.661
442.98	14.088
443.33	14.098
443.68	13.826
444.03	14.017
444.39	14.378
444.74	14.497
445.09	13.938
445.44	13.804
445.79	13.745
446.15	14.645
446.50	13.540
446.85	14.056
447.20	13.926
447.55	13.964
447.91	14.136
448.26	13.266
448.61	13.921
448.96	14.002
449.31	13.998
449.66	13.617
450.02	13.502
450.37	13.745
450.72	13.079
451.07	13.554
451.42	13.114
451.77	13.118
452.12	13.770
452.47	13.785
452.83	13.851
453.18	13.719
453.53	14.015
453.88	13.805
454.23	13.842
454.58	14.742
454.93	13.774
455.28	14.088
455.63	14.156
455.98	13.911
456.34	13.663
456.69	13.286
457.04	14.125
457.39	14.468
457.74	14.597
458.09	13.619
458.44	14.116
458.79	13.667
459.14	14.263
459.49	14.205
459.84	14.218
460.19	13.881
460.54	14.367
460.89	14.240
461.24	14.425
461.59	14.333
461.94	13.805
462.29	15.398
462.64	14.243
462.99	14.564
463.34	15.250
463.69	14.713
464.04	14.675
464.39	14.294
464.74	14.424
465.09	13.495
465.44	14.324
465.79	14.120
466.14	14.695
466.49	14.579
466.84	13.719
467.19	15.087
467.54	13.396
467.89	13.391
468.24	14.072
468.59	13.260
468.94	13.753
469.29	13.497
469.64	13.414
469.99	14.404
470.34	14.480
470.68	14.149
471.03	14.800
471.38	13.473
471.73	14.174
472.08	14.594
472.43	14.690
472.78	14.358
473.13	14.855
473.48	14.864
473.83	14.742
474.17	14.244
474.52	14.552
474.87	14.563
475.22	14.085
475.57	14.278
475.92	14.833
476.27	13.685
476.61	14.019
476.96	13.764
477.31	14.554
477.66	14.743
478.01	14.540
478.36	14.756
478.70	14.926
479.05	14.826
479.40	14.265
479.75	13.881
480.10	14.732
480.45	14.859
480.79	14.785
481.14	14.430
481.49	14.675
481.84	13.969
482.19	14.280
482.53	14.211
482.88	14.577
483.23	14.629
483.58	14.498
483.92	14.007
484.27	14.818
484.62	14.398
484.97	14.502
485.31	13.692
485.66	13.800
486.01	13.500
486.36	14.006
486.70	14.210
487.05	14.481
487.40	14.534
487.75	14.580
488.09	14.511
488.44	13.718
488.79	14.334
489.13	14.555
489.48	13.437
489.83	14.608
490.17	14.176
490.52	14.491
490.87	15.017
491.22	14.905
491.56	14.718
491.91	14.435
492.26	15.188
492.60	14.254
492.95	14.305
493.30	14.567
493.64	14.674
493.99	13.772
494.34	14.503
494.68	13.961
495.03	14.714
495.37	14.869
495.72	14.422
496.07	15.469
496.41	14.329
496.76	14.679
497.11	14.735
497.45	14.113
497.80	14.705
498.14	14.830
498.49	14.706
498.84	14.122
499.18	14.710
499.53	15.112
499.87	14.725
500.22	14.114
500.56	14.710
500.91	14.600
501.26	14.727
501.60	14.361
501.95	14.720
502.29	14.831
502.64	15.129
502.98	13.891
503.33	14.212
503.67	14.479
504.02	14.623
504.36	15.282
504.71	14.883
505.06	15.280
505.40	14.899
505.75	15.027
506.09	14.871
506.44	14.949
506.78	14.862
507.13	15.168
507.47	14.922
507.82	14.536
508.16	14.293
508.51	14.018
508.85	15.163
509.19	14.922
509.54	15.322
509.88	15.104
510.23	15.347
510.57	14.935
510.92	15.481
511.26	14.671
511.61	14.389
511.95	14.885
512.30	14.919
512.64	14.643
512.98	14.607
513.33	14.869
513.67	14.380
514.02	15.432
514.36	15.959
514.70	15.885
515.05	15.224
515.39	14.646
515.74	16.013
516.08	14.844
516.42	15.437
516.77	15.300
517.11	15.111
517.46	15.323
517.80	15.232
518.14	16.159
518.49	15.184
518.83	15.753
519.17	14.701
519.52	15.881
519.86	14.995
520.20	15.921
520.55	15.334
520.89	15.372
521.23	15.243
521.58	16.102
521.92	15.354
522.26	14.433
522.61	15.336
522.95	15.571
523.29	15.172
523.64	15.975
523.98	15.973
524.32	16.390
524.66	15.481
525.01	15.119
525.35	15.853
525.69	14.385
526.04	14.868
526.38	14.310
526.72	15.340
527.06	15.367
527.41	15.277
527.75	16.508
528.09	15.880
528.43	15.749
528.78	15.780
529.12	14.622
529.46	16.020
529.80	15.904
530.15	15.768
530.49	15.125
530.83	15.525
531.17	15.591
531.51	15.102
531.86	15.805
532.20	15.976
532.54	15.560
532.88	15.576
533.22	16.264
533.57	16.042
533.91	15.937
534.25	15.546
534.59	15.172
534.93	14.544
535.27	16.113
535.62	15.861
535.96	15.398
536.30	15.452
536.64	15.916
536.98	16.482
537.32	15.864
537.66	16.282
538.01	15.589
538.35	14.677
538.69	15.505
539.03	15.512
539.37	15.901
539.71	15.916
540.05	16.007
540.39	14.303
540.73	15.665
541.07	16.248
541.42	15.416
541.76	15.065
542.10	15.862
542.44	15.895
542.78	15.815
543.12	15.971
543.46	15.263
543.80	15.348
544.14	14.961
544.48	16.253
544.82	16.517
545.16	16.041
545.50	15.219
545.84	15.370
546.18	17.037
546.52	15.987
546.86	15.094
547.20	15.394
547.54	15.106
547.88	16.034
548.22	15.556
548.56	15.331
548.90	14.985
549.24	15.441
549.58	16.404
549.92	14.923
550.26	16.246
550.60	15.507
550.94	14.748
551.28	16.502
551.62	16.442
551.96	15.987
552.30	16.635
552.64	15.744
552.98	16.407
553.32	17.299
553.66	15.949
554.00	16.015
554.34	16.088
554.68	17.043
555.02	15.046
555.36	16.502
555.69	15.823
556.03	15.132
556.37	16.020
556.71	15.472
557.05	16.358
557.39	15.129
557.73	16.248
558.07	15.430
558.41	16.013
558.75	15.957
559.08	15.866
559.42	15.706
559.76	16.214
560.10	16.812
560.44	15.699
560.78	15.750
561.12	16.010
561.45	15.572
561.79	16.178
562.13	16.389
562.47	14.735
562.81	16.519
563.15	15.909
563.48	15.600
563.82	16.445
564.16	15.627
564.50	16.091
564.84	15.575
565.17	15.765
565.51	15.765
565.85	15.558
566.19	15.150
566.52	15.974
566.86	15.903
567.20	15.443
567.54	15.720
567.88	16.361
568.21	16.057
568.55	15.971
568.89	15.660
569.23	15.885
569.56	15.866
569.90	15.396
570.24	14.671
570.57	14.496
570.91	14.819
571.25	14.839
571.59	15.280
571.92	14.819
572.26	14.690
572.60	14.879
572.93	13.832
573.27	14.667
573.61	14.637
573.95	14.397
574.28	14.342
574.62	14.438
574.96	14.005
575.29	14.276
575.63	13.837
575.97	14.635
576.30	13.965
576.64	13.958
576.98	14.374
577.31	14.192
577.65	14.300
577.98	13.855
578.32	14.120
578.66	14.173
578.99	14.233
579.33	14.140
579.67	14.302
580.00	14.363
580.34	14.245
580.67	14.276
581.01	14.258
581.35	14.105
581.68	14.126
582.02	14.235
582.35	14.420
582.69	14.061
583.02	14.184
583.36	14.192
583.70	14.292
584.03	13.847
584.37	14.540
584.70	14.328
585.04	14.346
585.37	14.163
585.71	14.045
586.04	14.201
586.38	14.044
586.72	14.239
587.05	13.610
587.39	14.635
587.72	14.593
588.06	14.410
588.39	14.090
588.73	14.180
589.06	14.588
589.40	14.935
589.73	14.364
590.07	15.153
590.40	14.976
590.73	14.740
591.07	14.892
591.40	14.736
591.74	14.944
592.07	14.819
592.41	14.748
592.74	14.661
593.08	14.841
593.41	14.640
593.75	14.310
594.08	14.844
594.41	14.712
594.75	14.414
595.08	14.233
595.42	14.578
595.75	14.401
596.09	15.046
596.42	14.403
596.75	15.670
597.09	15.030
597.42	14.501
597.75	14.739
598.09	14.722
598.42	14.797
598.76	14.215
599.09	14.916
599.42	14.616
599.76	14.592
600.09	14.715
600.42	14.314
600.76	14.432
601.09	14.703
601.42	14.761
601.76	14.828
602.09	14.796
602.42	14.177
602.76	14.908
603.09	14.391
603.42	14.957
603.76	14.482
604.09	15.472
604.42	14.275
604.76	13.889
605.09	14.958
605.42	14.952
605.75	14.500
606.09	14.483
606.42	14.155
606.75	14.318
607.09	14.439
607.42	14.952
607.75	14.810
608.08	14.799
608.42	14.712
608.75	14.386
609.08	14.686
609.41	14.601
609.75	14.509
610.08	14.556
610.41	14.401
610.74	14.790
611.07	15.187
611.41	15.516
611.74	15.012
612.07	15.054
612.40	14.686
612.73	15.159
613.07	15.306
613.40	15.255
613.73	15.166
614.06	14.966
614.39	14.723
614.72	14.362
615.06	14.966
615.39	14.596
615.72	15.166
616.05	14.862
616.38	15.540
616.71	14.995
617.05	14.696
617.38	15.302
617.71	15.713
618.04	15.542
618.37	15.410
618.70	15.950
619.03	14.875
619.36	15.105
619.69	15.503
620.03	15.254
620.36	15.031
620.69	15.423
621.02	15.945
621.35	15.167
621.68	16.703
622.01	16.584
622.34	14.575
622.67	15.258
623.00	14.507
623.33	15.461
623.66	15.175
623.99	15.207
624.32	15.660
624.65	15.637
624.99	16.190
625.32	16.525
625.65	16.116
625.98	15.797
626.31	15.946
626.64	16.484
626.97	15.604
627.30	14.806
627.63	15.979
627.96	16.742
628.29	16.265
628.62	15.449
628.95	16.389
629.28	15.548
629.61	16.751
629.94	15.816
630.26	15.847
630.59	16.149
630.92	15.238
631.25	17.263
631.58	16.478
631.91	16.589
632.24	17.195
632.57	16.224
632.90	15.948
633.23	17.551
633.56	16.327
633.89	16.736
634.22	17.152
634.55	18.163
634.88	16.883
635.20	17.223
635.53	16.384
635.86	16.685
636.19	18.134
636.52	17.511
636.85	15.424
637.18	17.152
637.51	17.204
637.83	18.162
638.16	16.705
638.49	16.667
638.82	16.911
639.15	16.380
639.48	17.552
639.81	16.397
640.13	16.608
640.46	15.273
640.79	16.789
641.12	19.130
641.45	16.939
641.77	19.127
642.10	16.667
642.43	18.218
642.76	19.106
643.09	18.082
643.41	19.328
643.74	18.621
644.07	17.931
644.40	17.539
644.73	19.303
645.05	17.474
645.38	18.993
645.71	17.595
646.04	20.086
646.36	15.328
646.69	16.718
647.02	17.278
647.35	18.626
647.67	19.163
648.00	17.675
648.33	19.219
648.66	18.830
648.98	16.599
649.31	17.727
649.64	17.928
649.96	16.844
650.29	18.915
650.62	17.397
650.94	17.718
651.27	16.766
651.60	19.298
651.92	17.021
652.25	16.498
652.58	17.744
652.90	17.151
653.23	18.028
653.56	16.976
653.88	18.118
654.21	17.606
654.54	15.751
654.86	16.572
655.19	16.562
655.52	15.722
655.84	13.753
656.17	16.507
656.49	22.884
656.82	25.240
657.15	19.224
657.47	14.426
657.80	10.772
658.13	8.515
658.45	11.041
658.78	13.362
659.10	13.466
659.43	13.465
659.75	13.052
660.08	13.053
660.41	13.648
660.73	14.709
661.06	15.272
661.38	15.949
661.71	16.379
662.03	15.873
662.36	18.247
662.68	18.011
663.01	18.230
663.33	18.715
663.66	19.414
663.98	17.308
664.31	18.386
664.63	16.570
664.96	19.238
665.28	17.786
665.61	18.182
665.93	16.607
666.26	20.430
666.58	16.974
666.91	21.682
667.23	20.000
667.56	19.527
667.88	18.800
668.21	17.773
668.53	15.637
668.86	18.664
669.18	16.904
669.50	19.483
669.83	16.200
670.15	17.126
670.48	18.254
670.80	17.782
671.13	17.769
671.45	15.748
671.77	17.891
672.10	16.167
672.42	16.828
672.75	17.204
673.07	16.866
673.39	15.562
673.72	18.456
674.04	16.552
674.37	18.247
674.69	18.695
675.01	16.762
675.34	18.130
675.66	17.228
675.98	17.910
676.31	16.211
676.63	17.681
676.95	17.433
677.28	17.742
677.60	15.551
677.92	16.891
678.25	17.733
678.57	17.082
678.89	20.478
679.22	16.551
679.54	17.094
679.86	16.780
680.18	16.418
680.51	16.981
680.83	18.822
681.15	16.552
681.48	16.580
681.80	17.962
682.12	17.483
682.44	16.694
682.77	15.603
683.09	15.909
683.41	18.798
683.73	15.370
684.06	19.004
684.38	15.206
684.70	18.851
685.02	17.384
685.34	14.642
685.67	13.565
685.99	15.184
686.31	16.134
686.63	14.692
686.96	15.773
687.28	18.241
687.60	15.152
687.92	14.952
688.24	18.865
688.56	15.345
688.89	17.604
689.21	18.395
689.53	15.686
689.85	16.765
690.17	17.593
690.49	17.131
690.82	15.842
691.14	16.802
691.46	18.164
691.78	19.337
692.10	17.982
692.42	14.107
692.74	17.967
693.06	15.741
693.39	17.078
693.71	14.662
694.03	14.498
694.35	16.571
694.67	14.784
694.99	17.872
695.31	15.232
695.63	18.615
695.95	16.563
696.27	16.703
696.59	18.584
696.91	18.018
697.23	19.780
697.56	13.849
697.88	15.530
698.20	15.819
698.52	17.992
698.84	17.672
699.16	16.939
699.48	17.573
699.80	15.957
700.12	16.594
700.44	20.276
700.76	19.002
701.08	20.823
701.40	21.503
701.72	19.403
702.04	17.647
702.36	14.660
702.68	17.115
703.00	16.137
703.32	17.241
703.64	18.582
703.96	18.138
704.28	14.988
704.60	16.962
704.91	15.561
705.23	15.342
705.55	17.827
705.87	17.879
706.19	18.098
706.51	14.458
706.83	17.291
707.15	14.286
707.47	15.187
707.79	17.031
708.11	15.254
708.43	15.484
708.74	16.295
709.06	17.169
709.38	17.371
709.70	19.603
710.02	14.212
710.34	19.947
710.66	13.966
710.98	17.760
711.29	15.659
711.61	18.362
711.93	18.519
712.25	17.568
712.57	18.289
712.89	19.412
713.20	17.751
713.52	19.075
713.84	16.156
714.16	18.684
714.48	14.948
714.80	18.442
715.11	18.635
715.43	18.833
715.75	18.684
716.07	14.917
716.39	19.126
716.70	16.265
717.02	14.098
717.34	13.937
717.66	16.443
717.97	15.753
718.29	14.089
718.61	14.803
718.93	16.828
719.24	16.149
719.56	16.564
719.88	16.817
720.20	15.161
720.51	18.012
720.83	20.938
721.15	14.803
721.46	9.589
721.78	13.000
722.10	10.356
722.42	12.081
722.73	17.419
723.05	18.947
723.37	16.667
723.68	17.563
724.00	20.217
724.32	15.845
724.63	17.832
724.95	19.504
725.27	16.725
725.58	12.721
725.90	19.310
726.22	13.793
726.53	15.584
726.85	15.723
727.16	16.314
727.48	18.349
727.80	16.887
728.11	15.901
728.43	17.508
728.74	17.726
729.06	16.556
729.38	18.506
729.69	12.081
730.01	16.667
730.32	12.424
730.64	13.208
730.96	14.907
731.27	18.436
731.59	19.231
731.90	14.286
732.22	13.542
732.53	14.365
732.85	18.000
733.16	16.422
733.48	11.280
733.80	12.535
734.11	16.239
734.43	17.027
734.74	17.722
735.06	14.322
735.37	17.027
735.69	14.595
736.00	16.102
736.32	14.825
736.63	13.611
736.95	15.230
737.26	18.485
737.58	12.727
737.89	17.647
738.21	16.208
738.52	12.787
738.83	15.700
739.15	18.085
739.46	17.687
739.78	16.871
740.09	16.619
740.41	20.408
740.72	14.000
741.04	15.858
741.35	18.246
741.66	16.078
741.98	14.344
742.29	15.063
742.61	20.175
742.92	18.077
743.23	19.495
743.55	16.279
743.86	16.400
744.18	11.570
744.49	15.190
744.80	21.811
745.12	15.190
745.43	17.886
745.74	15.948
746.06	19.492
746.37	19.409
746.68	21.951
747.00	16.667
747.31	15.880
747.62	18.846
747.94	13.765
748.25	15.261
748.56	13.469
748.88	16.239
749.19	18.534
749.50	17.316
749.82	18.474
750.13	17.438
750.44	9.000
750.75	14.769
751.07	15.692
751.38	18.612
751.69	20.767
752.01	15.858
752.32	16.013
752.63	15.306
752.94	16.955
753.26	18.959
753.57	17.778
753.88	14.232
754.19	18.971
754.51	12.862
754.82	15.434
755.13	16.393
755.44	17.065
755.75	18.750
756.07	14.925
756.38	15.723
756.69	18.373
757.00	14.127
757.31	18.033
757.63	13.811
757.94	12.207
758.25	17.156
758.56	15.251
758.87	17.955
759.18	13.600
759.50	16.431
759.81	17.647
760.12	14.555
760.43	17.448
760.74	17.488
761.05	16.000
761.36	13.494
761.67	13.198
761.99	15.676
762.30	17.073
762.61	15.842
762.92	14.925
763.23	13.483
763.54	15.468
763.85	16.838
764.16	18.182
764.47	13.028
764.78	16.294
765.10	17.302
765.41	17.692
765.72	12.963
766.03	16.102
766.34	14.420
766.65	14.983
766.96	13.546
767.27	12.903
767.58	10.448
767.89	19.231
768.20	14.085
768.51	11.111
768.82	15.663
769.13	15.530
769.44	13.077
769.75	18.051
770.06	18.846
770.37	16.929
770.68	15.745
770.99	13.360
771.30	20.000
771.61	14.449
771.92	13.704
772.23	21.457
772.54	12.037
772.85	22.120
773.16	20.476
773.47	13.228
773.78	7.568
774.09	14.205
774.39	20.500
774.70	21.858
775.01	17.683
775.32	16.471
775.63	19.632
775.94	13.376
776.25	20.645
776.56	16.667
776.87	25.850
777.18	6.897
777.48	18.182
777.79	18.919
778.10	13.235
778.41	17.361
778.72	15.172
779.03	14.815
779.34	20.000
779.65	13.472
779.95	21.111
780.26	20.455
780.57	20.645
780.88	18.841
781.19	20.645
781.50	22.353
781.80	17.204
782.11	17.989
782.42	15.657
782.73	14.371
783.04	13.966
783.34	13.333
783.65	15.686
783.96	16.770
784.27	17.262
784.57	24.503
784.88	20.000
785.19	18.898
785.50	17.323
785.81	15.038
786.11	20.769
786.42	10.072
786.73	14.388
787.04	19.549
787.34	18.852
787.65	12.800
787.96	15.672
788.26	20.979
788.57	23.077
788.88	14.474
789.19	25.490
789.49	9.589
789.80	16.312
790.11	22.047
790.41	16.406
790.72	13.559
791.03	12.621
791.33	17.391
791.64	21.930
791.95	16.964
792.25	20.000
792.56	25.000
792.87	10.417
793.17	15.179
793.48	4.167
793.79	7.229
794.09	17.431
794.40	20.183
794.70	16.327
795.01	7.792
795.32	12.329
795.62	19.718
795.93	16.667
796.23	18.033
796.54	9.821
796.85	6.383
797.15	2.174
797.46	8.219
797.76	20.000
798.07	14.130
798.37	6.186
798.68	20.779
798.99	9.195
799.29	8.989
799.60	14.894
799.90	6.024
800.21	4.615
800.51	2.985
800.82	7.353
801.12	-5.479
801.43	-2.941
801.73	13.559
802.04	21.212
802.34	11.667
802.65	8.475
802.95	26.866
803.26	23.729
803.56	13.699
803.87	7.143
804.17	20.548
804.48	1.754
804.78	12.500
805.09	5.172
805.39	12.162
805.70	4.225
806.00	12.195
806.30	3.614
806.61	5.479
806.91	20.192
807.22	10.000
807.52	1.149
807.83	8.333
808.13	15.663
808.43	11.236
808.74	10.000
809.04	-7.353
809.35	9.333
809.65	7.143
809.95	19.178
810.26	-5.263
810.56	0.000
810.86	26.471
811.17	12.281
811.47	0.000
811.77	-26.667
812.08	-1.695
812.38	18.333
812.69	18.966
812.99	-18.868
813.29	17.949
813.59	36.000
813.90	10.526
814.20	14.545
814.50	36.620
814.81	23.077
815.11	21.311
815.41	17.910
815.72	31.034
816.02	19.643
816.32	28.889
816.62	27.273
816.93	8.889
817.23	9.259
817.53	14.894
817.84	33.333
818.14	5.882
818.44	12.245
818.74	28.889
819.04	10.256
819.35	5.714
819.65	11.538
819.95	16.981
820.25	33.333
820.56	30.952
820.86	31.250
821.16	12.821
821.46	-2.326
821.76	-12.000
822.07	8.929
822.37	-2.174
822.67	8.511
822.97	-13.514
823.27	-7.500
823.57	40.816
823.88	17.778
824.18	37.500
824.48	16.667
824.78	0.000
825.08	6.061
825.38	26.667
825.69	4.255
825.99	13.889
826.29	-8.571
826.59	12.821
826.89	-2.326
827.19	16.000
827.49	0.000
827.79	8.333
828.09	-16.216
828.39	-13.333
828.70	12.195
829.00	20.930
829.30	-21.429
829.60	20.588
829.90	4.348
830.20	5.714
830.50	17.241
830.80	38.889
831.10	-7.692
831.40	8.824
831.70	66.667
832.00	45.161
832.30	-111.765
832.60	16.667
832.90	7.692
833.20	-52.632
833.50	15.000
833.80	5.263
834.10	-38.095
834.40	0.000
834.70	40.625
835.00	-17.143
835.30	20.588
835.60	-26.667
835.90	4.000
836.20	-81.818
836.50	4.000
836.80	-21.212
837.10	-14.815
837.40	25.926
837.70	-37.500
838.00	17.857
838.30	-26.087
838.60	-17.241
838.90	14.286
839.19	-34.783
839.49	-41.667
839.79	21.739
840.09	-43.750
840.39	5.000
840.69	25.806
840.99	-10.714
841.29	-13.333
841.59	-15.789
841.88	33.333
842.18	-23.077
842.48	-60.000
842.78	30.000
843.08	16.667
843.38	12.903
843.68	16.667
843.97	20.588
844.27	68.750
844.57	26.316
844.87	-80.000
845.17	0.000
845.47	4.762
845.76	-38.095
846.06	-100.000
846.36	-11.765
846.66	3.846
846.96	6.667
847.25	-17.647
847.55	47.826
847.85	35.000
848.15	11.765
848.44	18.182
848.74	-4.762
849.04	-29.167
849.34	18.750
849.63	0.000
849.93	750.000
850.23	-20.000
850.53	53.846
850.82	36.364
851.12	18.182
851.42	18.182
851.71	7.692
852.01	-25.000
852.31	7.692
852.61	10.526
852.90	-25.000
853.20	5.556
853.50	-100.000
853.79	-9.524
854.09	4.545
854.39	-100.000
854.68	0.000
854.98	23.077
855.28	-50.000
855.57	10.714
855.87	12.000
856.17	-9.091
856.46	18.519
856.76	-27.778
857.05	21.739
857.35	-12.500
857.65	-15.385
857.94	19.048
858.24	33.333
858.53	-13.043
858.83	35.294
859.13	11.765
859.42	35.294
859.72	64.286
860.01	-5.000
860.31	-55.556
860.60	-70.000
860.90	33.333
861.20	-38.889
861.49	-61.538
861.79	40.000
862.08	-61.538
862.38	25.000
862.67	-23.529
862.97	-25.000
863.26	11.111
863.56	40.000
863.85	0.000
864.15	-33.333
864.44	200.000
864.74	0.000
865.03	6.250
865.33	-30.000
865.62	3.226
865.92	40.909
866.21	34.783
866.51	7.143
866.80	-220.000
867.10	-108.333
867.39	-50.000
867.69	1300.000
867.98	28.571
868.27	-5.882
868.57	-700.000
868.86	-100.000
869.16	-9.524
869.45	8.333
869.75	-54.545
870.04	-71.429
870.33	-8.333
870.63	-157.143
870.92	50.000
871.22	-187.500
871.51	-109.091
871.80	-233.333
872.10	-400.000
>>>>>End Processed Spectral Data<<<<<
