SpectraSuite Data File
++++++++++++++++++++++++++++++++++++
Date: Thu May 14 16:42:23 PDT 2015
User: schluterlab
Dark Spectrum Present: Yes
Reference Spectrum Present: Yes
Number of Sampled Component Spectra: 1
Spectrometers: USB2E3373
Integration Time (usec): 3000 (USB2E3373)
Spectra Averaged: 3 (USB2E3373)
Boxcar Smoothing: 0 (USB2E3373)
Correct for Electrical Dark: No (USB2E3373)
Strobe/Lamp Enabled: No (USB2E3373)
Correct for Detector Non-linearity: No (USB2E3373)
Correct for Stray Light: No (USB2E3373)
Number of Pixels in Processed Spectrum: 2048
>>>>>Begin Processed Spectral Data<<<<<
178.53	0.000
178.91	-42.857
179.29	-600.000
179.67	-700.000
180.04	142.857
180.42	30.000
180.80	80.000
181.18	-300.000
181.56	500.000
181.94	-75.000
182.31	-75.000
182.69	-100.000
183.07	-100.000
183.45	175.000
183.83	133.333
184.20	-133.333
184.58	-0.000
184.96	-225.000
185.34	-77.778
185.72	80.000
186.09	122.222
186.47	500.000
186.85	240.000
187.23	-77.778
187.61	-300.000
187.98	-40.000
188.36	125.000
188.74	-75.000
189.12	66.667
189.49	25.000
189.87	-50.000
190.25	122.222
190.63	100.000
191.00	-55.556
191.38	0.000
191.76	-200.000
192.14	-116.667
192.51	-50.000
192.89	133.333
193.27	0.000
193.65	57.143
194.02	-1100.000
194.40	-42.857
194.78	-28.571
195.15	0.000
195.53	-72.727
195.91	0.000
196.29	75.000
196.66	-61.538
197.04	-700.000
197.42	-42.857
197.79	0.000
198.17	75.000
198.55	-57.143
198.92	44.444
199.30	-62.500
199.68	0.000
200.05	50.000
200.43	-250.000
200.81	185.714
201.18	0.000
201.56	155.556
201.94	0.000
202.31	166.667
202.69	-144.444
203.07	600.000
203.44	-22.222
203.82	-150.000
204.19	0.000
204.57	-33.333
204.95	0.000
205.32	0.000
205.70	50.000
206.08	-100.000
206.45	16.667
206.83	180.000
207.20	16.667
207.58	-100.000
207.96	-83.333
208.33	133.333
208.71	25.000
209.08	100.000
209.46	0.000
209.84	183.333
210.21	250.000
210.59	-0.000
210.96	200.000
211.34	50.000
211.71	50.000
212.09	400.000
212.46	0.000
212.84	350.000
213.22	0.000
213.59	-25.000
213.97	-50.000
214.34	266.667
214.72	33.333
215.09	-225.000
215.47	0.000
215.84	71.429
216.22	650.000
216.59	20.000
216.97	40.000
217.34	-50.000
217.72	25.000
218.09	-250.000
218.47	-250.000
218.84	0.000
219.22	120.000
219.59	11.765
219.97	0.000
220.34	600.000
220.72	11.111
221.09	0.000
221.47	-33.333
221.84	100.000
222.22	-100.000
222.59	0.000
222.97	37.500
223.34	-180.000
223.72	-200.000
224.09	100.000
224.46	-150.000
224.84	-20.000
225.21	-100.000
225.59	50.000
225.96	-200.000
226.34	11.538
226.71	-100.000
227.08	200.000
227.46	33.333
227.83	0.000
228.21	-21.053
228.58	-37.500
228.95	200.000
229.33	33.333
229.70	30.000
230.08	89.474
230.45	100.000
230.82	-100.000
231.20	-64.286
231.57	58.333
231.95	27.273
232.32	-9.091
232.69	65.000
233.07	150.000
233.44	29.412
233.81	-60.000
234.19	50.000
234.56	50.000
234.93	27.586
235.31	47.368
235.68	100.000
236.05	-20.000
236.43	38.462
236.80	64.000
237.17	40.741
237.55	30.303
237.92	-10.000
238.29	35.484
238.67	11.364
239.04	22.222
239.41	16.667
239.79	19.565
240.16	0.000
240.53	8.696
240.91	1.961
241.28	19.672
241.65	34.328
242.02	25.676
242.40	-7.692
242.77	14.667
243.14	4.878
243.51	10.526
243.89	6.410
244.26	21.782
244.63	19.608
245.00	11.215
245.38	21.053
245.75	6.195
246.12	19.048
246.49	13.178
246.87	15.000
247.24	18.543
247.61	21.711
247.98	14.094
248.36	20.370
248.73	15.951
249.10	13.661
249.47	16.915
249.84	23.037
250.22	11.399
250.59	17.778
250.96	22.727
251.33	13.776
251.70	17.949
252.08	16.250
252.45	18.852
252.82	14.876
253.19	14.453
253.56	17.871
253.94	16.154
254.31	17.045
254.68	16.783
255.05	19.218
255.42	12.585
255.79	15.210
256.16	13.576
256.54	12.914
256.91	18.689
257.28	17.705
257.65	13.376
258.02	13.864
258.39	17.379
258.76	18.043
259.14	14.655
259.51	15.850
259.88	14.164
260.25	17.778
260.62	18.356
260.99	17.486
261.36	15.282
261.73	12.467
262.10	15.934
262.47	13.137
262.85	17.929
263.22	11.688
263.59	15.263
263.96	14.066
264.33	14.322
264.70	11.852
265.07	15.752
265.44	19.048
265.81	13.889
266.18	16.780
266.55	15.848
266.92	13.895
267.29	20.788
267.66	16.630
268.03	15.066
268.40	16.284
268.77	12.073
269.14	12.555
269.51	15.570
269.88	15.779
270.25	15.895
270.62	16.034
270.99	17.576
271.36	13.267
271.73	15.521
272.10	16.633
272.47	17.635
272.84	15.462
273.21	14.028
273.58	14.919
273.95	15.769
274.32	13.308
274.69	16.634
275.06	16.667
275.43	13.124
275.80	15.873
276.17	15.926
276.54	14.925
276.91	16.279
277.28	14.467
277.65	17.056
278.02	15.074
278.39	14.855
278.76	15.466
279.13	14.007
279.50	16.495
279.87	13.596
280.23	14.437
280.60	15.593
280.97	16.118
281.34	13.922
281.71	14.213
282.08	15.282
282.45	14.075
282.82	13.658
283.19	11.309
283.56	12.623
283.92	16.066
284.29	16.430
284.66	14.943
285.03	13.942
285.40	14.838
285.77	15.170
286.14	17.099
286.51	15.068
286.87	15.324
287.24	15.663
287.61	14.499
287.98	12.538
288.35	14.793
288.72	14.645
289.08	15.227
289.45	13.166
289.82	14.157
290.19	14.224
290.56	16.197
290.93	14.265
291.29	15.152
291.66	15.289
292.03	11.533
292.40	15.374
292.77	12.803
293.13	11.637
293.50	12.484
293.87	14.228
294.24	15.200
294.60	15.044
294.97	10.872
295.34	14.469
295.71	13.241
296.08	12.403
296.44	13.603
296.81	13.398
297.18	13.076
297.55	13.561
297.91	13.049
298.28	11.374
298.65	12.366
299.02	12.987
299.38	13.730
299.75	12.266
300.12	11.921
300.48	12.788
300.85	12.823
301.22	14.094
301.59	12.785
301.95	14.011
302.32	14.111
302.69	11.501
303.05	12.731
303.42	12.749
303.79	13.333
304.15	12.513
304.52	12.791
304.89	13.298
305.25	13.561
305.62	11.076
305.99	13.196
306.35	11.694
306.72	13.133
307.09	12.690
307.45	13.354
307.82	12.311
308.19	12.412
308.55	13.500
308.92	14.119
309.29	12.835
309.65	12.378
310.02	13.168
310.38	13.287
310.75	14.660
311.12	13.710
311.48	13.196
311.85	13.865
312.22	14.137
312.58	14.460
312.95	13.289
313.31	14.544
313.68	14.744
314.05	14.092
314.41	16.029
314.78	14.532
315.14	16.152
315.51	14.312
315.87	15.662
316.24	16.073
316.61	15.364
316.97	14.842
317.34	15.079
317.70	16.769
318.07	16.490
318.43	15.391
318.80	16.304
319.16	15.365
319.53	15.681
319.89	14.899
320.26	15.214
320.62	14.982
320.99	16.528
321.35	16.266
321.72	16.558
322.08	15.780
322.45	15.989
322.81	16.336
323.18	16.106
323.54	16.293
323.91	17.082
324.27	16.781
324.64	18.556
325.00	16.418
325.37	18.755
325.73	17.438
326.10	17.356
326.46	18.078
326.83	18.415
327.19	19.449
327.56	19.368
327.92	18.489
328.29	16.935
328.65	17.923
329.01	18.866
329.38	19.292
329.74	19.264
330.11	19.007
330.47	18.703
330.84	18.174
331.20	19.167
331.56	18.371
331.93	19.247
332.29	19.237
332.66	19.020
333.02	17.923
333.38	18.372
333.75	18.687
334.11	20.100
334.48	18.069
334.84	19.286
335.20	18.388
335.57	17.622
335.93	19.587
336.29	18.386
336.66	18.251
337.02	18.813
337.38	19.728
337.75	17.769
338.11	17.410
338.47	19.189
338.84	18.613
339.20	19.208
339.56	17.957
339.93	19.130
340.29	17.230
340.65	17.843
341.02	19.234
341.38	18.998
341.74	17.837
342.11	18.021
342.47	17.951
342.83	19.485
343.20	19.215
343.56	18.043
343.92	18.175
344.28	18.438
344.65	18.527
345.01	18.097
345.37	18.585
345.73	17.693
346.10	17.785
346.46	18.908
346.82	18.652
347.19	18.717
347.55	19.120
347.91	18.202
348.27	18.285
348.63	19.193
349.00	18.643
349.36	19.480
349.72	18.750
350.08	19.094
350.45	17.795
350.81	19.080
351.17	18.571
351.53	18.271
351.89	18.983
352.26	18.284
352.62	17.836
352.98	18.626
353.34	17.999
353.70	18.490
354.07	17.288
354.43	18.223
354.79	18.923
355.15	18.543
355.51	20.541
355.87	18.474
356.24	18.631
356.60	18.108
356.96	18.532
357.32	18.216
357.68	17.862
358.04	17.515
358.40	17.761
358.77	19.006
359.13	18.981
359.49	18.290
359.85	19.434
360.21	19.010
360.57	19.454
360.93	18.970
361.29	19.719
361.66	17.958
362.02	20.529
362.38	18.693
362.74	19.204
363.10	19.464
363.46	19.321
363.82	19.105
364.18	19.704
364.54	19.225
364.90	20.000
365.26	19.517
365.62	20.000
365.98	20.354
366.35	18.926
366.71	20.952
367.07	19.756
367.43	19.829
367.79	19.774
368.15	19.799
368.51	20.771
368.87	20.314
369.23	20.467
369.59	20.150
369.95	19.878
370.31	20.932
370.67	20.770
371.03	20.014
371.39	20.484
371.75	21.114
372.11	20.190
372.47	20.921
372.83	19.764
373.19	21.014
373.55	20.461
373.91	20.314
374.27	21.151
374.63	21.177
374.99	20.756
375.35	21.234
375.71	20.774
376.07	20.852
376.42	21.725
376.78	20.758
377.14	22.084
377.50	21.632
377.86	22.229
378.22	21.437
378.58	21.819
378.94	21.655
379.30	21.734
379.66	21.987
380.02	21.696
380.38	22.465
380.74	21.352
381.09	22.067
381.45	21.136
381.81	22.834
382.17	22.031
382.53	22.105
382.89	22.348
383.25	22.333
383.61	22.685
383.97	22.556
384.32	24.043
384.68	21.984
385.04	22.961
385.40	23.925
385.76	23.974
386.12	22.741
386.48	23.000
386.83	24.255
387.19	22.190
387.55	22.770
387.91	22.546
388.27	23.845
388.62	24.170
388.98	22.730
389.34	24.160
389.70	24.463
390.06	23.860
390.42	23.193
390.77	23.781
391.13	24.237
391.49	24.457
391.85	23.939
392.20	24.140
392.56	24.690
392.92	23.991
393.28	23.494
393.64	23.799
393.99	24.288
394.35	23.949
394.71	24.251
395.07	24.431
395.42	24.158
395.78	24.924
396.14	24.183
396.50	24.644
396.85	23.554
397.21	24.675
397.57	25.206
397.92	24.570
398.28	24.117
398.64	24.371
399.00	25.131
399.35	24.555
399.71	24.728
400.07	24.312
400.42	24.563
400.78	25.463
401.14	25.100
401.49	25.185
401.85	25.698
402.21	24.623
402.57	24.237
402.92	25.000
403.28	23.653
403.63	24.702
403.99	25.238
404.35	25.071
404.70	25.326
405.06	24.402
405.42	24.941
405.77	26.063
406.13	24.743
406.49	24.887
406.84	25.983
407.20	24.707
407.55	25.076
407.91	25.393
408.27	25.501
408.62	25.596
408.98	25.479
409.34	24.106
409.69	26.329
410.05	26.553
410.40	25.464
410.76	24.678
411.11	25.774
411.47	25.369
411.83	25.338
412.18	26.325
412.54	26.556
412.89	25.728
413.25	25.395
413.60	25.617
413.96	25.874
414.31	25.666
414.67	25.224
415.03	25.354
415.38	25.851
415.74	25.473
416.09	25.972
416.45	24.108
416.80	25.214
417.16	25.862
417.51	26.588
417.87	25.506
418.22	25.629
418.58	25.589
418.93	25.960
419.29	25.216
419.64	25.330
420.00	25.401
420.35	25.772
420.71	25.962
421.06	25.244
421.42	26.491
421.77	25.094
422.12	25.053
422.48	25.653
422.83	26.177
423.19	25.358
423.54	25.608
423.90	25.676
424.25	26.027
424.61	25.832
424.96	25.920
425.31	26.486
425.67	25.389
426.02	26.065
426.38	25.488
426.73	24.609
427.09	26.182
427.44	25.232
427.79	24.986
428.15	25.228
428.50	25.281
428.85	25.775
429.21	25.319
429.56	25.173
429.92	25.111
430.27	26.313
430.62	26.282
430.98	25.381
431.33	25.073
431.68	25.096
432.04	25.241
432.39	25.549
432.74	26.256
433.10	25.527
433.45	24.972
433.80	25.268
434.16	25.517
434.51	25.797
434.86	26.113
435.22	26.621
435.57	25.708
435.92	25.264
436.28	26.223
436.63	25.669
436.98	25.926
437.34	25.141
437.69	24.986
438.04	25.595
438.39	26.020
438.75	24.848
439.10	26.057
439.45	25.824
439.81	25.085
440.16	24.611
440.51	25.530
440.86	25.069
441.22	24.491
441.57	26.415
441.92	25.752
442.27	25.657
442.63	24.690
442.98	25.774
443.33	25.145
443.68	25.520
444.03	26.152
444.39	25.613
444.74	25.370
445.09	25.190
445.44	25.606
445.79	25.958
446.15	25.077
446.50	25.530
446.85	25.195
447.20	25.629
447.55	25.105
447.91	25.445
448.26	25.687
448.61	25.345
448.96	26.127
449.31	24.973
449.66	25.054
450.02	25.527
450.37	25.892
450.72	25.242
451.07	25.228
451.42	24.610
451.77	25.014
452.12	25.339
452.47	24.183
452.83	25.676
453.18	24.577
453.53	25.158
453.88	25.345
454.23	25.537
454.58	25.595
454.93	24.575
455.28	24.985
455.63	25.810
455.98	24.972
456.34	25.206
456.69	25.338
457.04	25.827
457.39	25.055
457.74	25.615
458.09	25.481
458.44	25.970
458.79	24.961
459.14	25.223
459.49	24.788
459.84	25.131
460.19	24.653
460.54	25.383
460.89	25.199
461.24	25.517
461.59	25.346
461.94	23.731
462.29	25.084
462.64	24.804
462.99	24.922
463.34	24.270
463.69	24.502
464.04	25.347
464.39	25.280
464.74	25.485
465.09	25.317
465.44	24.517
465.79	24.749
466.14	25.117
466.49	24.684
466.84	25.234
467.19	25.491
467.54	23.561
467.89	23.621
468.24	24.598
468.59	23.683
468.94	24.068
469.29	24.295
469.64	23.776
469.99	24.602
470.34	23.948
470.68	24.539
471.03	25.278
471.38	24.657
471.73	23.277
472.08	23.921
472.43	24.022
472.78	24.685
473.13	23.767
473.48	23.625
473.83	24.956
474.17	23.974
474.52	23.812
474.87	23.754
475.22	24.563
475.57	24.143
475.92	23.892
476.27	24.281
476.61	23.988
476.96	23.306
477.31	24.307
477.66	23.190
478.01	23.132
478.36	23.380
478.70	23.547
479.05	24.796
479.40	23.346
479.75	23.391
480.10	22.975
480.45	23.428
480.79	23.492
481.14	23.254
481.49	22.944
481.84	23.107
482.19	23.441
482.53	23.262
482.88	23.527
483.23	23.121
483.58	22.533
483.92	22.784
484.27	22.862
484.62	22.772
484.97	22.745
485.31	22.703
485.66	22.198
486.01	21.884
486.36	22.440
486.70	23.234
487.05	23.574
487.40	23.125
487.75	22.443
488.09	22.654
488.44	22.596
488.79	23.002
489.13	22.158
489.48	22.214
489.83	21.932
490.17	21.264
490.52	22.455
490.87	21.616
491.22	21.707
491.56	22.611
491.91	22.067
492.26	21.592
492.60	22.169
492.95	21.896
493.30	22.232
493.64	21.770
493.99	22.018
494.34	22.343
494.68	21.456
495.03	21.762
495.37	21.793
495.72	21.633
496.07	21.735
496.41	21.707
496.76	21.393
497.11	21.274
497.45	21.968
497.80	21.102
498.14	21.315
498.49	20.864
498.84	20.704
499.18	21.188
499.53	21.525
499.87	21.275
500.22	20.125
500.56	20.828
500.91	20.595
501.26	21.273
501.60	20.990
501.95	20.886
502.29	20.974
502.64	21.294
502.98	20.104
503.33	21.037
503.67	20.497
504.02	19.440
504.36	20.912
504.71	20.854
505.06	21.055
505.40	20.247
505.75	20.082
506.09	20.580
506.44	20.706
506.78	21.101
507.13	20.655
507.47	20.985
507.82	20.597
508.16	20.029
508.51	19.925
508.85	19.887
509.19	20.038
509.54	20.077
509.88	19.961
510.23	20.107
510.57	20.251
510.92	19.836
511.26	20.298
511.61	18.831
511.95	19.717
512.30	19.842
512.64	19.740
512.98	19.760
513.33	20.363
513.67	18.970
514.02	19.622
514.36	20.358
514.70	19.740
515.05	19.552
515.39	19.895
515.74	19.830
516.08	18.753
516.42	19.885
516.77	20.242
517.11	19.649
517.46	19.141
517.80	18.653
518.14	19.859
518.49	19.306
518.83	19.478
519.17	18.848
519.52	19.130
519.86	19.166
520.20	19.436
520.55	19.496
520.89	19.426
521.23	18.760
521.58	19.774
521.92	19.263
522.26	18.843
522.61	19.039
522.95	18.916
523.29	17.874
523.64	19.170
523.98	19.509
524.32	19.427
524.66	19.124
525.01	18.913
525.35	18.380
525.69	18.097
526.04	17.968
526.38	18.908
526.72	19.262
527.06	18.592
527.41	18.776
527.75	18.705
528.09	18.772
528.43	18.472
528.78	18.555
529.12	18.291
529.46	18.044
529.80	17.849
530.15	18.725
530.49	18.980
530.83	18.831
531.17	17.503
531.51	17.750
531.86	18.510
532.20	18.720
532.54	17.295
532.88	18.848
533.22	17.796
533.57	18.177
533.91	18.294
534.25	17.807
534.59	17.356
534.93	17.204
535.27	18.085
535.62	18.647
535.96	18.478
536.30	17.861
536.64	18.619
536.98	18.327
537.32	17.840
537.66	17.966
538.01	17.704
538.35	17.540
538.69	17.668
539.03	18.332
539.37	17.432
539.71	16.997
540.05	17.146
540.39	17.604
540.73	17.729
541.07	17.413
541.42	16.657
541.76	17.260
542.10	17.008
542.44	16.870
542.78	17.762
543.12	17.282
543.46	16.850
543.80	17.446
544.14	16.038
544.48	17.612
544.82	18.312
545.16	16.816
545.50	17.795
545.84	16.412
546.18	17.407
546.52	16.115
546.86	16.730
547.20	16.539
547.54	16.479
547.88	16.154
548.22	16.140
548.56	16.735
548.90	16.299
549.24	16.900
549.58	16.278
549.92	16.327
550.26	16.570
550.60	16.528
550.94	17.464
551.28	16.436
551.62	16.644
551.96	16.246
552.30	17.017
552.64	16.304
552.98	17.717
553.32	16.592
553.66	16.141
554.00	16.267
554.34	16.345
554.68	16.010
555.02	16.294
555.36	16.700
555.69	16.079
556.03	15.889
556.37	17.084
556.71	16.741
557.05	15.655
557.39	16.656
557.73	15.918
558.07	15.430
558.41	16.279
558.75	15.889
559.08	15.727
559.42	15.089
559.76	16.011
560.10	16.075
560.44	15.633
560.78	16.438
561.12	16.010
561.45	16.971
561.79	16.239
562.13	15.835
562.47	15.413
562.81	15.759
563.15	15.783
563.48	15.724
563.82	15.659
564.16	14.718
564.50	15.614
564.84	15.575
565.17	15.765
565.51	14.845
565.85	15.321
566.19	15.035
566.52	15.799
566.86	15.337
567.20	14.899
567.54	15.348
567.88	15.902
568.21	15.662
568.55	15.300
568.89	15.388
569.23	16.477
569.56	15.358
569.90	15.966
570.24	15.683
570.57	15.170
570.91	15.064
571.25	14.753
571.59	15.725
571.92	14.899
572.26	15.246
572.60	15.343
572.93	15.224
573.27	15.398
573.61	15.034
573.95	15.489
574.28	15.043
574.62	14.916
574.96	14.843
575.29	15.290
575.63	15.385
575.97	15.497
576.30	15.026
576.64	14.984
576.98	14.897
577.31	14.958
577.65	15.167
577.98	15.136
578.32	15.058
578.66	15.096
578.99	15.175
579.33	15.318
579.67	14.733
580.00	15.037
580.34	15.009
580.67	14.872
581.01	14.453
581.35	14.709
581.68	15.067
582.02	15.179
582.35	14.831
582.69	15.036
583.02	14.932
583.36	15.013
583.70	14.928
584.03	15.071
584.37	14.712
584.70	14.303
585.04	14.020
585.37	14.450
585.71	14.693
586.04	14.751
586.38	14.531
586.72	14.440
587.05	14.275
587.39	14.510
587.72	14.593
588.06	14.362
588.39	14.638
588.73	14.471
589.06	14.560
589.40	14.352
589.73	14.557
590.07	14.987
590.40	15.213
590.73	14.705
591.07	14.631
591.40	14.308
591.74	13.871
592.07	14.698
592.41	14.038
592.74	14.093
593.08	14.713
593.41	14.902
593.75	14.425
594.08	14.662
594.41	14.519
594.75	14.181
595.08	14.132
595.42	14.383
595.75	14.143
596.09	14.537
596.42	14.153
596.75	14.821
597.09	14.545
597.42	13.985
597.75	14.387
598.09	14.802
598.42	14.717
598.76	14.406
599.09	13.991
599.42	13.711
599.76	13.866
600.09	14.281
600.42	14.147
600.76	13.937
601.09	14.238
601.42	14.075
601.76	14.276
602.09	14.439
602.42	14.286
602.76	13.875
603.09	13.877
603.42	13.764
603.76	14.059
604.09	14.833
604.42	14.385
604.76	14.117
605.09	13.841
605.42	14.434
605.75	13.692
606.09	13.923
606.42	13.353
606.75	13.606
607.09	13.902
607.42	14.220
607.75	13.638
608.08	13.812
608.42	13.744
608.75	14.262
609.08	13.158
609.41	13.895
609.75	14.062
610.08	14.468
610.41	13.764
610.74	13.655
611.07	14.387
611.41	13.946
611.74	13.764
612.07	13.745
612.40	12.833
612.73	14.279
613.07	14.034
613.40	14.052
613.73	13.770
614.06	13.445
614.39	14.091
614.72	13.295
615.06	13.811
615.39	13.630
615.72	13.460
616.05	13.453
616.38	14.178
616.71	13.480
617.05	13.259
617.38	14.500
617.71	13.715
618.04	13.869
618.37	13.333
618.70	14.480
619.03	13.799
619.36	14.488
619.69	14.222
620.03	13.183
620.36	13.129
620.69	13.634
621.02	13.583
621.35	13.788
621.68	14.461
622.01	12.740
622.34	13.250
622.67	13.814
623.00	12.416
623.33	13.802
623.66	13.878
623.99	12.903
624.32	14.750
624.65	12.870
624.99	13.524
625.32	14.239
625.65	13.688
625.98	13.220
626.31	13.324
626.64	14.359
626.97	13.353
627.30	12.604
627.63	13.128
627.96	14.790
628.29	13.385
628.62	12.594
628.95	12.883
629.28	14.359
629.61	13.721
629.94	13.054
630.26	13.220
630.59	13.299
630.92	14.113
631.25	13.506
631.58	13.936
631.91	12.933
632.24	13.929
632.57	13.472
632.90	12.638
633.23	13.061
633.56	12.653
633.89	11.054
634.22	14.449
634.55	13.883
634.88	13.203
635.20	15.823
635.53	12.316
635.86	13.001
636.19	15.801
636.52	13.924
636.85	13.177
637.18	12.786
637.51	12.903
637.83	14.618
638.16	14.055
638.49	13.498
638.82	12.965
639.15	13.058
639.48	15.589
639.81	13.048
640.13	13.899
640.46	13.212
640.79	12.255
641.12	13.789
641.45	14.053
641.77	16.046
642.10	14.173
642.43	14.761
642.76	13.279
643.09	13.288
643.41	12.185
643.74	11.724
644.07	14.621
644.40	13.296
644.73	13.208
645.05	12.482
645.38	13.094
645.71	12.903
646.04	16.930
646.36	12.701
646.69	12.883
647.02	14.373
647.35	13.435
647.67	13.688
648.00	12.102
648.33	13.514
648.66	12.553
648.98	13.605
649.31	12.179
649.64	14.077
649.96	12.069
650.29	11.127
650.62	13.720
650.94	13.063
651.27	12.275
651.60	11.842
651.92	12.006
652.25	14.616
652.58	13.343
652.90	12.209
653.23	14.085
653.56	11.698
653.88	13.062
654.21	11.972
654.54	13.584
654.86	13.598
655.19	12.045
655.52	13.567
655.84	13.178
656.17	15.718
656.49	22.367
656.82	24.536
657.15	18.791
657.47	13.985
657.80	10.136
658.13	7.853
658.45	10.196
658.78	12.444
659.10	12.084
659.43	11.550
659.75	11.309
660.08	10.924
660.41	10.835
660.73	10.946
661.06	13.069
661.38	12.600
661.71	12.414
662.03	11.640
662.36	13.775
662.68	10.694
663.01	12.920
663.33	13.422
663.66	15.385
663.98	12.308
664.31	12.195
664.63	11.175
664.96	13.975
665.28	13.249
665.61	14.336
665.93	9.643
666.26	13.799
666.58	10.886
666.91	12.523
667.23	12.571
667.56	13.412
667.88	11.600
668.21	11.328
668.53	10.618
668.86	13.163
669.18	13.035
669.50	11.133
669.83	12.000
670.15	11.417
670.48	14.683
670.80	11.472
671.13	12.476
671.45	11.417
671.77	14.689
672.10	11.833
672.42	10.841
672.75	12.442
673.07	11.343
673.39	12.635
673.72	11.409
674.04	14.483
674.37	11.807
674.69	15.520
675.01	11.429
675.34	9.924
675.66	10.674
675.98	12.500
676.31	12.500
676.63	15.019
676.95	14.943
677.28	12.702
677.60	9.252
677.92	12.860
678.25	10.238
678.57	12.456
678.89	12.628
679.22	11.672
679.54	11.966
679.86	9.153
680.18	12.604
680.51	12.736
680.83	12.439
681.15	12.241
681.48	13.126
681.80	11.744
682.12	11.364
682.44	11.686
682.77	12.234
683.09	13.447
683.41	13.372
683.73	13.283
684.06	11.255
684.38	11.449
684.70	13.106
685.02	12.909
685.34	12.646
685.67	10.568
685.99	11.196
686.31	11.773
686.63	10.900
686.96	11.830
687.28	13.844
687.60	9.091
687.92	8.039
688.24	11.853
688.56	12.931
688.89	12.886
689.21	13.112
689.53	9.020
689.85	10.059
690.17	11.481
690.49	10.159
690.82	12.673
691.14	9.514
691.46	12.046
691.78	13.812
692.10	11.193
692.42	11.250
692.74	13.067
693.06	10.185
693.39	13.472
693.71	13.534
694.03	13.197
694.35	9.143
694.67	11.499
694.99	11.702
695.31	12.804
695.63	14.935
695.95	12.008
696.27	10.549
696.59	15.265
696.91	13.063
697.23	11.868
697.56	12.627
697.88	13.258
698.20	12.241
698.52	13.447
698.84	11.850
699.16	13.673
699.48	14.226
699.80	11.277
700.12	12.009
700.44	11.521
700.76	10.926
701.08	11.864
701.40	9.585
701.72	11.443
702.04	11.497
702.36	8.377
702.68	9.535
703.00	12.225
703.32	13.300
703.64	12.714
703.96	13.365
704.28	14.496
704.60	12.152
704.91	13.265
705.23	9.041
705.55	12.535
705.87	12.424
706.19	12.577
706.51	6.928
706.83	8.646
707.15	9.259
707.47	10.280
707.79	10.044
708.11	8.898
708.43	9.462
708.74	9.598
709.06	10.673
709.38	14.789
709.70	15.385
710.02	11.628
710.34	11.170
710.66	11.732
710.98	14.754
711.29	10.989
711.61	12.994
711.93	14.245
712.25	11.622
712.57	12.389
712.89	14.706
713.20	11.243
713.52	13.584
713.84	11.142
714.16	15.263
714.48	9.278
714.80	14.545
715.11	11.024
715.43	11.406
715.75	14.474
716.07	11.050
716.39	15.027
716.70	11.446
717.02	15.738
717.34	9.408
717.66	11.409
717.97	5.137
718.29	11.684
718.61	8.224
718.93	11.003
719.24	11.180
719.56	13.190
719.88	11.411
720.20	8.065
720.51	13.354
720.83	9.688
721.15	12.500
721.46	8.904
721.78	11.667
722.10	10.032
722.42	9.060
722.73	10.645
723.05	11.579
723.37	11.806
723.68	11.111
724.00	14.440
724.32	9.859
724.63	10.490
724.95	12.766
725.27	10.801
725.58	6.714
725.90	16.207
726.22	12.853
726.53	13.312
726.85	16.981
727.16	10.876
727.48	14.373
727.80	13.907
728.11	5.654
728.43	15.488
728.74	10.368
729.06	10.596
729.38	10.714
729.69	8.725
730.01	14.583
730.32	10.000
730.64	11.006
730.96	9.627
731.27	14.525
731.59	13.187
731.90	12.208
732.22	11.458
732.53	11.326
732.85	10.571
733.16	11.437
733.48	7.927
733.80	11.421
734.11	11.681
734.43	11.892
734.74	14.177
735.06	13.819
735.37	10.541
735.69	11.081
736.00	12.147
736.32	10.512
736.63	13.889
736.95	10.920
737.26	14.242
737.58	9.697
737.89	15.000
738.21	10.703
738.52	12.787
738.83	11.604
739.15	7.092
739.46	15.986
739.78	10.123
740.09	12.034
740.41	16.327
740.72	9.667
741.04	10.356
741.35	12.982
741.66	13.725
741.98	11.066
742.29	13.389
742.61	14.474
742.92	11.538
743.23	14.801
743.55	14.729
743.86	13.200
744.18	4.545
744.49	12.236
744.80	16.461
745.12	11.814
745.43	13.821
745.74	11.207
746.06	12.288
746.37	16.034
746.68	16.667
747.00	10.833
747.31	12.876
747.62	15.000
747.94	15.385
748.25	10.442
748.56	8.571
748.88	9.829
749.19	15.948
749.50	8.658
749.82	14.458
750.13	14.947
750.44	10.000
750.75	12.000
751.07	14.154
751.38	11.356
751.69	14.377
752.01	6.796
752.32	10.131
752.63	14.286
752.94	12.457
753.26	8.550
753.57	9.259
753.88	11.985
754.19	11.576
754.51	9.968
754.82	12.540
755.13	13.770
755.44	10.922
755.75	11.184
756.07	11.343
756.38	12.264
756.69	14.157
757.00	11.080
757.31	13.661
757.63	11.509
757.94	11.033
758.25	11.287
758.56	12.854
758.87	13.864
759.18	10.400
759.50	12.748
759.81	12.325
760.12	11.590
760.43	12.760
760.74	12.808
761.05	12.250
761.36	11.566
761.67	11.929
761.99	12.162
762.30	13.415
762.61	11.221
762.92	10.448
763.23	14.981
763.54	15.468
763.85	10.653
764.16	14.141
764.47	13.732
764.78	15.335
765.10	10.850
765.41	14.103
765.72	12.169
766.03	11.864
766.34	11.912
766.65	13.240
766.96	10.359
767.27	15.668
767.58	8.458
767.89	20.192
768.20	16.432
768.51	12.500
768.82	16.867
769.13	10.985
769.44	8.846
769.75	12.635
770.06	14.615
770.37	13.780
770.68	5.957
770.99	6.478
771.30	15.926
771.61	13.688
771.92	10.370
772.23	14.575
772.54	6.481
772.85	17.051
773.16	12.857
773.47	8.466
773.78	10.811
774.09	11.364
774.39	20.000
774.70	13.115
775.01	9.756
775.32	9.412
775.63	11.656
775.94	3.822
776.25	16.774
776.56	12.821
776.87	12.925
777.18	14.483
777.48	10.490
777.79	4.054
778.10	10.294
778.41	13.889
778.72	20.000
779.03	16.049
779.34	8.485
779.65	12.435
779.95	9.444
780.26	16.477
780.57	9.677
780.88	18.116
781.19	21.935
781.50	11.765
781.80	12.366
782.11	10.053
782.42	9.596
782.73	7.186
783.04	11.732
783.34	12.121
783.65	10.458
783.96	9.938
784.27	17.857
784.57	11.921
784.88	15.000
785.19	16.535
785.50	16.535
785.81	20.301
786.11	13.846
786.42	11.511
786.73	4.317
787.04	19.549
787.34	13.115
787.65	16.000
787.96	12.687
788.26	19.580
788.57	11.888
788.88	11.842
789.19	18.954
789.49	9.589
789.80	10.638
790.11	11.811
790.41	7.813
790.72	10.169
791.03	2.913
791.33	11.304
791.64	15.789
791.95	9.821
792.25	16.190
792.56	15.179
792.87	12.500
793.17	18.750
793.48	6.250
793.79	1.205
794.09	1.835
794.40	12.844
794.70	8.844
795.01	5.844
795.32	13.699
795.62	15.493
795.93	12.879
796.23	18.852
796.54	14.286
796.85	10.638
797.15	9.783
797.46	6.849
797.76	5.000
798.07	4.348
798.37	10.309
798.68	9.091
798.99	9.195
799.29	17.978
799.60	10.638
799.90	12.048
800.21	0.000
800.51	-2.985
800.82	-14.706
801.12	2.740
801.43	-4.412
801.73	1.695
802.04	18.182
802.34	1.667
802.65	5.085
802.95	23.881
803.26	-3.390
803.56	8.219
803.87	12.857
804.17	31.507
804.48	1.754
804.78	15.278
805.09	1.724
805.39	17.568
805.70	14.085
806.00	13.415
806.30	14.458
806.61	2.740
806.91	14.423
807.22	13.333
807.52	0.000
807.83	23.611
808.13	26.506
808.43	17.978
808.74	-1.250
809.04	-7.353
809.35	8.000
809.65	8.571
809.95	5.479
810.26	-10.526
810.56	13.793
810.86	11.765
811.17	-10.526
811.47	14.754
811.77	-6.667
812.08	5.085
812.38	20.000
812.69	3.448
812.99	-3.774
813.29	-17.949
813.59	22.000
813.90	17.544
814.20	1.818
814.50	25.352
814.81	16.667
815.11	16.393
815.41	8.955
815.72	34.483
816.02	21.429
816.32	6.667
816.62	11.364
816.93	6.667
817.23	7.407
817.53	4.255
817.84	28.571
818.14	11.765
818.44	8.163
818.74	33.333
819.04	2.564
819.35	-20.000
819.65	-38.462
819.95	5.660
820.25	2.222
820.56	19.048
820.86	21.875
821.16	-2.564
821.46	0.000
821.76	0.000
822.07	12.500
822.37	-6.522
822.67	8.511
822.97	-21.622
823.27	-15.000
823.57	26.531
823.88	33.333
824.18	17.500
824.48	-3.333
824.78	-12.000
825.08	-12.121
825.38	20.000
825.69	29.787
825.99	-5.556
826.29	-5.714
826.59	-7.692
826.89	4.651
827.19	10.000
827.49	11.765
827.79	25.000
828.09	16.216
828.39	-16.667
828.70	-7.317
829.00	9.302
829.30	-21.429
829.60	20.588
829.90	15.217
830.20	22.857
830.50	-13.793
830.80	0.000
831.10	15.385
831.40	11.765
831.70	-9.524
832.00	48.387
832.30	-58.824
832.60	-20.833
832.90	-61.538
833.20	-36.842
833.50	25.000
833.80	-10.526
834.10	-33.333
834.40	27.778
834.70	46.875
835.00	-31.429
835.30	0.000
835.60	10.000
835.90	8.000
836.20	-45.455
836.50	16.000
836.80	21.212
837.10	-7.407
837.40	-22.222
837.70	-56.250
838.00	-14.286
838.30	0.000
838.60	27.586
838.90	14.286
839.19	-17.391
839.49	-75.000
839.79	8.696
840.09	-18.750
840.39	10.000
840.69	38.710
840.99	0.000
841.29	0.000
841.59	-5.263
841.88	17.949
842.18	11.538
842.48	0.000
842.78	-25.000
843.08	20.000
843.38	0.000
843.68	-16.667
843.97	11.765
844.27	-43.750
844.57	5.263
844.87	-20.000
845.17	26.667
845.47	33.333
845.76	-4.762
846.06	-11.111
846.36	-35.294
846.66	0.000
846.96	-26.667
847.25	-47.059
847.55	26.087
847.85	5.000
848.15	-11.765
848.44	-36.364
848.74	-14.286
849.04	-12.500
849.34	18.750
849.63	43.478
849.93	600.000
850.23	20.000
850.53	65.385
850.82	-18.182
851.12	40.909
851.42	-27.273
851.71	46.154
852.01	-70.000
852.31	-30.769
852.61	0.000
852.90	-33.333
853.20	50.000
853.50	-166.667
853.79	-38.095
854.09	-18.182
854.39	-58.333
854.68	12.903
854.98	30.769
855.28	33.333
855.57	25.000
855.87	-8.000
856.17	27.273
856.46	18.519
856.76	-33.333
857.05	34.783
857.35	-8.333
857.65	-15.385
857.94	19.048
858.24	3.704
858.53	43.478
858.83	47.059
859.13	47.059
859.42	82.353
859.72	100.000
860.01	-25.000
860.31	-55.556
860.60	10.000
860.90	20.000
861.20	5.556
861.49	38.462
861.79	3.333
862.08	-76.923
862.38	12.500
862.67	29.412
862.97	-6.250
863.26	44.444
863.56	50.000
863.85	-18.182
864.15	-27.778
864.44	-266.667
864.74	42.857
865.03	56.250
865.33	-20.000
865.62	-9.677
865.92	13.636
866.21	-4.348
866.51	-14.286
866.80	-140.000
867.10	16.667
867.39	-25.000
867.69	1100.000
867.98	0.000
868.27	35.294
868.57	-1400.000
868.86	30.000
869.16	-38.095
869.45	29.167
869.75	9.091
870.04	71.429
870.33	16.667
870.63	-100.000
870.92	50.000
871.22	-25.000
871.51	18.182
871.80	-100.000
872.10	-100.000
>>>>>End Processed Spectral Data<<<<<
