SpectraSuite Data File
++++++++++++++++++++++++++++++++++++
Date: Thu May 14 16:42:09 PDT 2015
User: schluterlab
Dark Spectrum Present: Yes
Reference Spectrum Present: Yes
Number of Sampled Component Spectra: 1
Spectrometers: USB2E3373
Integration Time (usec): 3000 (USB2E3373)
Spectra Averaged: 3 (USB2E3373)
Boxcar Smoothing: 0 (USB2E3373)
Correct for Electrical Dark: No (USB2E3373)
Strobe/Lamp Enabled: No (USB2E3373)
Correct for Detector Non-linearity: No (USB2E3373)
Correct for Stray Light: No (USB2E3373)
Number of Pixels in Processed Spectrum: 2048
>>>>>Begin Processed Spectral Data<<<<<
178.53	0.000
178.91	57.143
179.29	-1000.000
179.67	200.000
180.04	71.429
180.42	20.000
180.80	160.000
181.18	-200.000
181.56	1100.000
181.94	75.000
182.31	75.000
182.69	-100.000
183.07	150.000
183.45	50.000
183.83	-150.000
184.20	66.667
184.58	-0.000
184.96	-75.000
185.34	-55.556
185.72	180.000
186.09	111.111
186.47	200.000
186.85	280.000
187.23	-66.667
187.61	-700.000
187.98	-0.000
188.36	-50.000
188.74	-100.000
189.12	-133.333
189.49	-25.000
189.87	-37.500
190.25	66.667
190.63	40.000
191.00	-66.667
191.38	0.000
191.76	-275.000
192.14	-16.667
192.51	50.000
192.89	200.000
193.27	0.000
193.65	71.429
194.02	-1400.000
194.40	-71.429
194.78	100.000
195.15	0.000
195.53	9.091
195.91	0.000
196.29	75.000
196.66	7.692
197.04	0.000
197.42	-42.857
197.79	250.000
198.17	62.500
198.55	57.143
198.92	55.556
199.30	-62.500
199.68	36.364
200.05	92.857
200.43	-50.000
200.81	85.714
201.18	0.000
201.56	111.111
201.94	0.000
202.31	100.000
202.69	-100.000
203.07	-100.000
203.44	33.333
203.82	75.000
204.19	75.000
204.57	83.333
204.95	-25.000
205.32	300.000
205.70	-75.000
206.08	100.000
206.45	150.000
206.83	280.000
207.20	66.667
207.58	-260.000
207.96	0.000
208.33	-33.333
208.71	8.333
209.08	83.333
209.46	0.000
209.84	100.000
210.21	50.000
210.59	250.000
210.96	100.000
211.34	0.000
211.71	-100.000
212.09	-1100.000
212.46	0.000
212.84	500.000
213.22	0.000
213.59	0.000
213.97	0.000
214.34	-66.667
214.72	150.000
215.09	0.000
215.47	0.000
215.84	-0.000
216.22	600.000
216.59	-40.000
216.97	-40.000
217.34	0.000
217.72	12.500
218.09	-150.000
218.47	-200.000
218.84	0.000
219.22	160.000
219.59	29.412
219.97	0.000
220.34	150.000
220.72	11.111
221.09	38.462
221.47	100.000
221.84	-50.000
222.22	-85.714
222.59	0.000
222.97	25.000
223.34	-40.000
223.72	600.000
224.09	200.000
224.46	-50.000
224.84	180.000
225.21	14.286
225.59	-75.000
225.96	-100.000
226.34	34.615
226.71	50.000
227.08	200.000
227.46	53.333
227.83	200.000
228.21	5.263
228.58	37.500
228.95	200.000
229.33	75.000
229.70	-40.000
230.08	21.053
230.45	130.000
230.82	33.333
231.20	50.000
231.57	66.667
231.95	-27.273
232.32	18.182
232.69	55.000
233.07	100.000
233.44	0.000
233.81	-20.000
234.19	72.222
234.56	13.636
234.93	51.724
235.31	100.000
235.68	33.333
236.05	40.000
236.43	53.846
236.80	20.000
237.17	18.519
237.55	12.121
237.92	30.000
238.29	29.032
238.67	0.000
239.04	19.444
239.41	0.000
239.79	13.043
240.16	-1.852
240.53	10.870
240.91	19.608
241.28	22.951
241.65	32.836
242.02	25.676
242.40	15.385
242.77	18.667
243.14	12.195
243.51	13.158
243.89	16.667
244.26	27.723
244.63	28.431
245.00	25.234
245.38	16.667
245.75	16.814
246.12	16.667
246.49	17.054
246.87	22.857
247.24	19.868
247.61	20.395
247.98	21.477
248.36	17.284
248.73	12.883
249.10	21.311
249.47	23.881
249.84	27.749
250.22	20.207
250.59	18.333
250.96	22.273
251.33	21.939
251.70	24.359
252.08	21.250
252.45	22.131
252.82	17.769
253.19	19.141
253.56	19.011
253.94	16.538
254.31	18.939
254.68	24.825
255.05	20.195
255.42	21.429
255.79	18.770
256.16	20.199
256.54	18.543
256.91	22.951
257.28	16.393
257.65	16.561
258.02	20.059
258.39	23.077
258.76	23.242
259.14	21.552
259.51	17.579
259.88	18.130
260.25	18.889
260.62	23.288
260.99	19.672
261.36	20.912
261.73	19.894
262.10	18.681
262.47	19.571
262.85	23.232
263.22	17.662
263.59	16.579
263.96	20.205
264.33	19.437
264.70	18.272
265.07	23.389
265.44	21.088
265.81	18.519
266.18	21.542
266.55	19.643
266.92	18.679
267.29	20.131
267.66	18.625
268.03	22.271
268.40	20.251
268.77	15.034
269.14	18.722
269.51	21.272
269.88	20.902
270.25	19.718
270.62	19.198
270.99	21.212
271.36	22.376
271.73	17.878
272.10	22.244
272.47	22.645
272.84	18.474
273.21	21.242
273.58	21.774
273.95	17.692
274.32	18.441
274.69	19.729
275.06	19.780
275.43	19.593
275.80	19.577
276.17	17.963
276.54	19.776
276.91	19.141
277.28	20.615
277.65	17.594
278.02	21.324
278.39	20.471
278.76	16.872
279.13	19.858
279.50	19.588
279.87	19.857
280.23	16.021
280.60	18.644
280.97	21.382
281.34	17.997
281.71	20.812
282.08	17.276
282.45	19.967
282.82	18.524
283.19	16.801
283.56	19.836
283.92	19.069
284.29	20.853
284.66	19.376
285.03	16.346
285.40	18.856
285.77	17.802
286.14	20.305
286.51	19.939
286.87	17.536
287.24	20.633
287.61	19.880
287.98	17.069
288.35	18.343
288.72	18.047
289.08	17.423
289.45	17.456
289.82	18.675
290.19	18.247
290.56	18.169
290.93	16.690
291.29	17.631
291.66	17.631
292.03	15.875
292.40	16.463
292.77	15.768
293.13	15.697
293.50	15.506
293.87	17.181
294.24	16.267
294.60	16.056
294.97	15.973
295.34	16.773
295.71	15.006
296.08	16.150
296.44	16.176
296.81	15.469
297.18	16.189
297.55	16.038
297.91	14.947
298.28	13.744
298.65	14.982
299.02	16.175
299.38	15.332
299.75	14.836
300.12	14.236
300.48	13.940
300.85	15.411
301.22	14.765
301.59	14.726
301.95	14.463
302.32	15.000
302.69	14.020
303.05	14.799
303.42	14.745
303.79	15.000
304.15	13.985
304.52	14.482
304.89	14.764
305.25	14.079
305.62	14.525
305.99	15.464
306.35	14.919
306.72	15.408
307.09	14.721
307.45	16.460
307.82	16.044
308.19	14.127
308.55	15.815
308.92	14.800
309.29	14.368
309.65	16.277
310.02	14.752
310.38	14.469
310.75	15.534
311.12	15.628
311.48	14.565
311.85	15.859
312.22	15.844
312.58	15.681
312.95	15.679
313.31	16.350
313.68	17.033
314.05	17.164
314.41	17.304
314.78	17.984
315.14	18.058
315.51	18.652
315.87	18.542
316.24	19.817
316.61	19.272
316.97	18.552
317.34	20.194
317.70	20.349
318.07	20.635
318.43	21.344
318.80	22.993
319.16	21.288
319.53	21.508
319.89	22.436
320.26	24.021
320.62	23.138
320.99	25.300
321.35	24.954
321.72	28.000
322.08	25.969
322.45	26.468
322.81	28.339
323.18	26.991
323.54	28.621
323.91	30.160
324.27	29.432
324.64	31.738
325.00	31.095
325.37	31.695
325.73	34.463
326.10	33.820
326.46	35.423
326.83	36.990
327.19	36.142
327.56	39.130
327.92	36.349
328.29	37.419
328.65	39.196
329.01	40.271
329.38	41.281
329.74	41.182
330.11	42.209
330.47	41.281
330.84	41.430
331.20	42.250
331.56	43.934
331.93	44.351
332.29	44.237
332.66	44.352
333.02	43.635
333.38	43.121
333.75	44.108
334.11	45.788
334.48	44.967
334.84	45.879
335.20	45.088
335.57	45.784
335.93	45.289
336.29	44.260
336.66	45.669
337.02	46.070
337.38	46.769
337.75	47.851
338.11	48.444
338.47	47.560
338.84	47.462
339.20	47.683
339.56	47.117
339.93	45.320
340.29	46.216
340.65	46.553
341.02	47.725
341.38	48.504
341.74	47.054
342.11	47.949
342.47	46.863
342.83	49.195
343.20	49.469
343.56	49.238
343.92	47.958
344.28	49.297
344.65	49.302
345.01	47.972
345.37	49.378
345.73	48.012
346.10	48.362
346.46	50.316
346.82	49.139
347.19	48.587
347.55	48.634
347.91	47.548
348.27	50.076
348.63	49.353
349.00	48.024
349.36	49.219
349.72	49.628
350.08	50.000
350.45	50.570
350.81	50.000
351.17	50.677
351.53	49.431
351.89	50.418
352.26	50.896
352.62	50.149
352.98	51.603
353.34	50.485
353.70	50.847
354.07	51.341
354.43	51.177
354.79	50.411
355.15	49.890
355.51	52.193
355.87	50.860
356.24	52.548
356.60	50.776
356.96	52.261
357.32	50.706
357.68	51.830
358.04	50.823
358.40	51.119
358.77	51.389
359.13	51.477
359.49	52.565
359.85	51.777
360.21	51.650
360.57	51.472
360.93	51.834
361.29	51.439
361.66	53.005
362.02	52.470
362.38	52.354
362.74	52.584
363.10	53.851
363.46	53.532
363.82	54.261
364.18	52.709
364.54	54.011
364.90	52.910
365.26	54.621
365.62	55.067
365.98	53.982
366.35	53.960
366.71	54.558
367.07	53.992
367.43	54.301
367.79	55.209
368.15	55.117
368.51	56.360
368.87	53.952
369.23	53.867
369.59	54.235
369.95	54.902
370.31	56.853
370.67	56.396
371.03	56.163
371.39	55.406
371.75	56.878
372.11	55.759
372.47	55.992
372.83	55.236
373.19	55.570
373.55	55.759
373.91	55.828
374.27	56.210
374.63	56.698
374.99	55.570
375.35	57.338
375.71	56.968
376.07	56.423
376.42	56.990
376.78	57.738
377.14	56.831
377.50	58.001
377.86	56.589
378.22	58.024
378.58	58.264
378.94	58.275
379.30	57.821
379.66	58.260
380.02	57.473
380.38	58.525
380.74	58.310
381.09	59.001
381.45	58.182
381.81	59.836
382.17	59.798
382.53	58.947
382.89	59.481
383.25	59.965
383.61	58.796
383.97	59.187
384.32	60.467
384.68	59.049
385.04	59.977
385.40	60.754
385.76	61.430
386.12	59.605
386.48	59.235
386.83	60.489
387.19	59.907
387.55	60.563
387.91	60.502
388.27	61.490
388.62	59.507
388.98	59.278
389.34	60.754
389.70	61.011
390.06	61.812
390.42	61.566
390.77	61.710
391.13	60.798
391.49	61.715
391.85	60.848
392.20	61.803
392.56	61.311
392.92	62.214
393.28	62.465
393.64	60.168
393.99	60.953
394.35	62.208
394.71	62.515
395.07	61.377
395.42	60.480
395.78	63.681
396.14	61.616
396.50	61.639
396.85	61.360
397.21	62.722
397.57	62.309
397.92	62.199
398.28	61.977
398.64	61.728
399.00	60.524
399.35	62.147
399.71	62.120
400.07	63.672
400.42	62.398
400.78	61.979
401.14	62.607
401.49	62.933
401.85	64.128
402.21	62.399
402.57	62.735
402.92	63.357
403.28	62.588
403.63	63.186
403.99	63.480
404.35	62.194
404.70	62.153
405.06	62.337
405.42	63.349
405.77	62.704
406.13	63.101
406.49	63.119
406.84	62.604
407.20	63.387
407.55	63.174
407.91	62.288
408.27	62.898
408.62	63.176
408.98	63.378
409.34	64.106
409.69	64.277
410.05	63.716
410.40	63.457
410.76	62.984
411.11	65.167
411.47	63.759
411.83	64.609
412.18	65.301
412.54	63.545
412.89	63.038
413.25	62.754
413.60	63.240
413.96	63.753
414.31	62.266
414.67	62.612
415.03	63.323
415.38	64.376
415.74	63.286
416.09	64.651
416.45	63.557
416.80	63.525
417.16	65.070
417.51	64.633
417.87	62.906
418.22	64.012
418.58	63.631
418.93	64.494
419.29	64.365
419.64	64.166
420.00	62.493
420.35	63.841
420.71	62.550
421.06	63.370
421.42	62.156
421.77	64.082
422.12	62.896
422.48	62.058
422.83	63.691
423.19	64.881
423.54	64.270
423.90	63.114
424.25	64.747
424.61	64.064
424.96	64.525
425.31	65.021
425.67	63.661
426.02	64.139
426.38	64.237
426.73	64.621
427.09	64.879
427.44	63.736
427.79	64.234
428.15	64.669
428.50	64.663
428.85	63.662
429.21	65.106
429.56	64.215
429.92	63.243
430.27	63.904
430.62	64.924
430.98	64.781
431.33	64.565
431.68	62.213
432.04	64.804
432.39	63.257
432.74	63.756
433.10	64.359
433.45	64.493
433.80	63.895
434.16	63.946
434.51	65.416
434.86	65.961
435.22	66.472
435.57	64.800
435.92	64.997
436.28	65.358
436.63	66.248
436.98	63.661
437.34	65.107
437.69	65.493
438.04	65.468
438.39	65.020
438.75	64.361
439.10	64.376
439.45	64.394
439.81	65.085
440.16	63.807
440.51	64.103
440.86	62.590
441.22	64.684
441.57	65.042
441.92	64.306
442.27	65.960
442.63	64.928
442.98	64.941
443.33	63.809
443.68	66.006
444.03	63.923
444.39	64.725
444.74	65.135
445.09	64.622
445.44	65.595
445.79	64.272
446.15	64.697
446.50	65.426
446.85	64.300
447.20	64.313
447.55	64.487
447.91	65.131
448.26	64.376
448.61	65.940
448.96	66.577
449.31	64.051
449.66	64.869
450.02	64.504
450.37	65.424
450.72	65.447
451.07	64.806
451.42	65.049
451.77	64.202
452.12	64.673
452.47	64.765
452.83	66.610
453.18	63.865
453.53	65.365
453.88	64.992
454.23	64.746
454.58	65.990
454.93	64.806
455.28	65.744
455.63	63.843
455.98	65.084
456.34	63.958
456.69	64.256
457.04	65.485
457.39	64.080
457.74	65.940
458.09	64.470
458.44	64.978
458.79	63.486
459.14	63.450
459.49	64.799
459.84	64.586
460.19	64.187
460.54	63.884
460.89	65.220
461.24	63.678
461.59	65.136
461.94	64.176
462.29	64.670
462.64	64.816
462.99	64.595
463.34	65.412
463.69	63.775
464.04	65.147
464.39	64.126
464.74	63.170
465.09	64.302
465.44	63.251
465.79	63.194
466.14	64.044
466.49	64.526
466.84	64.904
467.19	63.931
467.54	62.573
467.89	62.931
468.24	62.659
468.59	63.578
468.94	63.695
469.29	63.587
469.64	64.463
469.99	64.563
470.34	65.470
470.68	65.482
471.03	65.684
471.38	64.356
471.73	64.889
472.08	65.228
472.43	65.382
472.78	64.232
473.13	64.475
473.48	63.807
473.83	65.177
474.17	64.127
474.52	65.063
474.87	63.068
475.22	65.127
475.57	63.499
475.92	65.057
476.27	63.419
476.61	63.499
476.96	62.826
477.31	63.366
477.66	65.425
478.01	63.955
478.36	62.911
478.70	64.384
479.05	66.258
479.40	65.054
479.75	64.217
480.10	63.856
480.45	63.674
480.79	63.673
481.14	63.741
481.49	64.562
481.84	64.230
482.19	63.828
482.53	63.883
482.88	64.555
483.23	65.407
483.58	64.279
483.92	63.032
484.27	62.701
484.62	62.665
484.97	63.219
485.31	61.774
485.66	59.249
486.01	57.267
486.36	58.840
486.70	60.774
487.05	62.480
487.40	61.435
487.75	62.672
488.09	62.046
488.44	62.300
488.79	62.428
489.13	62.563
489.48	62.913
489.83	62.575
490.17	63.507
490.52	62.315
490.87	62.944
491.22	63.951
491.56	64.420
491.91	64.021
492.26	65.210
492.60	64.320
492.95	63.668
493.30	64.724
493.64	63.338
493.99	64.079
494.34	64.199
494.68	64.411
495.03	64.405
495.37	64.447
495.72	63.129
496.07	64.110
496.41	63.578
496.76	64.012
497.11	64.076
497.45	63.703
497.80	63.794
498.14	63.628
498.49	64.292
498.84	63.803
499.18	63.383
499.53	65.336
499.87	63.824
500.22	63.847
500.56	64.777
500.91	64.989
501.26	65.000
501.60	64.781
501.95	63.917
502.29	64.458
502.64	65.326
502.98	63.374
503.33	62.765
503.67	63.846
504.02	64.492
504.36	64.656
504.71	64.125
505.06	64.302
505.40	65.174
505.75	63.661
506.09	63.628
506.44	64.345
506.78	64.541
507.13	65.514
507.47	65.798
507.82	64.347
508.16	65.535
508.51	64.369
508.85	65.564
509.19	65.751
509.54	65.322
509.88	64.449
510.23	66.440
510.57	66.119
510.92	66.763
511.26	64.983
511.61	65.331
511.95	66.227
512.30	65.042
512.64	65.017
512.98	66.483
513.33	66.683
513.67	66.293
514.02	67.297
514.36	66.343
514.70	67.552
515.05	67.623
515.39	66.194
515.74	67.338
516.08	66.297
516.42	67.504
516.77	67.245
517.11	66.478
517.46	67.762
517.80	68.306
518.14	67.845
518.49	68.709
518.83	66.631
519.17	66.236
519.52	66.876
519.86	67.159
520.20	67.093
520.55	67.306
520.89	69.707
521.23	66.667
521.58	69.492
521.92	66.912
522.26	67.869
522.61	68.866
522.95	69.262
523.29	70.057
523.64	67.545
523.98	68.853
524.32	68.653
524.66	70.120
525.01	68.460
525.35	68.007
525.69	67.691
526.04	67.681
526.38	69.368
526.72	68.397
527.06	70.088
527.41	68.397
527.75	69.774
528.09	69.599
528.43	67.910
528.78	68.671
529.12	69.610
529.46	68.072
529.80	69.222
530.15	69.971
530.49	70.047
530.83	68.654
531.17	69.415
531.51	69.795
531.86	69.411
532.20	70.488
532.54	68.282
532.88	68.970
533.22	68.768
533.57	68.552
533.91	68.799
534.25	69.022
534.59	69.943
534.93	67.799
535.27	69.465
535.62	68.391
535.96	69.030
536.30	70.270
536.64	69.550
536.98	69.926
537.32	69.877
537.66	70.992
538.01	68.640
538.35	69.367
538.69	68.690
539.03	70.018
539.37	69.670
539.71	70.631
540.05	69.724
540.39	69.499
540.73	68.063
541.07	68.302
541.42	68.399
541.76	67.794
542.10	69.481
542.44	68.149
542.78	69.404
543.12	68.772
543.46	69.109
543.80	67.746
544.14	68.103
544.48	68.558
544.82	70.796
545.16	70.066
545.50	69.802
545.84	68.096
546.18	71.049
546.52	69.809
546.86	69.371
547.20	70.483
547.54	70.599
547.88	69.379
548.22	68.246
548.56	68.637
548.90	68.119
549.24	68.389
549.58	68.580
549.92	71.429
550.26	70.615
550.60	69.113
550.94	69.793
551.28	69.637
551.62	70.620
551.96	69.903
552.30	70.618
552.64	69.384
552.98	69.744
553.32	69.968
553.66	70.675
554.00	70.177
554.34	69.884
554.68	69.335
555.02	70.762
555.36	71.400
555.69	69.891
556.03	69.987
556.37	71.214
556.71	69.943
557.05	69.201
557.39	70.206
557.73	71.268
558.07	70.331
558.41	72.027
558.75	70.859
559.08	72.443
559.42	69.204
559.76	69.810
560.10	70.395
560.44	70.778
560.78	70.562
561.12	70.320
561.45	70.377
561.79	70.635
562.13	70.672
562.47	69.605
562.81	70.443
563.15	70.202
563.48	69.360
563.82	69.770
564.16	69.291
564.50	68.474
564.84	69.381
565.17	69.000
565.51	68.239
565.85	69.181
566.19	67.915
566.52	69.163
566.86	67.968
567.20	67.210
567.54	67.021
567.88	68.552
568.21	67.441
568.55	67.338
568.89	67.363
569.23	65.610
569.56	65.690
569.90	65.004
570.24	63.609
570.57	64.496
570.91	62.278
571.25	62.135
571.59	62.622
571.92	62.420
572.26	61.249
572.60	62.244
572.93	62.399
573.27	61.871
573.61	61.673
573.95	61.520
574.28	61.060
574.62	60.914
574.96	59.771
575.29	59.947
575.63	60.845
575.97	60.886
576.30	60.276
576.64	60.749
576.98	60.592
577.31	60.929
577.65	60.669
577.98	60.241
578.32	59.349
578.66	59.800
578.99	59.840
579.33	60.938
579.67	60.653
580.00	60.171
580.34	59.860
580.67	60.878
581.01	60.515
581.35	59.751
581.68	59.450
582.02	59.349
582.35	60.227
582.69	60.075
583.02	60.998
583.36	60.444
583.70	61.531
584.03	61.459
584.37	61.071
584.70	60.831
585.04	59.916
585.37	59.788
585.71	60.043
586.04	60.282
586.38	60.167
586.72	60.541
587.05	60.732
587.39	60.484
587.72	60.431
588.06	61.315
588.39	60.866
588.73	60.873
589.06	60.976
589.40	62.508
589.73	61.857
590.07	62.235
590.40	62.644
590.73	61.223
591.07	63.440
591.40	62.558
591.74	64.428
592.07	63.865
592.41	62.224
592.74	61.945
593.08	62.643
593.41	61.680
593.75	61.178
594.08	60.951
594.41	62.147
594.75	61.408
595.08	62.281
595.42	62.468
595.75	61.382
596.09	62.318
596.42	62.057
596.75	62.177
597.09	63.677
597.42	61.979
597.75	61.388
598.09	61.944
598.42	62.203
598.76	62.247
599.09	60.627
599.42	60.241
599.76	60.614
600.09	61.428
600.42	60.561
600.76	61.129
601.09	59.111
601.42	60.659
601.76	61.276
602.09	61.079
602.42	61.360
602.76	61.587
603.09	61.637
603.42	61.633
603.76	60.782
604.09	61.781
604.42	61.651
604.76	61.111
605.09	61.707
605.42	61.643
605.75	61.269
606.09	62.113
606.42	60.416
606.75	60.007
607.09	60.714
607.42	60.617
607.75	61.665
608.08	61.247
608.42	60.701
608.75	60.862
609.08	60.059
609.41	61.976
609.75	61.875
610.08	62.533
610.41	61.597
610.74	60.084
611.07	62.345
611.41	62.780
611.74	61.940
612.07	62.786
612.40	62.548
612.73	63.570
613.07	62.641
613.40	63.234
613.73	62.590
614.06	62.463
614.39	61.808
614.72	62.203
615.06	60.876
615.39	61.092
615.72	61.090
616.05	62.263
616.38	62.109
616.71	63.741
617.05	62.993
617.38	62.707
617.71	64.363
618.04	63.141
618.37	64.098
618.70	64.480
619.03	63.441
619.36	63.872
619.69	65.086
620.03	66.039
620.36	63.558
620.69	63.664
621.02	65.354
621.35	67.852
621.68	65.510
622.01	64.911
622.34	64.923
622.67	65.292
623.00	64.440
623.33	64.964
623.66	65.499
623.99	63.529
624.32	64.977
624.65	63.514
624.99	64.824
625.32	65.709
625.65	66.082
625.98	64.407
626.31	66.974
626.64	64.762
626.97	65.716
627.30	67.274
627.63	65.341
627.96	66.441
628.29	67.782
628.62	69.186
628.95	67.748
629.28	68.734
629.61	67.677
629.94	66.778
630.26	68.390
630.59	67.271
630.92	66.753
631.25	68.247
631.58	71.375
631.91	67.854
632.24	69.645
632.57	68.501
632.90	70.010
633.23	70.714
633.56	70.510
633.89	68.905
634.22	72.765
634.55	71.712
634.88	70.996
635.20	70.291
635.53	72.090
635.86	71.181
636.19	69.883
636.52	68.776
636.85	68.029
637.18	69.543
637.51	68.710
637.83	69.878
638.16	73.618
638.49	69.718
638.82	70.575
639.15	69.187
639.48	71.016
639.81	71.132
640.13	69.494
640.46	69.939
640.79	70.588
641.12	71.304
641.45	71.393
641.77	74.198
642.10	70.866
642.43	71.809
642.76	73.035
643.09	72.329
643.41	70.028
643.74	72.000
644.07	73.517
644.40	72.984
644.73	73.295
645.05	75.771
645.38	71.799
645.71	71.408
646.04	72.597
646.36	71.971
646.69	72.239
647.02	74.006
647.35	70.534
647.67	76.973
648.00	76.752
648.33	71.171
648.66	71.755
648.98	69.116
649.31	69.553
649.64	69.721
649.96	68.833
650.29	69.124
650.62	68.458
650.94	71.471
651.27	69.461
651.60	68.275
651.92	73.860
652.25	67.583
652.58	68.501
652.90	70.203
653.23	69.014
653.56	69.187
653.88	68.961
654.21	67.746
654.54	69.942
654.86	69.688
655.19	65.496
655.52	62.809
655.84	52.810
656.17	60.438
656.49	84.127
656.82	91.923
657.15	71.889
657.47	55.458
657.80	41.679
658.13	32.779
658.45	43.784
658.78	52.960
659.10	52.061
659.43	52.663
659.75	53.060
660.08	53.221
660.41	56.907
660.73	60.319
661.06	65.051
661.38	68.262
661.71	68.448
662.03	68.959
662.36	71.914
662.68	73.546
663.01	73.274
663.33	75.803
663.66	71.978
663.98	74.615
664.31	72.420
664.63	73.218
664.96	70.962
665.28	69.691
665.61	72.552
665.93	70.357
666.26	70.968
666.58	69.742
666.91	69.346
667.23	67.619
667.56	68.836
667.88	71.800
668.21	69.727
668.53	68.726
668.86	71.316
669.18	71.894
669.50	69.980
669.83	70.600
670.15	67.913
670.48	70.238
670.80	67.113
671.13	65.595
671.45	68.701
671.77	71.940
672.10	64.833
672.42	64.078
672.75	63.748
673.07	60.896
673.39	63.482
673.72	68.792
674.04	65.690
674.37	69.052
674.69	66.843
675.01	67.238
675.34	67.557
675.66	65.543
675.98	66.418
676.31	70.508
676.63	68.251
676.95	68.774
677.28	67.944
677.60	67.126
677.92	70.058
678.25	64.168
678.57	67.972
678.89	65.188
679.22	63.240
679.54	63.590
679.86	62.881
680.18	64.345
680.51	62.107
680.83	61.866
681.15	62.069
681.48	65.630
681.80	64.249
682.12	65.385
682.44	60.601
682.77	64.184
683.09	60.985
683.41	65.504
683.73	63.947
684.06	63.100
684.38	61.181
684.70	63.196
685.02	63.339
685.34	61.065
685.67	60.252
685.99	58.129
686.31	56.977
686.63	61.769
686.96	59.621
687.28	61.238
687.60	61.279
687.92	58.842
688.24	57.596
688.56	58.103
688.89	62.976
689.21	63.209
689.53	63.137
689.85	61.933
690.17	59.630
690.49	64.940
690.82	63.762
691.14	61.741
691.46	61.568
691.78	62.063
692.10	58.716
692.42	58.571
692.74	58.258
693.06	56.667
693.39	60.342
693.71	57.143
694.03	60.037
694.35	58.857
694.67	63.039
694.99	61.915
695.31	60.265
695.63	62.554
695.95	56.936
696.27	63.297
696.59	62.611
696.91	63.514
697.23	62.198
697.56	60.489
697.88	60.038
698.20	61.017
698.52	58.712
698.84	61.538
699.16	59.388
699.48	59.623
699.80	58.298
700.12	57.424
700.44	61.521
700.76	61.995
701.08	61.259
701.40	65.285
701.72	60.199
702.04	61.765
702.36	59.686
702.68	55.990
703.00	62.347
703.32	61.576
703.64	62.347
703.96	62.530
704.28	58.968
704.60	62.025
704.91	58.929
705.23	61.096
705.55	61.281
705.87	63.333
706.19	69.018
706.51	62.651
706.83	61.960
707.15	57.407
707.47	55.140
707.79	56.114
708.11	51.695
708.43	52.903
708.74	54.911
709.06	56.613
709.38	55.399
709.70	59.057
710.02	57.623
710.34	62.234
710.66	56.704
710.98	53.825
711.29	58.516
711.61	59.322
711.93	62.393
712.25	60.270
712.57	63.717
712.89	61.471
713.20	57.988
713.52	62.717
713.84	58.217
714.16	57.632
714.48	55.412
714.80	59.481
715.11	58.005
715.43	55.968
715.75	58.158
716.07	53.039
716.39	53.825
716.70	57.530
717.02	63.279
717.34	59.582
717.66	55.034
717.97	53.082
718.29	59.107
718.61	56.579
718.93	56.634
719.24	56.832
719.56	53.681
719.88	53.153
720.20	56.129
720.51	56.522
720.83	50.938
721.15	55.921
721.46	59.932
721.78	55.000
722.10	55.663
722.42	54.362
722.73	55.806
723.05	58.246
723.37	54.514
723.68	55.197
724.00	59.567
724.32	52.465
724.63	55.245
724.95	60.284
725.27	57.491
725.58	55.477
725.90	60.000
726.22	52.665
726.53	58.117
726.85	51.572
727.16	53.172
727.48	55.657
727.80	55.298
728.11	51.943
728.43	56.566
728.74	53.177
729.06	50.662
729.38	54.221
729.69	55.034
730.01	49.107
730.32	49.394
730.64	49.057
730.96	52.174
731.27	51.955
731.59	49.176
731.90	47.792
732.22	47.917
732.53	43.370
732.85	47.429
733.16	51.026
733.48	51.524
733.80	48.468
734.11	47.293
734.43	50.811
734.74	52.658
735.06	48.241
735.37	51.622
735.69	48.108
736.00	49.435
736.32	45.553
736.63	49.167
736.95	48.851
737.26	49.394
737.58	49.697
737.89	48.529
738.21	48.930
738.52	47.213
738.83	52.218
739.15	48.582
739.46	52.381
739.78	51.534
740.09	42.120
740.41	48.688
740.72	50.333
741.04	48.867
741.35	51.930
741.66	48.235
741.98	54.508
742.29	48.954
742.61	56.579
742.92	51.154
743.23	50.542
743.55	55.039
743.86	50.400
744.18	47.934
744.49	50.633
744.80	53.909
745.12	50.633
745.43	52.439
745.74	55.603
746.06	52.966
746.37	52.743
746.68	54.065
747.00	49.167
747.31	51.073
747.62	52.692
747.94	59.109
748.25	46.988
748.56	44.898
748.88	49.573
749.19	52.586
749.50	54.978
749.82	57.831
750.13	49.822
750.44	46.333
750.75	46.154
751.07	46.769
751.38	45.110
751.69	48.562
752.01	46.926
752.32	47.386
752.63	50.000
752.94	45.329
753.26	46.840
753.57	46.296
753.88	49.064
754.19	45.659
754.51	44.373
754.82	49.518
755.13	45.574
755.44	49.488
755.75	47.039
756.07	46.269
756.38	44.654
756.69	46.988
757.00	39.612
757.31	43.169
757.63	41.688
757.94	40.376
758.25	43.341
758.56	41.176
758.87	38.864
759.18	42.400
759.50	45.326
759.81	46.779
760.12	43.396
760.43	45.312
760.74	42.857
761.05	40.750
761.36	43.373
761.67	42.640
761.99	40.541
762.30	42.378
762.61	39.604
762.92	44.030
763.23	45.318
763.54	43.885
763.85	42.955
764.16	46.801
764.47	47.183
764.78	45.367
765.10	42.229
765.41	44.615
765.72	39.683
766.03	41.525
766.34	41.066
766.65	41.463
766.96	43.028
767.27	48.848
767.58	39.801
767.89	51.923
768.20	42.254
768.51	48.611
768.82	48.996
769.13	45.455
769.44	36.923
769.75	45.126
770.06	41.538
770.37	46.457
770.68	39.574
770.99	41.700
771.30	51.852
771.61	42.966
771.92	38.889
772.23	44.939
772.54	34.259
772.85	49.309
773.16	47.619
773.47	35.979
773.78	44.324
774.09	46.023
774.39	45.500
774.70	43.716
775.01	48.171
775.32	35.882
775.63	45.399
775.94	43.312
776.25	49.032
776.56	46.795
776.87	46.259
777.18	43.448
777.48	41.958
777.79	39.865
778.10	45.588
778.41	38.889
778.72	45.517
779.03	41.975
779.34	44.848
779.65	37.306
779.95	50.000
780.26	43.750
780.57	47.097
780.88	42.754
781.19	49.032
781.50	47.647
781.80	45.699
782.11	43.386
782.42	36.869
782.73	42.515
783.04	37.430
783.34	34.545
783.65	41.830
783.96	41.615
784.27	38.095
784.57	45.695
784.88	46.429
785.19	42.520
785.50	39.370
785.81	37.594
786.11	45.385
786.42	35.971
786.73	33.094
787.04	42.105
787.34	42.623
787.65	43.200
787.96	44.030
788.26	48.252
788.57	43.357
788.88	40.132
789.19	46.405
789.49	38.356
789.80	42.553
790.11	40.157
790.41	39.844
790.72	38.983
791.03	35.922
791.33	41.739
791.64	43.860
791.95	30.357
792.25	43.810
792.56	38.393
792.87	39.583
793.17	41.071
793.48	37.500
793.79	34.940
794.09	42.202
794.40	47.706
794.70	36.735
795.01	35.065
795.32	39.041
795.62	39.437
795.93	38.636
796.23	40.164
796.54	41.964
796.85	37.234
797.15	36.957
797.46	32.877
797.76	37.500
798.07	33.696
798.37	32.990
798.68	40.260
798.99	35.632
799.29	46.067
799.60	43.617
799.90	28.916
800.21	44.615
800.51	31.343
800.82	38.235
801.12	46.575
801.43	32.353
801.73	52.542
802.04	57.576
802.34	23.333
802.65	33.898
802.95	43.284
803.26	47.458
803.56	46.575
803.87	45.714
804.17	43.836
804.48	31.579
804.78	26.389
805.09	22.414
805.39	43.243
805.70	16.901
806.00	45.122
806.30	34.940
806.61	38.356
806.91	43.269
807.22	37.778
807.52	31.034
807.83	51.389
808.13	37.349
808.43	33.708
808.74	37.500
809.04	29.412
809.35	45.333
809.65	24.286
809.95	41.096
810.26	42.105
810.56	37.931
810.86	44.118
811.17	26.316
811.47	24.590
811.77	15.556
812.08	25.424
812.38	53.333
812.69	48.276
812.99	37.736
813.29	33.333
813.59	30.000
813.90	28.070
814.20	36.364
814.50	42.254
814.81	35.897
815.11	27.869
815.41	43.284
815.72	48.276
816.02	28.571
816.32	40.000
816.62	50.000
816.93	28.889
817.23	29.630
817.53	14.894
817.84	50.000
818.14	38.235
818.44	53.061
818.74	64.444
819.04	41.026
819.35	2.857
819.65	23.077
819.95	52.830
820.25	60.000
820.56	28.571
820.86	31.250
821.16	17.949
821.46	23.256
821.76	2.000
822.07	37.500
822.37	30.435
822.67	46.809
822.97	24.324
823.27	30.000
823.57	46.939
823.88	53.333
824.18	32.500
824.48	43.333
824.78	60.000
825.08	60.606
825.38	44.444
825.69	29.787
825.99	41.667
826.29	-11.429
826.59	23.077
826.89	32.558
827.19	18.000
827.49	41.176
827.79	27.083
828.09	27.027
828.39	23.333
828.70	9.756
829.00	20.930
829.30	57.143
829.60	38.235
829.90	15.217
830.20	51.429
830.50	17.241
830.80	38.889
831.10	11.538
831.40	38.235
831.70	61.905
832.00	64.516
832.30	-47.059
832.60	-8.333
832.90	-53.846
833.20	26.316
833.50	-10.000
833.80	-10.526
834.10	-28.571
834.40	41.667
834.70	65.625
835.00	5.714
835.30	41.176
835.60	16.667
835.90	48.000
836.20	-9.091
836.50	48.000
836.80	36.364
837.10	18.519
837.40	37.037
837.70	18.750
838.00	3.571
838.30	8.696
838.60	17.241
838.90	92.857
839.19	-21.739
839.49	-33.333
839.79	0.000
840.09	-56.250
840.39	-5.000
840.69	61.290
840.99	28.571
841.29	93.333
841.59	21.053
841.88	38.462
842.18	19.231
842.48	90.000
842.78	35.000
843.08	26.667
843.38	58.065
843.68	0.000
843.97	41.176
844.27	25.000
844.57	-5.263
844.87	-20.000
845.17	33.333
845.47	38.095
845.76	33.333
846.06	33.333
846.36	5.882
846.66	26.923
846.96	20.000
847.25	-5.882
847.55	56.522
847.85	35.000
848.15	47.059
848.44	36.364
848.74	23.810
849.04	0.000
849.34	-18.750
849.63	39.130
849.93	450.000
850.23	86.667
850.53	73.077
850.82	36.364
851.12	31.818
851.42	45.455
851.71	115.385
852.01	0.000
852.31	38.462
852.61	0.000
852.90	8.333
853.20	44.444
853.50	-55.556
853.79	-19.048
854.09	0.000
854.39	0.000
854.68	45.161
854.98	-15.385
855.28	50.000
855.57	14.286
855.87	44.000
856.17	0.000
856.46	62.963
856.76	44.444
857.05	-4.348
857.35	-4.167
857.65	-84.615
857.94	71.429
858.24	70.370
858.53	13.043
858.83	29.412
859.13	-29.412
859.42	-11.765
859.72	85.714
860.01	35.000
860.31	-33.333
860.60	0.000
860.90	-6.667
861.20	38.889
861.49	38.462
861.79	46.667
862.08	0.000
862.38	37.500
862.67	17.647
862.97	81.250
863.26	0.000
863.56	50.000
863.85	-45.455
864.15	22.222
864.44	-66.667
864.74	-28.571
865.03	-56.250
865.33	-60.000
865.62	12.903
865.92	81.818
866.21	47.826
866.51	107.143
866.80	-180.000
867.10	16.667
867.39	-33.333
867.69	100.000
867.98	28.571
868.27	29.412
868.57	-700.000
868.86	0.000
869.16	9.524
869.45	37.500
869.75	9.091
870.04	71.429
870.33	108.333
870.63	-114.286
870.92	200.000
871.22	-162.500
871.51	54.545
871.80	-66.667
872.10	250.000
>>>>>End Processed Spectral Data<<<<<
