SpectraSuite Data File
++++++++++++++++++++++++++++++++++++
Date: Tue May 12 20:00:09 PDT 2015
User: schluterlab
Dark Spectrum Present: Yes
Reference Spectrum Present: Yes
Number of Sampled Component Spectra: 1
Spectrometers: USB2E3373
Integration Time (usec): 3000 (USB2E3373)
Spectra Averaged: 3 (USB2E3373)
Boxcar Smoothing: 0 (USB2E3373)
Correct for Electrical Dark: No (USB2E3373)
Strobe/Lamp Enabled: No (USB2E3373)
Correct for Detector Non-linearity: No (USB2E3373)
Correct for Stray Light: No (USB2E3373)
Number of Pixels in Processed Spectrum: 2048
>>>>>Begin Processed Spectral Data<<<<<
178.53	0.000
178.91	-170.000
179.29	-316.667
179.67	1066.667
180.04	0.000
180.42	-400.000
180.80	-300.000
181.18	1300.000
181.56	-1150.000
181.94	400.000
182.31	2300.000
182.69	-242.857
183.07	0.000
183.45	291.667
183.83	600.000
184.20	350.000
184.58	950.000
184.96	316.667
185.34	-466.667
185.72	-121.429
186.09	-333.333
186.47	-2400.000
186.85	-180.000
187.23	216.667
187.61	-271.429
187.98	-480.000
188.36	850.000
188.74	-425.000
189.12	-222.222
189.49	-170.000
189.87	650.000
190.25	233.333
190.63	500.000
191.00	600.000
191.38	-1133.333
191.76	480.000
192.14	-271.429
192.51	-180.000
192.89	-240.000
193.27	-140.000
193.65	-633.333
194.02	-250.000
194.40	2000.000
194.78	-75.000
195.15	-328.571
195.53	800.000
195.91	360.000
196.29	-525.000
196.66	-400.000
197.04	-271.429
197.42	360.000
197.79	-237.500
198.17	-166.667
198.55	-500.000
198.92	-133.333
199.30	850.000
199.68	-475.000
200.05	-1550.000
200.43	-55.556
200.81	-125.000
201.18	466.667
201.56	-1150.000
201.94	-2100.000
202.31	-116.667
202.69	-100.000
203.07	-141.667
203.44	-475.000
203.82	0.000
204.19	337.500
204.57	-300.000
204.95	309.091
205.32	340.000
205.70	575.000
206.08	-1600.000
206.45	-320.000
206.83	3200.000
207.20	-222.222
207.58	-115.385
207.96	566.667
208.33	1133.333
208.71	666.667
209.08	1350.000
209.46	-155.556
209.84	666.667
210.21	-466.667
210.59	400.000
210.96	322.222
211.34	-425.000
211.71	1450.000
212.09	-280.000
212.46	-325.000
212.84	-175.000
213.22	257.143
213.59	-125.000
213.97	0.000
214.34	-1150.000
214.72	-700.000
215.09	1450.000
215.47	-46.667
215.84	-175.000
216.22	-2100.000
216.59	2100.000
216.97	-58.333
217.34	-66.667
217.72	-72.222
218.09	425.000
218.47	-73.684
218.84	-287.500
219.22	-78.571
219.59	-150.000
219.97	-150.000
220.34	366.667
220.72	209.091
221.09	-1000.000
221.47	0.000
221.84	800.000
222.22	-375.000
222.59	-575.000
222.97	-73.913
223.34	213.333
223.72	400.000
224.09	-250.000
224.46	261.538
224.84	-86.667
225.21	-650.000
225.59	-500.000
225.96	-20.000
226.34	450.000
226.71	320.000
227.08	-207.692
227.46	-285.714
227.83	-125.000
228.21	-1150.000
228.58	400.000
228.95	-89.474
229.33	-56.250
229.70	-450.000
230.08	-200.000
230.45	-933.333
230.82	-2300.000
231.20	-42.857
231.57	-300.000
231.95	-600.000
232.32	177.778
232.69	-1200.000
233.07	-68.750
233.44	-275.000
233.81	-16.129
234.19	-540.000
234.56	-66.667
234.93	-183.333
235.31	-25.926
235.68	-7.407
236.05	-30.769
236.43	-94.737
236.80	-40.909
237.17	-185.714
237.55	-65.000
237.92	-18.605
238.29	-48.387
238.67	-17.857
239.04	0.000
239.41	-25.490
239.79	-26.000
240.16	-10.000
240.53	-24.138
240.91	-19.178
241.28	-9.859
241.65	-1.563
242.02	-3.509
242.40	-1.333
242.77	11.579
243.14	9.412
243.51	11.828
243.89	-0.952
244.26	12.963
244.63	7.143
245.00	3.571
245.38	-5.882
245.75	14.407
246.12	10.156
246.49	5.600
246.87	13.115
247.24	6.338
247.61	9.934
247.98	16.854
248.36	15.094
248.73	14.205
249.10	13.889
249.47	16.667
249.84	15.736
250.22	14.583
250.59	12.921
250.96	16.818
251.33	23.113
251.70	22.936
252.08	22.511
252.45	15.510
252.82	16.456
253.19	17.899
253.56	23.922
253.94	21.951
254.31	24.820
254.68	19.792
255.05	22.848
255.42	18.909
255.79	22.185
256.16	20.486
256.54	23.636
256.91	24.679
257.28	24.351
257.65	24.590
258.02	23.724
258.39	23.263
258.76	24.771
259.14	21.176
259.51	26.479
259.88	24.784
260.25	23.295
260.62	20.225
260.99	22.841
261.36	24.138
261.73	22.667
262.10	19.346
262.47	23.416
262.85	26.992
263.22	23.118
263.59	24.397
263.96	25.849
264.33	21.294
264.70	28.256
265.07	22.167
265.44	28.337
265.81	23.855
266.18	22.717
266.55	25.000
266.92	25.000
267.29	26.889
267.66	23.182
268.03	25.161
268.40	23.570
268.77	24.944
269.14	22.689
269.51	25.566
269.88	25.427
270.25	24.051
270.62	27.101
270.99	25.895
271.36	24.283
271.73	24.583
272.10	25.104
272.47	24.000
272.84	21.656
273.21	22.965
273.58	21.429
273.95	24.303
274.32	24.371
274.69	26.027
275.06	24.578
275.43	22.000
275.80	24.857
276.17	24.704
276.54	25.665
276.91	24.760
277.28	24.178
277.65	23.629
278.02	25.947
278.39	25.590
278.76	26.816
279.13	25.939
279.50	24.729
279.87	25.094
280.23	25.501
280.60	22.792
280.97	25.835
281.34	23.729
281.71	22.202
282.08	24.687
282.45	24.868
282.82	23.569
283.19	25.253
283.56	24.744
283.92	25.276
284.29	23.858
284.66	22.655
285.03	22.127
285.40	26.167
285.77	24.631
286.14	21.395
286.51	22.669
286.87	25.122
287.24	19.551
287.61	21.296
287.98	27.230
288.35	21.705
288.72	22.477
289.08	21.855
289.45	23.089
289.82	19.876
290.19	20.152
290.56	21.418
290.93	21.418
291.29	21.702
291.66	21.348
292.03	22.812
292.40	25.180
292.77	19.971
293.13	20.558
293.50	20.661
293.87	20.527
294.24	20.646
294.60	20.492
294.97	18.560
295.34	20.000
295.71	18.863
296.08	18.716
296.44	20.817
296.81	19.146
297.18	18.241
297.55	19.221
297.91	19.416
298.28	19.182
298.65	19.922
299.02	20.345
299.38	19.133
299.75	20.463
300.12	18.945
300.48	16.784
300.85	18.460
301.22	19.832
301.59	18.127
301.95	20.122
302.32	17.861
302.69	18.193
303.05	17.473
303.42	19.444
303.79	17.303
304.15	17.894
304.52	17.207
304.89	17.926
305.25	19.037
305.62	17.841
305.99	17.021
306.35	18.009
306.72	19.063
307.09	17.410
307.45	17.260
307.82	17.503
308.19	18.702
308.55	19.198
308.92	18.326
309.29	17.887
309.65	17.647
310.02	19.078
310.38	17.697
310.75	18.648
311.12	19.023
311.48	20.247
311.85	17.224
312.22	17.355
312.58	18.127
312.95	17.967
313.31	18.092
313.68	19.067
314.05	19.364
314.41	20.432
314.78	16.683
315.14	18.315
315.51	19.265
315.87	19.238
316.24	19.288
316.61	19.709
316.97	19.706
317.34	20.957
317.70	19.795
318.07	20.636
318.43	21.739
318.80	21.403
319.16	20.224
319.53	21.415
319.89	20.739
320.26	22.026
320.62	23.062
320.99	23.265
321.35	23.518
321.72	24.343
322.08	25.149
322.45	23.964
322.81	27.389
323.18	26.558
323.54	27.583
323.91	27.609
324.27	27.869
324.64	28.772
325.00	29.572
325.37	30.486
325.73	30.201
326.10	32.399
326.46	33.092
326.83	33.245
327.19	33.013
327.56	35.897
327.92	34.028
328.29	35.125
328.65	37.759
329.01	38.899
329.38	39.027
329.74	40.111
330.11	39.143
330.47	40.503
330.84	40.320
331.20	40.943
331.56	41.887
331.93	42.452
332.29	41.721
332.66	42.405
333.02	43.640
333.38	43.566
333.75	43.641
334.11	44.394
334.48	44.007
334.84	44.977
335.20	44.852
335.57	45.958
335.93	46.233
336.29	45.155
336.66	47.359
337.02	46.328
337.38	47.925
337.75	46.273
338.11	47.949
338.47	48.839
338.84	47.790
339.20	47.296
339.56	46.878
339.93	46.486
340.29	48.232
340.65	47.489
341.02	48.716
341.38	48.985
341.74	48.488
342.11	48.630
342.47	48.427
342.83	47.962
343.20	50.044
343.56	49.213
343.92	50.569
344.28	48.285
344.65	48.459
345.01	48.606
345.37	50.427
345.73	48.837
346.10	49.697
346.46	49.353
346.82	49.448
347.19	48.360
347.55	50.595
347.91	50.614
348.27	49.789
348.63	50.475
349.00	50.918
349.36	49.959
349.72	50.657
350.08	50.164
350.45	48.902
350.81	49.711
351.17	48.105
351.53	49.436
351.89	49.914
352.26	49.350
352.62	49.469
352.98	49.372
353.34	50.042
353.70	48.724
354.07	51.730
354.43	49.332
354.79	49.426
355.15	51.009
355.51	52.160
355.87	50.874
356.24	50.980
356.60	49.833
356.96	50.158
357.32	50.370
357.68	49.562
358.04	50.162
358.40	50.900
358.77	51.165
359.13	51.165
359.49	50.720
359.85	51.479
360.21	51.388
360.57	51.276
360.93	50.673
361.29	50.389
361.66	49.211
362.02	50.549
362.38	50.816
362.74	52.037
363.10	51.885
363.46	50.188
363.82	49.694
364.18	50.643
364.54	51.298
364.90	51.111
365.26	51.192
365.62	50.492
365.98	52.624
366.35	51.740
366.71	52.203
367.07	52.325
367.43	50.903
367.79	50.872
368.15	52.039
368.51	51.610
368.87	51.248
369.23	52.006
369.59	51.397
369.95	51.043
370.31	51.970
370.67	51.429
371.03	51.084
371.39	51.813
371.75	49.926
372.11	50.963
372.47	48.924
372.83	49.890
373.19	51.657
373.55	51.198
373.91	50.606
374.27	51.067
374.63	51.473
374.99	50.512
375.35	51.524
375.71	51.220
376.07	49.894
376.42	50.761
376.78	49.965
377.14	50.698
377.50	50.342
377.86	50.557
378.22	51.982
378.58	50.395
378.94	52.325
379.30	49.678
379.66	50.832
380.02	51.875
380.38	50.891
380.74	51.150
381.09	50.127
381.45	51.619
381.81	52.934
382.17	50.358
382.53	51.611
382.89	50.417
383.25	51.680
383.61	51.176
383.97	50.487
384.32	50.774
384.68	51.724
385.04	49.459
385.40	49.776
385.76	50.791
386.12	50.957
386.48	51.076
386.83	50.428
387.19	50.894
387.55	50.777
387.91	50.592
388.27	50.160
388.62	49.093
388.98	51.590
389.34	49.577
389.70	51.090
390.06	51.947
390.42	50.304
390.77	50.369
391.13	50.943
391.49	51.415
391.85	50.299
392.20	51.419
392.56	49.771
392.92	50.216
393.28	49.731
393.64	50.095
393.99	50.974
394.35	50.162
394.71	49.868
395.07	50.199
395.42	50.730
395.78	50.806
396.14	50.500
396.50	48.771
396.85	50.033
397.21	49.677
397.57	49.835
397.92	49.491
398.28	49.341
398.64	49.651
399.00	50.842
399.35	50.176
399.71	48.982
400.07	49.290
400.42	50.128
400.78	49.392
401.14	49.242
401.49	49.719
401.85	50.540
402.21	50.127
402.57	48.036
402.92	48.406
403.28	49.545
403.63	48.654
403.99	50.396
404.35	48.599
404.70	50.032
405.06	49.721
405.42	49.772
405.77	48.811
406.13	48.447
406.49	48.833
406.84	49.502
407.20	49.504
407.55	49.766
407.91	48.881
408.27	48.604
408.62	48.682
408.98	48.777
409.34	48.399
409.69	48.027
410.05	48.575
410.40	48.234
410.76	48.941
411.11	48.739
411.47	49.116
411.83	47.585
412.18	48.233
412.54	47.607
412.89	46.632
413.25	48.715
413.60	47.194
413.96	47.314
414.31	47.546
414.67	47.333
415.03	47.994
415.38	48.468
415.74	46.810
416.09	47.622
416.45	46.992
416.80	47.079
417.16	47.743
417.51	46.704
417.87	48.222
418.22	47.460
418.58	47.754
418.93	46.937
419.29	47.286
419.64	48.077
420.00	46.758
420.35	47.960
420.71	47.951
421.06	47.112
421.42	47.114
421.77	47.747
422.12	46.545
422.48	46.830
422.83	46.869
423.19	47.176
423.54	46.549
423.90	45.488
424.25	48.278
424.61	46.839
424.96	46.929
425.31	48.430
425.67	46.121
426.02	46.584
426.38	47.040
426.73	47.227
427.09	47.209
427.44	47.963
427.79	47.030
428.15	45.466
428.50	47.299
428.85	46.440
429.21	46.264
429.56	45.470
429.92	44.132
430.27	45.173
430.62	45.376
430.98	45.621
431.33	46.329
431.68	46.608
432.04	46.490
432.39	44.860
432.74	45.414
433.10	46.452
433.45	44.902
433.80	45.060
434.16	45.742
434.51	46.823
434.86	45.982
435.22	44.936
435.57	46.504
435.92	44.025
436.28	44.521
436.63	45.498
436.98	45.247
437.34	45.937
437.69	44.259
438.04	46.394
438.39	45.235
438.75	44.677
439.10	45.179
439.45	45.700
439.81	45.333
440.16	45.393
440.51	44.424
440.86	44.886
441.22	44.431
441.57	43.875
441.92	44.892
442.27	44.514
442.63	45.542
442.98	44.621
443.33	44.242
443.68	43.705
444.03	43.144
444.39	43.103
444.74	43.618
445.09	44.982
445.44	44.140
445.79	44.768
446.15	43.615
446.50	43.840
446.85	44.389
447.20	43.818
447.55	43.688
447.91	43.857
448.26	44.154
448.61	43.867
448.96	44.707
449.31	43.520
449.66	42.797
450.02	43.491
450.37	42.953
450.72	42.849
451.07	43.375
451.42	44.401
451.77	44.136
452.12	43.546
452.47	42.886
452.83	43.711
453.18	44.700
453.53	43.632
453.88	43.906
454.23	43.323
454.58	43.342
454.93	42.166
455.28	43.856
455.63	43.665
455.98	43.084
456.34	42.331
456.69	42.857
457.04	42.782
457.39	42.759
457.74	42.415
458.09	42.937
458.44	43.777
458.79	42.815
459.14	42.815
459.49	42.229
459.84	42.628
460.19	41.151
460.54	40.593
460.89	42.118
461.24	41.494
461.59	42.208
461.94	42.078
462.29	41.479
462.64	41.783
462.99	43.655
463.34	41.392
463.69	43.210
464.04	42.591
464.39	42.701
464.74	41.856
465.09	41.608
465.44	40.912
465.79	41.697
466.14	39.916
466.49	40.928
466.84	41.585
467.19	41.326
467.54	40.584
467.89	40.888
468.24	41.035
468.59	40.969
468.94	41.896
469.29	41.453
469.64	41.721
469.99	42.322
470.34	40.028
470.68	40.846
471.03	40.292
471.38	41.735
471.73	41.642
472.08	41.779
472.43	40.941
472.78	40.972
473.13	42.035
473.48	42.185
473.83	41.480
474.17	39.693
474.52	41.795
474.87	41.667
475.22	40.661
475.57	40.717
475.92	40.421
476.27	40.205
476.61	41.017
476.96	40.605
477.31	39.954
477.66	41.139
478.01	40.377
478.36	40.917
478.70	41.127
479.05	39.524
479.40	39.359
479.75	40.494
480.10	39.556
480.45	40.890
480.79	40.062
481.14	39.589
481.49	39.383
481.84	39.798
482.19	39.463
482.53	39.069
482.88	40.417
483.23	40.352
483.58	39.455
483.92	39.397
484.27	39.351
484.62	40.688
484.97	39.587
485.31	38.090
485.66	36.095
486.01	36.270
486.36	36.031
486.70	36.870
487.05	37.443
487.40	36.963
487.75	37.360
488.09	36.059
488.44	37.553
488.79	37.576
489.13	37.032
489.48	38.472
489.83	38.974
490.17	39.006
490.52	38.241
490.87	39.960
491.22	39.398
491.56	40.267
491.91	38.604
492.26	40.082
492.60	40.000
492.95	39.322
493.30	39.258
493.64	38.134
493.99	39.476
494.34	40.091
494.68	38.503
495.03	38.742
495.37	39.027
495.72	38.871
496.07	38.641
496.41	38.735
496.76	38.634
497.11	38.897
497.45	39.930
497.80	39.148
498.14	40.021
498.49	39.509
498.84	38.889
499.18	38.505
499.53	38.733
499.87	38.658
500.22	38.494
500.56	38.462
500.91	39.171
501.26	39.685
501.60	38.532
501.95	38.690
502.29	38.892
502.64	38.128
502.98	37.658
503.33	37.544
503.67	37.723
504.02	38.458
504.36	38.367
504.71	37.394
505.06	38.511
505.40	38.660
505.75	37.441
506.09	38.732
506.44	38.734
506.78	39.026
507.13	38.165
507.47	39.169
507.82	38.449
508.16	38.474
508.51	39.606
508.85	38.571
509.19	38.014
509.54	39.093
509.88	38.493
510.23	39.157
510.57	38.330
510.92	38.889
511.26	37.852
511.61	38.756
511.95	38.462
512.30	39.420
512.64	37.185
512.98	39.516
513.33	38.687
513.67	38.443
514.02	39.423
514.36	39.858
514.70	39.041
515.05	38.354
515.39	40.151
515.74	40.038
516.08	38.418
516.42	39.776
516.77	39.068
517.11	38.165
517.46	40.037
517.80	39.885
518.14	40.164
518.49	40.815
518.83	39.624
519.17	40.231
519.52	40.225
519.86	40.089
520.20	40.064
520.55	40.405
520.89	40.621
521.23	39.212
521.58	39.683
521.92	37.450
522.26	39.038
522.61	40.410
522.95	40.890
523.29	39.339
523.64	39.552
523.98	39.046
524.32	39.933
524.66	39.701
525.01	39.381
525.35	38.988
525.69	40.055
526.04	41.226
526.38	38.725
526.72	38.611
527.06	39.803
527.41	39.192
527.75	40.560
528.09	39.038
528.43	39.476
528.78	39.203
529.12	38.288
529.46	38.605
529.80	37.917
530.15	40.375
530.49	38.075
530.83	38.684
531.17	39.054
531.51	38.758
531.86	38.796
532.20	37.662
532.54	38.705
532.88	38.255
533.22	39.583
533.57	38.759
533.91	38.816
534.25	39.715
534.59	38.721
534.93	37.676
535.27	37.845
535.62	37.812
535.96	38.311
536.30	37.996
536.64	38.054
536.98	38.348
537.32	38.616
537.66	36.950
538.01	39.175
538.35	38.182
538.69	36.306
539.03	38.428
539.37	38.119
539.71	38.478
540.05	38.423
540.39	38.199
540.73	39.414
541.07	39.265
541.42	36.921
541.76	37.698
542.10	37.446
542.44	37.428
542.78	36.950
543.12	36.318
543.46	37.481
543.80	37.670
544.14	36.559
544.48	37.754
544.82	37.899
545.16	37.029
545.50	38.865
545.84	37.162
546.18	38.127
546.52	38.278
546.86	36.496
547.20	36.742
547.54	36.391
547.88	36.895
548.22	36.217
548.56	37.350
548.90	37.614
549.24	37.939
549.58	37.258
549.92	37.519
550.26	38.301
550.60	37.827
550.94	37.302
551.28	38.130
551.62	39.640
551.96	37.859
552.30	37.364
552.64	36.439
552.98	37.816
553.32	37.348
553.66	37.557
554.00	37.761
554.34	37.969
554.68	38.118
555.02	38.571
555.36	36.537
555.69	35.742
556.03	35.994
556.37	36.534
556.71	36.425
557.05	36.875
557.39	37.831
557.73	37.893
558.07	37.872
558.41	36.073
558.75	38.506
559.08	40.085
559.42	38.462
559.76	37.237
560.10	37.571
560.44	36.896
560.78	37.791
561.12	36.739
561.45	36.607
561.79	35.169
562.13	36.768
562.47	36.468
562.81	36.770
563.15	35.513
563.48	36.180
563.82	37.191
564.16	36.430
564.50	35.888
564.84	37.349
565.17	36.552
565.51	35.609
565.85	36.761
566.19	36.186
566.52	36.057
566.86	35.109
567.20	35.263
567.54	35.418
567.88	32.949
568.21	34.584
568.55	33.390
568.89	34.176
569.23	32.731
569.56	32.598
569.90	33.019
570.24	32.112
570.57	31.527
570.91	32.642
571.25	31.646
571.59	30.787
571.92	30.667
572.26	30.207
572.60	30.051
572.93	30.255
573.27	29.916
573.61	30.176
573.95	29.760
574.28	29.655
574.62	29.108
574.96	29.283
575.29	28.627
575.63	28.796
575.97	29.428
576.30	29.468
576.64	29.245
576.98	28.888
577.31	29.566
577.65	29.092
577.98	28.278
578.32	29.007
578.66	28.953
578.99	29.583
579.33	28.765
579.67	29.238
580.00	28.531
580.34	29.080
580.67	29.044
581.01	28.294
581.35	28.187
581.68	28.148
582.02	28.788
582.35	28.364
582.69	28.874
583.02	28.507
583.36	28.205
583.70	29.289
584.03	29.188
584.37	29.375
584.70	28.738
585.04	28.910
585.37	28.290
585.71	28.701
586.04	28.405
586.38	29.175
586.72	28.643
587.05	29.695
587.39	28.711
587.72	29.480
588.06	28.764
588.39	28.893
588.73	29.107
589.06	29.292
589.40	29.989
589.73	30.404
590.07	30.120
590.40	30.130
590.73	30.321
591.07	30.303
591.40	30.059
591.74	29.991
592.07	31.089
592.41	29.944
592.74	30.890
593.08	29.827
593.41	29.448
593.75	29.963
594.08	29.746
594.41	30.068
594.75	29.757
595.08	29.840
595.42	29.591
595.75	29.659
596.09	29.864
596.42	29.598
596.75	30.682
597.09	30.644
597.42	30.643
597.75	30.769
598.09	29.963
598.42	30.336
598.76	29.690
599.09	29.328
599.42	29.190
599.76	29.580
600.09	29.775
600.42	29.180
600.76	29.446
601.09	29.255
601.42	29.026
601.76	29.099
602.09	29.661
602.42	30.178
602.76	29.843
603.09	30.026
603.42	29.898
603.76	29.878
604.09	29.825
604.42	29.326
604.76	30.351
605.09	29.287
605.42	29.621
605.75	28.917
606.09	29.556
606.42	29.221
606.75	29.840
607.09	30.224
607.42	30.106
607.75	29.844
608.08	29.841
608.42	30.068
608.75	29.765
609.08	29.732
609.41	31.052
609.75	30.332
610.08	30.233
610.41	30.738
610.74	29.019
611.07	30.090
611.41	29.872
611.74	30.033
612.07	30.971
612.40	31.253
612.73	30.556
613.07	30.358
613.40	31.052
613.73	30.641
614.06	29.391
614.39	31.400
614.72	30.579
615.06	30.884
615.39	31.005
615.72	30.067
616.05	30.493
616.38	31.020
616.71	29.540
617.05	30.842
617.38	31.419
617.71	30.568
618.04	31.735
618.37	31.589
618.70	31.386
619.03	33.575
619.36	32.474
619.69	32.115
620.03	33.715
620.36	32.351
620.69	32.446
621.02	32.858
621.35	33.362
621.68	32.763
622.01	33.868
622.34	32.412
622.67	33.811
623.00	32.760
623.33	33.937
623.66	33.147
623.99	32.695
624.32	31.851
624.65	32.109
624.99	32.734
625.32	33.254
625.65	32.186
625.98	34.833
626.31	33.333
626.64	34.324
626.97	35.386
627.30	35.741
627.63	33.953
627.96	33.706
628.29	32.792
628.62	33.299
628.95	35.269
629.28	35.227
629.61	36.155
629.94	36.100
630.26	34.519
630.59	35.916
630.92	33.720
631.25	35.754
631.58	35.465
631.91	35.194
632.24	37.160
632.57	36.623
632.90	37.761
633.23	37.548
633.56	36.855
633.89	37.071
634.22	38.333
634.55	36.399
634.88	37.885
635.20	38.630
635.53	39.665
635.86	38.723
636.19	37.381
636.52	38.140
636.85	35.593
637.18	38.083
637.51	37.398
637.83	36.453
638.16	39.118
638.49	38.184
638.82	37.131
639.15	36.286
639.48	36.972
639.81	39.791
640.13	37.519
640.46	38.110
640.79	38.140
641.12	40.465
641.45	38.103
641.77	38.694
642.10	39.577
642.43	37.879
642.76	40.681
643.09	39.792
643.41	39.964
643.74	37.847
644.07	38.272
644.40	39.892
644.73	39.227
645.05	43.702
645.38	42.115
645.71	41.031
646.04	40.520
646.36	39.015
646.69	39.072
647.02	42.578
647.35	41.800
647.67	44.489
648.00	41.165
648.33	36.609
648.66	39.889
648.98	38.644
649.31	38.210
649.64	39.071
649.96	37.162
650.29	36.991
650.62	40.074
650.94	39.741
651.27	38.150
651.60	38.432
651.92	39.122
652.25	35.755
652.58	37.522
652.90	36.121
653.23	37.112
653.56	37.674
653.88	35.766
654.21	36.106
654.54	39.212
654.86	37.050
655.19	35.323
655.52	34.744
655.84	28.767
656.17	26.451
656.49	34.890
656.82	38.683
657.15	30.344
657.47	23.106
657.80	17.416
658.13	14.874
658.45	24.898
658.78	24.361
659.10	23.915
659.43	24.117
659.75	23.720
660.08	25.033
660.41	26.259
660.73	28.532
661.06	32.364
661.38	38.105
661.71	40.044
662.03	39.815
662.36	38.186
662.68	38.609
663.01	38.221
663.33	41.274
663.66	39.474
663.98	44.743
664.31	33.902
664.63	38.073
664.96	43.230
665.28	38.534
665.61	39.486
665.93	39.401
666.26	36.645
666.58	41.284
666.91	40.515
667.23	41.379
667.56	41.481
667.88	42.607
668.21	39.340
668.53	40.102
668.86	42.347
669.18	37.817
669.50	45.244
669.83	39.250
670.15	38.250
670.48	38.847
670.80	40.609
671.13	37.349
671.45	36.224
671.77	38.164
672.10	36.923
672.42	34.861
672.75	37.087
673.07	34.579
673.39	36.381
673.72	36.157
674.04	35.319
674.37	36.952
674.69	38.084
675.01	39.302
675.34	36.765
675.66	35.000
675.98	40.657
676.31	37.783
676.63	38.144
676.95	34.293
677.28	38.861
677.60	39.348
677.92	41.353
678.25	34.803
678.57	34.803
678.89	37.385
679.22	36.009
679.54	36.080
679.86	36.188
680.18	33.054
680.51	34.292
680.83	32.292
681.15	40.959
681.48	34.468
681.80	33.261
682.12	35.546
682.44	31.466
682.77	36.136
683.09	34.559
683.41	38.596
683.73	41.457
684.06	36.548
684.38	35.731
684.70	40.416
685.02	35.065
685.34	33.264
685.67	34.585
685.99	33.733
686.31	34.328
686.63	33.204
686.96	33.740
687.28	33.060
687.60	35.524
687.92	34.599
688.24	34.105
688.56	33.187
688.89	33.333
689.21	31.163
689.53	33.760
689.85	35.190
690.17	35.049
690.49	34.353
690.82	36.609
691.14	36.815
691.46	37.000
691.78	33.014
692.10	37.156
692.42	34.404
692.74	36.256
693.06	31.807
693.39	33.498
693.71	33.256
694.03	33.333
694.35	28.713
694.67	36.387
694.99	37.197
695.31	36.827
695.63	35.405
695.95	38.202
696.27	41.076
696.59	35.608
696.91	33.903
697.23	34.670
697.56	37.306
697.88	30.913
698.20	30.993
698.52	30.529
698.84	33.333
699.16	34.828
699.48	35.864
699.80	32.692
700.12	32.507
700.44	33.333
700.76	32.808
701.08	28.571
701.40	39.145
701.72	35.333
702.04	37.075
702.36	38.033
702.68	38.591
703.00	34.385
703.32	28.144
703.64	34.069
703.96	32.911
704.28	34.155
704.60	38.014
704.91	37.500
705.23	32.982
705.55	30.112
705.87	38.129
706.19	37.052
706.51	39.062
706.83	38.095
707.15	31.864
707.47	31.437
707.79	31.232
708.11	34.921
708.43	34.667
708.74	30.328
709.06	35.276
709.38	33.531
709.70	28.247
710.02	37.413
710.34	31.915
710.66	35.581
710.98	37.762
711.29	34.364
711.61	29.433
711.93	35.581
712.25	35.472
712.57	36.328
712.89	36.327
713.20	31.048
713.52	34.553
713.84	35.036
714.16	33.784
714.48	36.860
714.80	34.007
715.11	30.584
715.43	27.986
715.75	36.140
716.07	35.273
716.39	35.836
716.70	33.600
717.02	31.048
717.34	35.498
717.66	34.091
717.97	28.241
718.29	31.556
718.61	32.432
718.93	32.353
719.24	30.126
719.56	34.821
719.88	29.020
720.20	30.769
720.51	28.947
720.83	33.054
721.15	29.388
721.46	28.270
721.78	23.810
722.10	37.209
722.42	30.000
722.73	28.507
723.05	32.258
723.37	33.032
723.68	35.071
724.00	35.185
724.32	29.439
724.63	32.579
724.95	34.247
725.27	29.577
725.58	36.530
725.90	25.225
726.22	29.258
726.53	28.689
726.85	32.222
727.16	30.769
727.48	32.258
727.80	28.311
728.11	34.667
728.43	25.514
728.74	31.579
729.06	30.131
729.38	32.946
729.69	25.200
730.01	30.126
730.32	28.685
730.64	26.154
730.96	27.027
731.27	31.274
731.59	27.946
731.90	28.947
732.22	31.894
732.53	23.509
732.85	22.887
733.16	31.136
733.48	25.373
733.80	33.091
734.11	31.206
734.43	27.076
734.74	26.480
735.06	32.476
735.37	23.962
735.69	22.887
736.00	22.963
736.32	29.720
736.63	30.000
736.95	25.292
737.26	28.623
737.58	27.737
737.89	28.679
738.21	28.626
738.52	28.279
738.83	19.658
739.15	31.818
739.46	27.027
739.78	23.166
740.09	28.571
740.41	28.030
740.72	26.295
741.04	24.901
741.35	35.426
741.66	30.645
741.98	27.041
742.29	30.052
742.61	22.543
742.92	27.941
743.23	32.338
743.55	26.425
743.86	29.952
744.18	20.000
744.49	32.778
744.80	27.419
745.12	27.179
745.43	29.947
745.74	35.294
746.06	31.034
746.37	25.000
746.68	29.730
747.00	28.177
747.31	25.654
747.62	31.053
747.94	25.472
748.25	28.571
748.56	29.293
748.88	37.158
749.19	30.570
749.50	35.294
749.82	29.500
750.13	34.466
750.44	25.751
750.75	28.800
751.07	25.941
751.38	22.266
751.69	32.937
752.01	22.689
752.32	25.620
752.63	24.891
752.94	24.000
753.26	24.658
753.57	25.592
753.88	28.837
754.19	23.789
754.51	20.502
754.82	24.583
755.13	20.796
755.44	28.139
755.75	24.096
756.07	29.614
756.38	29.707
756.69	32.830
757.00	28.723
757.31	26.990
757.63	30.392
757.94	22.424
758.25	25.893
758.56	25.405
758.87	24.702
759.18	30.218
759.50	25.623
759.81	27.027
760.12	24.555
760.43	26.910
760.74	25.150
761.05	25.321
761.36	27.003
761.67	24.012
761.99	22.742
762.30	24.727
762.61	31.301
762.92	25.778
763.23	29.767
763.54	32.995
763.85	32.579
764.16	23.043
764.47	29.565
764.78	26.210
765.10	24.803
765.41	24.749
765.72	24.415
766.03	27.759
766.34	22.727
766.65	30.078
766.96	25.778
767.27	28.492
767.58	29.560
767.89	20.779
768.20	18.919
768.51	24.138
768.82	17.500
769.13	27.315
769.44	25.472
769.75	21.569
770.06	21.359
770.37	23.404
770.68	21.026
770.99	28.426
771.30	24.742
771.61	18.386
771.92	26.887
772.23	17.308
772.54	21.765
772.85	19.863
773.16	20.000
773.47	18.471
773.78	24.551
774.09	19.079
774.39	11.029
774.70	19.549
775.01	20.000
775.32	22.222
775.63	32.283
775.94	13.208
776.25	17.778
776.56	16.364
776.87	25.641
777.18	26.000
777.48	21.154
777.79	14.815
778.10	28.302
778.41	26.471
778.72	18.868
779.03	18.421
779.34	12.605
779.65	28.873
779.95	23.741
780.26	19.355
780.57	23.188
780.88	14.679
781.19	18.519
781.50	23.770
781.80	29.197
782.11	21.154
782.42	15.862
782.73	27.972
783.04	23.200
783.34	16.000
783.65	25.203
783.96	12.295
784.27	17.647
784.57	20.561
784.88	16.964
785.19	13.402
785.50	13.684
785.81	22.000
786.11	12.871
786.42	-5.882
786.73	22.917
787.04	15.306
787.34	18.519
787.65	22.642
787.96	2.062
788.26	8.911
788.57	16.522
788.88	6.422
789.19	23.967
789.49	15.652
789.80	29.310
790.11	2.439
790.41	11.236
790.72	25.581
791.03	13.953
791.33	-5.195
791.64	10.976
791.95	13.415
792.25	-6.024
792.56	9.877
792.87	1.408
793.17	4.819
793.48	21.176
793.79	16.250
794.09	0.000
794.40	22.826
794.70	20.000
795.01	7.339
795.32	10.236
795.62	5.882
795.93	15.686
796.23	13.131
796.54	12.791
796.85	4.348
797.15	-1.562
797.46	-6.780
797.76	3.279
798.07	3.947
798.37	-6.452
798.68	-10.937
798.99	12.308
799.29	10.606
799.60	1.449
799.90	17.143
800.21	-7.018
800.51	-6.897
800.82	1.887
801.12	1.961
801.43	6.452
801.73	12.903
802.04	0.000
802.34	-7.547
802.65	7.895
802.95	18.182
803.26	3.774
803.56	11.475
803.87	8.000
804.17	3.704
804.48	3.846
804.78	-16.327
805.09	8.511
805.39	16.949
805.70	-20.833
806.00	17.857
806.30	5.085
806.61	4.615
806.91	-7.692
807.22	-10.526
807.52	8.571
807.83	-12.069
808.13	2.532
808.43	6.557
808.74	9.836
809.04	5.405
809.35	-3.704
809.65	1.786
809.95	-1.695
810.26	-10.204
810.56	-18.868
810.86	13.725
811.17	-10.811
811.47	-85.185
811.77	-11.765
812.08	-36.364
812.38	-41.667
812.69	-33.333
812.99	19.048
813.29	13.043
813.59	-20.000
813.90	-4.762
814.20	-7.273
814.50	-2.041
814.81	-13.725
815.11	0.000
815.41	-12.195
815.72	-57.692
816.02	2.128
816.32	18.750
816.62	-12.121
816.93	-45.455
817.23	-10.811
817.53	-20.588
817.84	12.500
818.14	-32.353
818.44	-15.625
818.74	-28.571
819.04	-40.000
819.35	-8.571
819.65	4.545
819.95	15.385
820.25	-38.889
820.56	-27.586
820.86	-10.714
821.16	-39.130
821.46	-9.524
821.76	-3.704
822.07	-30.435
822.37	-16.327
822.67	-18.605
822.97	-26.087
823.27	-42.308
823.57	3.704
823.88	-39.286
824.18	5.128
824.48	7.143
824.78	-6.061
825.08	-106.667
825.38	-7.500
825.69	-77.778
825.99	-18.519
826.29	22.222
826.59	-22.222
826.89	-22.222
827.19	-32.143
827.49	-50.000
827.79	-118.182
828.09	-36.364
828.39	-39.130
828.70	-74.074
829.00	-32.143
829.30	-14.286
829.60	29.032
829.90	-42.308
830.20	7.692
830.50	-36.364
830.80	-90.476
831.10	-33.333
831.40	-78.571
831.70	-48.148
832.00	-41.176
832.30	-17.391
832.60	4.167
832.90	-154.545
833.20	-88.889
833.50	-6.250
833.80	-19.231
834.10	24.000
834.40	-79.167
834.70	-54.545
835.00	-19.231
835.30	-30.000
835.60	-90.000
835.90	-65.000
836.20	-121.429
836.50	-34.783
836.80	-94.444
837.10	-80.000
837.40	-210.000
837.70	-82.609
838.00	-100.000
838.30	2600.000
838.60	-8.000
838.90	-300.000
839.19	-155.556
839.49	-950.000
839.79	-105.882
840.09	-100.000
840.39	-35.714
840.69	-72.222
840.99	-183.333
841.29	-24.138
841.59	-133.333
841.88	-163.636
842.18	-366.667
842.48	0.000
842.78	-38.462
843.08	-64.706
843.38	-35.000
843.68	-38.462
843.97	-70.588
844.27	-150.000
844.57	-25.000
844.87	-136.364
845.17	-57.895
845.47	-50.000
845.76	-22.222
846.06	-85.714
846.36	-57.143
846.66	-200.000
846.96	-75.000
847.25	-420.000
847.55	-162.500
847.85	-146.667
848.15	-200.000
848.44	-42.105
848.74	-33.333
849.04	-57.895
849.34	-333.333
849.63	-283.333
849.93	-17.647
850.23	-127.273
850.53	-533.333
850.82	-340.000
851.12	-222.222
851.42	-300.000
851.71	-300.000
852.01	-107.143
852.31	-666.667
852.61	-130.769
852.90	-300.000
853.20	-200.000
853.50	-211.111
853.79	-230.000
854.09	-95.000
854.39	-105.263
854.68	-105.000
854.98	-250.000
855.28	-33.333
855.57	-171.429
855.87	-121.053
856.17	-150.000
856.46	-26.923
856.76	-100.000
857.05	-93.750
857.35	-41.667
857.65	-72.222
857.94	-100.000
858.24	-39.130
858.53	-180.000
858.83	-366.667
859.13	-181.818
859.42	-290.000
859.72	300.000
860.01	-107.692
860.31	-200.000
860.60	-200.000
860.90	-625.000
861.20	-283.333
861.49	-400.000
861.79	1200.000
862.08	-9.677
862.38	-94.737
862.67	-115.385
862.97	-140.000
863.26	-141.667
863.56	-78.261
863.85	-316.667
864.15	-85.714
864.44	-75.000
864.74	-100.000
865.03	-33.333
865.33	-133.333
865.62	-1900.000
865.92	-1000.000
866.21	-316.667
866.51	-127.273
866.80	-1000.000
867.10	-185.714
867.39	-133.333
867.69	-133.333
867.98	440.000
868.27	-775.000
868.57	725.000
868.86	-6.667
869.16	-69.231
869.45	1500.000
869.75	-350.000
870.04	-283.333
870.33	-88.235
870.63	-285.714
870.92	34.783
871.22	-225.000
871.51	640.000
871.80	-75.000
872.10	-600.000
>>>>>End Processed Spectral Data<<<<<
