SpectraSuite Data File
++++++++++++++++++++++++++++++++++++
Date: Tue May 12 19:58:18 PDT 2015
User: schluterlab
Dark Spectrum Present: Yes
Reference Spectrum Present: Yes
Number of Sampled Component Spectra: 1
Spectrometers: USB2E3373
Integration Time (usec): 3000 (USB2E3373)
Spectra Averaged: 3 (USB2E3373)
Boxcar Smoothing: 0 (USB2E3373)
Correct for Electrical Dark: No (USB2E3373)
Strobe/Lamp Enabled: No (USB2E3373)
Correct for Detector Non-linearity: No (USB2E3373)
Correct for Stray Light: No (USB2E3373)
Number of Pixels in Processed Spectrum: 2048
>>>>>Begin Processed Spectral Data<<<<<
178.53	0.000
178.91	-110.000
179.29	-250.000
179.67	533.333
180.04	0.000
180.42	-380.000
180.80	-433.333
181.18	1100.000
181.56	-750.000
181.94	533.333
182.31	2500.000
182.69	-214.286
183.07	0.000
183.45	350.000
183.83	520.000
184.20	500.000
184.58	1050.000
184.96	483.333
185.34	-600.000
185.72	-57.143
186.09	-333.333
186.47	-1200.000
186.85	-280.000
187.23	133.333
187.61	-257.143
187.98	-400.000
188.36	1150.000
188.74	-400.000
189.12	-100.000
189.49	-160.000
189.87	450.000
190.25	244.444
190.63	900.000
191.00	300.000
191.38	-966.667
191.76	480.000
192.14	-100.000
192.51	-140.000
192.89	-280.000
193.27	-200.000
193.65	-566.667
194.02	-166.667
194.40	1900.000
194.78	-250.000
195.15	-328.571
195.53	500.000
195.91	460.000
196.29	-725.000
196.66	-700.000
197.04	-314.286
197.42	360.000
197.79	-150.000
198.17	-83.333
198.55	-100.000
198.92	-222.222
199.30	900.000
199.68	-325.000
200.05	-1200.000
200.43	-83.333
200.81	-200.000
201.18	500.000
201.56	-950.000
201.94	-2800.000
202.31	-166.667
202.69	-88.889
203.07	-58.333
203.44	-625.000
203.82	0.000
204.19	275.000
204.57	-700.000
204.95	227.273
205.32	420.000
205.70	550.000
206.08	-1500.000
206.45	-500.000
206.83	3200.000
207.20	-233.333
207.58	-84.615
207.96	433.333
208.33	900.000
208.71	833.333
209.08	1500.000
209.46	-177.778
209.84	966.667
210.21	-900.000
210.59	1100.000
210.96	300.000
211.34	-400.000
211.71	1350.000
212.09	-340.000
212.46	-212.500
212.84	-225.000
213.22	314.286
213.59	-250.000
213.97	0.000
214.34	-700.000
214.72	-1300.000
215.09	900.000
215.47	-40.000
215.84	-225.000
216.22	-1700.000
216.59	1900.000
216.97	-83.333
217.34	-400.000
217.72	-33.333
218.09	625.000
218.47	-89.474
218.84	-162.500
219.22	-42.857
219.59	-250.000
219.97	-150.000
220.34	383.333
220.72	209.091
221.09	-1250.000
221.47	0.000
221.84	450.000
222.22	-425.000
222.59	-550.000
222.97	0.000
223.34	260.000
223.72	300.000
224.09	-366.667
224.46	215.385
224.84	-100.000
225.21	-950.000
225.59	-575.000
225.96	20.000
226.34	400.000
226.71	270.000
227.08	-215.385
227.46	-228.571
227.83	-58.333
228.21	-1650.000
228.58	433.333
228.95	-52.632
229.33	-100.000
229.70	-433.333
230.08	-200.000
230.45	-766.667
230.82	-2200.000
231.20	-52.381
231.57	-560.000
231.95	-1033.333
232.32	322.222
232.69	-1550.000
233.07	-87.500
233.44	-200.000
233.81	-22.581
234.19	-480.000
234.56	-72.222
234.93	-416.667
235.31	-40.741
235.68	-62.963
236.05	-57.692
236.43	-110.526
236.80	-72.727
237.17	-221.429
237.55	-145.000
237.92	-23.256
238.29	-35.484
238.67	-50.000
239.04	-34.286
239.41	-45.098
239.79	-36.000
240.16	-47.500
240.53	-44.828
240.91	-27.397
241.28	-23.944
241.65	-21.875
242.02	-28.070
242.40	-29.333
242.77	-10.526
243.14	-5.882
243.51	-23.656
243.89	-17.143
244.26	-10.185
244.63	-17.347
245.00	-17.857
245.38	-21.008
245.75	-15.254
246.12	-11.719
246.49	-16.000
246.87	-19.672
247.24	-12.676
247.61	-13.245
247.98	-6.742
248.36	-13.208
248.73	-11.364
249.10	-10.000
249.47	-13.021
249.84	-7.614
250.22	-8.333
250.59	-14.045
250.96	-10.909
251.33	-5.189
251.70	-4.128
252.08	-5.628
252.45	-5.714
252.82	-12.236
253.19	-8.171
253.56	-4.314
253.94	-4.878
254.31	-0.360
254.68	-3.819
255.05	-1.987
255.42	-6.909
255.79	0.000
256.16	-4.861
256.54	-4.545
256.91	-3.205
257.28	-3.896
257.65	-8.197
258.02	-5.706
258.39	-2.417
258.76	-3.364
259.14	-3.824
259.51	-1.690
259.88	-4.899
260.25	-6.250
260.62	-4.494
260.99	-3.064
261.36	-5.747
261.73	-4.533
262.10	-4.087
262.47	-4.683
262.85	-2.057
263.22	-5.108
263.59	-1.877
263.96	-3.394
264.33	-7.008
264.70	-6.880
265.07	-2.956
265.44	0.000
265.81	-0.964
266.18	-3.513
266.55	-2.619
266.92	-2.232
267.29	-4.000
267.66	-5.682
268.03	-3.226
268.40	-6.636
268.77	-3.563
269.14	-2.941
269.51	-2.715
269.88	-2.137
270.25	-2.743
270.62	-1.050
270.99	-3.368
271.36	-3.753
271.73	-2.917
272.10	-2.282
272.47	-4.000
272.84	-6.157
273.21	-3.132
273.58	-5.306
273.95	-3.187
274.32	-1.934
274.69	-1.566
275.06	-2.814
275.43	-4.800
275.80	-2.486
276.17	-4.348
276.54	0.000
276.91	-1.919
277.28	-3.095
277.65	-2.836
278.02	-3.788
278.39	-1.089
278.76	-1.117
279.13	-1.252
279.50	-1.444
279.87	-3.396
280.23	-2.732
280.60	-2.297
280.97	-2.285
281.34	-2.034
281.71	-4.085
282.08	-3.220
282.45	-3.880
282.82	-2.862
283.19	-1.178
283.56	-1.195
283.92	-2.054
284.29	-0.508
284.66	-3.009
285.03	-4.460
285.40	-1.167
285.77	-3.612
286.14	-2.853
286.51	-2.733
286.87	-0.324
287.24	-3.526
287.61	-2.623
287.98	-0.939
288.35	-0.930
288.72	-1.529
289.08	-4.717
289.45	-2.340
289.82	-2.795
290.19	-2.121
290.56	-1.302
290.93	-3.102
291.29	-2.128
291.66	-0.421
292.03	-0.574
292.40	-0.432
292.77	-1.895
293.13	-0.734
293.50	-1.653
293.87	-1.664
294.24	-2.528
294.60	-0.820
294.97	-3.324
295.34	-0.959
295.71	-4.161
296.08	-2.186
296.44	-1.449
296.81	-2.070
297.18	0.129
297.55	-2.010
297.91	-1.523
298.28	-0.384
298.65	-1.682
299.02	-0.617
299.38	-1.786
299.75	-0.901
300.12	-0.959
300.48	-1.408
300.85	-1.711
301.22	-0.240
301.59	-1.460
301.95	-0.610
302.32	-1.458
302.69	-1.902
303.05	-1.889
303.42	-2.295
303.79	-1.124
304.15	-0.453
304.52	-0.670
304.89	-2.255
305.25	-1.376
305.62	-1.364
305.99	-2.464
306.35	-1.790
306.72	-0.980
307.09	-1.741
307.45	-0.539
307.82	-0.640
308.19	-0.220
308.55	-0.633
308.92	-2.331
309.29	-0.105
309.65	-0.929
310.02	0.000
310.38	-0.426
310.75	0.102
311.12	-1.322
311.48	-1.336
311.85	-0.912
312.22	-0.723
312.58	-0.101
312.95	-1.027
313.31	-0.688
313.68	-0.199
314.05	0.497
314.41	0.000
314.78	-0.603
315.14	0.294
315.51	0.993
315.87	1.270
316.24	0.692
316.61	1.165
316.97	0.000
317.34	1.244
317.70	0.187
318.07	-0.193
318.43	1.701
318.80	1.457
319.16	1.398
319.53	1.321
319.89	1.136
320.26	1.770
320.62	2.713
320.99	1.939
321.35	3.261
321.72	2.727
322.08	2.574
322.45	3.057
322.81	3.842
323.18	3.547
323.54	3.412
323.91	3.985
324.27	2.604
324.64	3.749
325.00	4.459
325.37	5.216
325.73	4.562
326.10	4.466
326.46	4.714
326.83	6.684
327.19	6.725
327.56	7.515
327.92	4.948
328.29	6.452
328.65	7.156
329.01	7.431
329.38	6.336
329.74	7.614
330.11	6.803
330.47	9.032
330.84	7.895
331.20	7.763
331.56	7.170
331.93	7.777
332.29	7.771
332.66	8.409
333.02	8.728
333.38	9.375
333.75	9.790
334.11	8.409
334.48	9.392
334.84	8.826
335.20	8.236
335.57	9.718
335.93	9.767
336.29	7.861
336.66	9.654
337.02	9.519
337.38	8.585
337.75	9.909
338.11	9.480
338.47	9.471
338.84	9.024
339.20	9.716
339.56	8.667
339.93	9.009
340.29	9.157
340.65	10.046
341.02	9.212
341.38	9.532
341.74	9.875
342.11	9.019
342.47	9.528
342.83	9.801
343.20	9.107
343.56	8.741
343.92	9.711
344.28	9.005
344.65	9.675
345.01	9.321
345.37	9.744
345.73	8.355
346.10	10.199
346.46	8.456
346.82	8.666
347.19	8.326
347.55	10.034
347.91	9.009
348.27	10.531
348.63	8.643
349.00	9.683
349.36	10.140
349.72	8.703
350.08	9.329
350.45	9.520
350.81	9.249
351.17	8.814
351.53	9.098
351.89	8.981
352.26	8.862
352.62	9.485
352.98	9.372
353.34	8.939
353.70	8.724
354.07	10.214
354.43	8.013
354.79	9.344
355.15	8.717
355.51	8.557
355.87	9.326
356.24	10.948
356.60	9.349
356.96	8.689
357.32	9.218
357.68	9.467
358.04	9.319
358.40	9.738
358.77	8.996
359.13	9.880
359.49	9.040
359.85	9.672
360.21	8.089
360.57	9.011
360.93	9.976
361.29	9.579
361.66	9.858
362.02	9.262
362.38	9.479
362.74	10.530
363.10	8.899
363.46	9.180
363.82	8.270
364.18	9.387
364.54	9.237
364.90	9.333
365.26	9.091
365.62	9.841
365.98	9.820
366.35	9.758
366.71	9.858
367.07	10.480
367.43	8.809
367.79	8.503
368.15	8.525
368.51	9.438
368.87	9.178
369.23	9.690
369.59	9.265
369.95	8.420
370.31	9.091
370.67	9.774
371.03	8.514
371.39	10.196
371.75	8.767
372.11	9.333
372.47	9.057
372.83	10.226
373.19	8.735
373.55	9.057
373.91	8.258
374.27	9.566
374.63	9.499
374.99	8.272
375.35	8.999
375.71	9.110
376.07	8.481
376.42	9.059
376.78	8.084
377.14	8.799
377.50	8.618
377.86	8.983
378.22	9.247
378.58	9.408
378.94	8.906
379.30	9.266
379.66	8.835
380.02	8.264
380.38	8.969
380.74	9.012
381.09	8.259
381.45	8.698
381.81	8.801
382.17	8.730
382.53	8.416
382.89	7.569
383.25	7.990
383.61	7.692
383.97	7.667
384.32	8.129
384.68	8.365
385.04	7.702
385.40	7.348
385.76	8.159
386.12	8.053
386.48	8.089
386.83	6.978
387.19	7.471
387.55	7.060
387.91	6.978
388.27	6.654
388.62	7.578
388.98	7.634
389.34	6.701
389.70	7.500
390.06	7.459
390.42	6.626
390.77	7.981
391.13	6.571
391.49	7.480
391.85	7.053
392.20	7.129
392.56	6.483
392.92	7.050
393.28	7.301
393.64	7.093
393.99	5.974
394.35	6.554
394.71	6.490
395.07	6.565
395.42	5.968
395.78	6.452
396.14	5.596
396.50	7.245
396.85	5.552
397.21	6.145
397.57	5.135
397.92	5.980
398.28	6.475
398.64	5.333
399.00	6.384
399.35	6.389
399.71	5.689
400.07	5.744
400.42	6.346
400.78	6.014
401.14	5.997
401.49	5.434
401.85	6.349
402.21	6.282
402.57	5.087
402.92	5.843
403.28	5.852
403.63	6.090
403.99	5.746
404.35	5.287
404.70	4.560
405.06	5.208
405.42	4.750
405.77	4.518
406.13	5.078
406.49	4.353
406.84	5.791
407.20	4.895
407.55	3.941
407.91	4.336
408.27	4.787
408.62	5.016
408.98	5.985
409.34	4.609
409.69	4.816
410.05	4.080
410.40	3.918
410.76	4.732
411.11	4.137
411.47	4.422
411.83	4.379
412.18	4.254
412.54	4.851
412.89	4.469
413.25	4.765
413.60	4.401
413.96	4.660
414.31	4.015
414.67	4.524
415.03	4.426
415.38	4.526
415.74	4.298
416.09	4.066
416.45	4.246
416.80	4.103
417.16	4.443
417.51	4.511
417.87	4.446
418.22	4.078
418.58	4.561
418.93	4.771
419.29	4.071
419.64	4.739
420.00	4.388
420.35	5.085
420.71	4.609
421.06	4.867
421.42	5.270
421.77	4.629
422.12	4.253
422.48	4.969
422.83	4.195
423.19	5.059
423.54	4.704
423.90	4.512
424.25	4.653
424.61	4.581
424.96	5.221
425.31	4.469
425.67	4.121
426.02	4.286
426.38	4.376
426.73	5.171
427.09	4.202
427.44	5.123
427.79	5.941
428.15	5.010
428.50	5.088
428.85	4.811
429.21	6.097
429.56	4.807
429.92	5.949
430.27	5.387
430.62	5.030
430.98	5.750
431.33	4.950
431.68	5.416
432.04	5.293
432.39	4.813
432.74	5.819
433.10	5.943
433.45	5.256
433.80	6.726
434.16	5.524
434.51	5.518
434.86	5.438
435.22	5.995
435.57	6.464
435.92	5.944
436.28	5.106
436.63	6.380
436.98	5.926
437.34	6.078
437.69	5.741
438.04	5.649
438.39	5.679
438.75	6.031
439.10	7.619
439.45	6.547
439.81	6.349
440.16	5.504
440.51	6.134
440.86	6.566
441.22	6.373
441.57	6.439
441.92	6.019
442.27	6.629
442.63	6.716
442.98	6.663
443.33	7.462
443.68	7.099
444.03	7.010
444.39	6.663
444.74	6.812
445.09	6.612
445.44	6.472
445.79	7.012
446.15	6.822
446.50	7.519
446.85	6.436
447.20	7.002
447.55	6.574
447.91	6.643
448.26	7.596
448.61	7.130
448.96	6.742
449.31	7.354
449.66	6.780
450.02	7.041
450.37	6.561
450.72	7.361
451.07	6.790
451.42	7.642
451.77	6.747
452.12	6.642
452.47	7.453
452.83	7.472
453.18	7.292
453.53	7.773
453.88	7.084
454.23	7.412
454.58	8.225
454.93	6.676
455.28	7.060
455.63	7.083
455.98	7.487
456.34	6.966
456.69	6.838
457.04	7.546
457.39	7.179
457.74	6.574
458.09	7.405
458.44	7.848
458.79	7.774
459.14	8.050
459.49	7.898
459.84	8.205
460.19	8.130
460.54	7.639
460.89	7.118
461.24	7.468
461.59	8.076
461.94	7.495
462.29	7.581
462.64	7.103
462.99	7.832
463.34	7.546
463.69	7.682
464.04	6.928
464.39	7.846
464.74	7.917
465.09	8.424
465.44	7.678
465.79	7.521
466.14	7.279
466.49	8.328
466.84	7.985
467.19	7.797
467.54	6.698
467.89	7.446
468.24	8.144
468.59	7.788
468.94	7.935
469.29	7.820
469.64	7.075
469.99	7.066
470.34	7.426
470.68	6.462
471.03	6.569
471.38	7.255
471.73	8.140
472.08	8.043
472.43	8.230
472.78	6.817
473.13	8.140
473.48	8.091
473.83	7.662
474.17	7.272
474.52	8.038
474.87	8.902
475.22	8.259
475.57	7.932
475.92	7.334
476.27	7.776
476.61	8.215
476.96	7.291
477.31	8.162
477.66	7.844
478.01	7.593
478.36	6.590
478.70	8.000
479.05	7.313
479.40	7.297
479.75	8.020
480.10	8.009
480.45	7.382
480.79	7.680
481.14	7.749
481.49	8.072
481.84	7.626
482.19	7.463
482.53	7.941
482.88	6.914
483.23	7.889
483.58	7.673
483.92	7.136
484.27	7.841
484.62	7.968
484.97	7.425
485.31	7.657
485.66	7.604
486.01	7.081
486.36	7.694
486.70	7.455
487.05	7.788
487.40	7.923
487.75	7.587
488.09	7.049
488.44	7.143
488.79	7.416
489.13	7.232
489.48	7.420
489.83	7.305
490.17	7.454
490.52	7.027
490.87	7.517
491.22	7.840
491.56	7.460
491.91	7.430
492.26	7.547
492.60	7.398
492.95	7.033
493.30	6.848
493.64	6.998
493.99	7.546
494.34	7.501
494.68	7.037
495.03	6.491
495.37	7.653
495.72	8.122
496.07	6.389
496.41	6.719
496.76	7.211
497.11	7.632
497.45	7.936
497.80	7.736
498.14	7.445
498.49	7.635
498.84	7.023
499.18	7.525
499.53	7.425
499.87	7.168
500.22	7.013
500.56	7.954
500.91	7.918
501.26	7.402
501.60	7.339
501.95	6.448
502.29	7.081
502.64	7.317
502.98	7.320
503.33	6.990
503.67	6.432
504.02	6.895
504.36	6.626
504.71	7.447
505.06	7.124
505.40	7.346
505.75	7.109
506.09	6.934
506.44	7.403
506.78	6.799
507.13	6.623
507.47	8.033
507.82	6.585
508.16	7.071
508.51	7.002
508.85	7.198
509.19	7.186
509.54	6.856
509.88	6.214
510.23	7.416
510.57	6.417
510.92	7.086
511.26	7.467
511.61	7.192
511.95	6.015
512.30	7.594
512.64	6.452
512.98	6.852
513.33	6.155
513.67	6.287
514.02	6.791
514.36	6.643
514.70	7.043
515.05	6.829
515.39	6.901
515.74	6.391
516.08	6.780
516.42	6.588
516.77	6.522
517.11	7.156
517.46	7.745
517.80	7.147
518.14	8.159
518.49	7.245
518.83	7.134
519.17	6.941
519.52	6.808
519.86	6.523
520.20	6.369
520.55	7.441
520.89	6.680
521.23	6.880
521.58	6.614
521.92	6.008
522.26	6.254
522.61	6.826
522.95	6.918
523.29	6.343
523.64	5.902
523.98	6.048
524.32	6.128
524.66	6.594
525.01	6.529
525.35	6.566
525.69	5.850
526.04	6.272
526.38	6.374
526.72	6.597
527.06	5.907
527.41	5.670
527.75	5.887
528.09	6.011
528.43	6.591
528.78	5.311
529.12	6.507
529.46	5.449
529.80	5.854
530.15	6.115
530.49	5.927
530.83	4.700
531.17	5.862
531.51	7.209
531.86	5.952
532.20	5.339
532.54	5.971
532.88	6.327
533.22	5.388
533.57	4.966
533.91	5.850
534.25	5.092
534.59	5.433
534.93	5.641
535.27	5.589
535.62	6.077
535.96	5.443
536.30	4.941
536.64	5.508
536.98	5.383
537.32	5.134
537.66	5.499
538.01	5.670
538.35	5.164
538.69	4.176
539.03	5.696
539.37	4.953
539.71	6.014
540.05	5.644
540.39	5.229
540.73	5.641
541.07	5.147
541.42	5.987
541.76	5.180
542.10	5.022
542.44	5.853
542.78	4.765
543.12	4.549
543.46	4.620
543.80	5.933
544.14	5.806
544.48	5.825
544.82	4.684
545.16	6.304
545.50	5.677
545.84	5.852
546.18	5.618
546.52	4.996
546.86	5.050
547.20	5.379
547.54	5.004
547.88	5.128
548.22	4.852
548.56	5.638
548.90	5.895
549.24	4.971
549.58	5.961
549.92	5.489
550.26	5.637
550.60	4.837
550.94	4.683
551.28	5.285
551.62	6.061
551.96	5.032
552.30	5.349
552.64	5.184
552.98	5.498
553.32	4.773
553.66	5.539
554.00	4.710
554.34	5.703
554.68	5.502
555.02	5.317
555.36	4.130
555.69	5.304
556.03	5.543
556.37	5.251
556.71	5.656
557.05	5.781
557.39	5.060
557.73	5.346
558.07	6.260
558.41	5.587
558.75	6.058
559.08	5.617
559.42	6.187
559.76	4.718
560.10	6.927
560.44	5.701
560.78	6.311
561.12	4.808
561.45	5.580
561.79	5.433
562.13	5.411
562.47	5.275
562.81	4.852
563.15	4.487
563.48	3.970
563.82	5.167
564.16	5.225
564.50	5.086
564.84	5.315
565.17	5.150
565.51	4.363
565.85	5.282
566.19	5.289
566.52	4.444
566.86	5.328
567.20	5.057
567.54	4.467
567.88	4.854
568.21	5.275
568.55	5.659
568.89	4.505
569.23	5.271
569.56	5.149
569.90	4.882
570.24	4.965
570.57	4.552
570.91	4.985
571.25	5.475
571.59	4.885
571.92	4.589
572.26	4.628
572.60	4.811
572.93	4.486
573.27	4.510
573.61	4.488
573.95	4.809
574.28	4.414
574.62	4.851
574.96	4.381
575.29	4.775
575.63	4.564
575.97	4.504
576.30	4.829
576.64	4.658
576.98	4.374
577.31	4.623
577.65	4.337
577.98	4.539
578.32	4.677
578.66	4.587
578.99	5.014
579.33	4.705
579.67	4.982
580.00	4.621
580.34	4.982
580.67	4.756
581.01	4.757
581.35	4.578
581.68	4.835
582.02	4.830
582.35	4.800
582.69	4.980
583.02	4.704
583.36	4.807
583.70	4.812
584.03	4.953
584.37	5.395
584.70	5.362
585.04	4.980
585.37	4.958
585.71	5.035
586.04	5.334
586.38	5.203
586.72	5.034
587.05	5.146
587.39	5.369
587.72	5.140
588.06	5.523
588.39	5.346
588.73	5.059
589.06	5.502
589.40	5.949
589.73	5.984
590.07	4.878
590.40	4.824
590.73	5.539
591.07	5.455
591.40	5.299
591.74	5.364
592.07	5.253
592.41	5.717
592.74	5.922
593.08	5.147
593.41	5.417
593.75	6.202
594.08	5.899
594.41	5.388
594.75	5.442
595.08	5.649
595.42	5.407
595.75	5.492
596.09	5.564
596.42	5.581
596.75	5.955
597.09	5.131
597.42	5.068
597.75	5.629
598.09	5.431
598.42	5.726
598.76	5.556
599.09	5.966
599.42	5.586
599.76	5.806
600.09	5.813
600.42	5.117
600.76	5.427
601.09	5.255
601.42	5.556
601.76	5.438
602.09	5.488
602.42	5.428
602.76	5.977
603.09	5.701
603.42	5.409
603.76	5.581
604.09	5.681
604.42	5.195
604.76	5.842
605.09	4.865
605.42	5.829
605.75	4.979
606.09	6.000
606.42	5.118
606.75	5.151
607.09	5.644
607.42	5.691
607.75	5.601
608.08	5.940
608.42	5.917
608.75	5.553
609.08	4.846
609.41	5.391
609.75	5.477
610.08	5.323
610.41	6.158
610.74	4.954
611.07	5.341
611.41	5.193
611.74	6.202
612.07	6.138
612.40	6.072
612.73	5.498
613.07	5.578
613.40	5.980
613.73	5.155
614.06	4.918
614.39	6.034
614.72	5.608
615.06	5.913
615.39	5.370
615.72	4.983
616.05	5.565
616.38	5.279
616.71	5.721
617.05	4.711
617.38	4.968
617.71	5.552
618.04	5.979
618.37	5.428
618.70	5.163
619.03	5.946
619.36	6.259
619.69	4.588
620.03	5.721
620.36	6.349
620.69	5.543
621.02	5.463
621.35	6.298
621.68	4.500
622.01	5.258
622.34	4.941
622.67	5.143
623.00	6.143
623.33	5.512
623.66	6.135
623.99	5.582
624.32	5.322
624.65	5.781
624.99	4.844
625.32	6.319
625.65	5.685
625.98	6.500
626.31	4.848
626.64	5.495
626.97	5.331
627.30	5.000
627.63	5.581
627.96	4.562
628.29	5.449
628.62	4.639
628.95	5.069
629.28	5.992
629.61	5.434
629.94	5.602
630.26	5.962
630.59	7.853
630.92	4.742
631.25	4.469
631.58	5.465
631.91	4.442
632.24	4.260
632.57	5.707
632.90	6.027
633.23	6.581
633.56	5.660
633.89	3.958
634.22	6.795
634.55	4.862
634.88	4.953
635.20	5.479
635.53	5.866
635.86	6.793
636.19	3.956
636.52	6.873
636.85	4.302
637.18	5.570
637.51	5.962
637.83	4.888
638.16	6.259
638.49	5.908
638.82	3.657
639.15	3.714
639.48	4.221
639.81	5.216
640.13	4.747
640.46	4.724
640.79	3.876
641.12	6.667
641.45	4.821
641.77	4.459
642.10	7.166
642.43	5.724
642.76	4.480
643.09	6.228
643.41	5.018
643.74	4.514
644.07	3.175
644.40	5.054
644.73	5.157
645.05	4.580
645.38	3.654
645.71	5.153
646.04	6.506
646.36	4.167
646.69	6.770
647.02	4.688
647.35	4.600
647.67	6.613
648.00	6.602
648.33	5.973
648.66	4.824
648.98	8.475
649.31	4.819
649.64	5.680
649.96	3.378
650.29	3.186
650.62	4.638
650.94	6.839
651.27	5.588
651.60	3.442
651.92	6.489
652.25	0.765
652.58	6.104
652.90	4.270
653.23	1.097
653.56	5.208
653.88	3.650
654.21	5.104
654.54	3.565
654.86	6.475
655.19	4.516
655.52	5.568
655.84	5.625
656.17	5.379
656.49	6.956
656.82	8.306
657.15	6.319
657.47	5.014
657.80	3.815
658.13	2.942
658.45	4.678
658.78	4.876
659.10	4.522
659.43	4.238
659.75	3.931
660.08	4.260
660.41	3.060
660.73	2.216
661.06	3.455
661.38	6.250
661.71	4.158
662.03	3.704
662.36	5.251
662.68	2.398
663.01	5.048
663.33	6.840
663.66	5.263
663.98	2.689
664.31	2.439
664.63	2.064
664.96	3.563
665.28	2.128
665.61	5.841
665.93	4.608
666.26	2.649
666.58	5.046
666.91	9.133
667.23	2.956
667.56	7.160
667.88	4.762
668.21	3.299
668.53	5.330
668.86	2.296
669.18	5.584
669.50	3.856
669.83	4.250
670.15	2.250
670.48	3.008
670.80	3.807
671.13	5.542
671.45	1.276
671.77	5.797
672.10	3.736
672.42	2.390
672.75	1.748
673.07	5.234
673.39	4.086
673.72	5.579
674.04	5.106
674.37	6.005
674.69	4.673
675.01	6.977
675.34	2.696
675.66	3.095
675.98	1.515
676.31	2.771
676.63	-0.258
676.95	3.357
677.28	4.950
677.60	4.762
677.92	2.256
678.25	0.464
678.57	3.248
678.89	1.606
679.22	3.670
679.54	4.232
679.86	5.567
680.18	2.510
680.51	2.259
680.83	2.292
681.15	2.179
681.48	5.532
681.80	3.043
682.12	5.996
682.44	1.509
682.77	3.636
683.09	1.716
683.41	2.757
683.73	3.015
684.06	3.553
684.38	0.719
684.70	3.695
685.02	3.030
685.34	2.092
685.67	1.779
685.99	3.194
686.31	6.530
686.63	2.913
686.96	-0.203
687.28	4.107
687.60	1.643
687.92	0.633
688.24	6.105
688.56	3.297
688.89	4.338
689.21	1.628
689.53	1.790
689.85	3.797
690.17	1.961
690.49	3.059
690.82	1.720
691.14	1.305
691.46	4.000
691.78	1.196
692.10	2.064
692.42	3.440
692.74	5.687
693.06	3.614
693.39	3.448
693.71	3.256
694.03	0.000
694.35	1.238
694.67	3.308
694.99	2.156
695.31	1.983
695.63	1.351
695.95	3.090
696.27	4.533
696.59	-2.374
696.91	0.285
697.23	0.000
697.56	1.554
697.88	2.810
698.20	0.000
698.52	2.885
698.84	2.256
699.16	2.902
699.48	6.545
699.80	-0.275
700.12	2.755
700.44	-4.425
700.76	4.101
701.08	-3.810
701.40	5.263
701.72	2.333
702.04	-2.041
702.36	3.607
702.68	3.356
703.00	-0.315
703.32	-0.299
703.64	2.524
703.96	-1.899
704.28	-2.817
704.60	1.712
704.91	0.987
705.23	-1.053
705.55	-2.974
705.87	-2.518
706.19	0.398
706.51	-0.391
706.83	-1.465
707.15	0.678
707.47	1.198
707.79	0.000
708.11	1.587
708.43	4.800
708.74	0.273
709.06	2.147
709.38	0.297
709.70	-2.273
710.02	-1.748
710.34	-2.482
710.66	-3.371
710.98	0.000
711.29	3.093
711.61	-2.837
711.93	3.745
712.25	-6.792
712.57	0.391
712.89	0.000
713.20	-0.403
713.52	-6.098
713.84	-0.365
714.16	2.365
714.48	1.365
714.80	3.030
715.11	3.436
715.43	0.000
715.75	-0.351
716.07	0.727
716.39	3.413
716.70	-3.600
717.02	-3.226
717.34	-0.433
717.66	-1.364
717.97	-4.167
718.29	3.111
718.61	-1.802
718.93	0.840
719.24	1.255
719.56	-0.893
719.88	3.137
720.20	-9.402
720.51	-2.193
720.83	0.837
721.15	-1.633
721.46	0.844
721.78	-3.896
722.10	2.326
722.42	1.304
722.73	-3.620
723.05	1.843
723.37	-3.167
723.68	-4.739
724.00	-1.389
724.32	-1.402
724.63	4.977
724.95	2.740
725.27	1.408
725.58	1.370
725.90	-9.459
726.22	-0.437
726.53	-0.820
726.85	-0.370
727.16	1.215
727.48	4.839
727.80	-2.283
728.11	-3.556
728.43	3.292
728.74	-6.140
729.06	0.000
729.38	0.000
729.69	-1.200
730.01	0.418
730.32	-1.195
730.64	3.462
730.96	0.386
731.27	-2.703
731.59	0.337
731.90	0.329
732.22	3.322
732.53	-2.105
732.85	-2.465
733.16	6.227
733.48	-3.731
733.80	3.273
734.11	1.418
734.43	0.361
734.74	1.869
735.06	2.572
735.37	-0.639
735.69	-6.690
736.00	0.000
736.32	5.245
736.63	-1.852
736.95	-4.280
737.26	-1.812
737.58	-0.730
737.89	0.377
738.21	-0.763
738.52	1.639
738.83	-2.137
739.15	-2.727
739.46	-5.405
739.78	-0.386
740.09	3.571
740.41	0.000
740.72	-2.789
741.04	-2.372
741.35	5.381
741.66	-7.527
741.98	-3.061
742.29	1.036
742.61	-5.780
742.92	1.961
743.23	-0.995
743.55	-0.518
743.86	4.831
744.18	-7.500
744.49	-2.778
744.80	2.688
745.12	-4.615
745.43	-5.882
745.74	-8.021
746.06	-6.897
746.37	-13.333
746.68	-3.784
747.00	-11.602
747.31	-1.047
747.62	-6.316
747.94	1.415
748.25	-0.493
748.56	-1.010
748.88	-2.732
749.19	0.000
749.50	-9.412
749.82	3.000
750.13	-5.340
750.44	-3.863
750.75	1.600
751.07	-2.092
751.38	-3.516
751.69	4.365
752.01	0.420
752.32	2.893
752.63	-5.677
752.94	0.400
753.26	-1.826
753.57	-3.791
753.88	-2.791
754.19	-5.286
754.51	-2.092
754.82	-3.750
755.13	-5.310
755.44	-0.433
755.75	-2.811
756.07	-2.146
756.38	-2.092
756.69	3.019
757.00	-0.355
757.31	1.730
757.63	1.634
757.94	-2.727
758.25	-1.786
758.56	2.703
758.87	-0.893
759.18	5.607
759.50	-2.847
759.81	-4.247
760.12	1.423
760.43	0.332
760.74	1.497
761.05	0.641
761.36	5.045
761.67	0.912
761.99	0.334
762.30	-2.182
762.61	5.285
762.92	0.444
763.23	0.930
763.54	-3.553
763.85	3.620
764.16	-1.739
764.47	0.435
764.78	1.210
765.10	-3.150
765.41	0.000
765.72	0.669
766.03	5.017
766.34	1.515
766.65	1.172
766.96	-0.889
767.27	3.911
767.58	-2.516
767.89	-5.844
768.20	-7.432
768.51	-0.575
768.82	-11.875
769.13	1.389
769.44	-1.415
769.75	-5.882
770.06	-3.398
770.37	0.532
770.68	-2.051
770.99	-6.599
771.30	-4.124
771.61	-7.175
771.92	-4.245
772.23	0.000
772.54	-3.529
772.85	-13.699
773.16	-5.161
773.47	-7.006
773.78	2.994
774.09	-10.526
774.39	-13.235
774.70	-7.519
775.01	-5.385
775.32	-7.937
775.63	-9.449
775.94	-19.811
776.25	-5.926
776.56	-8.182
776.87	0.000
777.18	-15.000
777.48	-18.269
777.79	-12.963
778.10	-15.094
778.41	3.922
778.72	0.000
779.03	-8.772
779.34	-8.403
779.65	-0.704
779.95	-10.072
780.26	-12.903
780.57	-2.899
780.88	-9.174
781.19	-4.630
781.50	-9.016
781.80	-13.139
782.11	-8.333
782.42	-9.655
782.73	-4.196
783.04	-11.200
783.34	-12.000
783.65	-7.317
783.96	-22.131
784.27	-16.807
784.57	-16.822
784.88	-15.179
785.19	-12.371
785.50	-24.211
785.81	-7.000
786.11	-15.842
786.42	-40.000
786.73	-14.583
787.04	-19.388
787.34	-3.704
787.65	-2.830
787.96	-23.711
788.26	-7.921
788.57	-13.913
788.88	-26.606
789.19	-15.702
789.49	-3.478
789.80	-1.724
790.11	-29.268
790.41	-7.865
790.72	-16.279
791.03	-9.302
791.33	-29.870
791.64	-2.439
791.95	-13.415
792.25	-25.301
792.56	-27.160
792.87	-25.352
793.17	-4.819
793.48	-7.059
793.79	-3.750
794.09	-48.333
794.40	-14.130
794.70	-11.304
795.01	-14.679
795.32	-5.512
795.62	-11.765
795.93	-12.745
796.23	-5.051
796.54	-26.744
796.85	-27.536
797.15	-37.500
797.46	-32.203
797.76	-19.672
798.07	-10.526
798.37	-32.258
798.68	-26.562
798.99	-21.538
799.29	-21.212
799.60	-18.841
799.90	-22.857
800.21	-29.825
800.51	-20.690
800.82	-35.849
801.12	-27.451
801.43	-24.194
801.73	-14.516
802.04	-12.000
802.34	-28.302
802.65	-50.000
802.95	-27.273
803.26	-18.868
803.56	-13.115
803.87	-36.000
804.17	-31.481
804.48	-25.000
804.78	-57.143
805.09	-31.915
805.39	-5.085
805.70	-39.583
806.00	-23.214
806.30	-30.508
806.61	-18.462
806.91	-16.923
807.22	-30.263
807.52	-4.286
807.83	-34.483
808.13	-12.658
808.43	-27.869
808.74	-8.197
809.04	-17.568
809.35	-18.519
809.65	-26.786
809.95	-27.119
810.26	-51.020
810.56	-28.302
810.86	-27.451
811.17	-67.568
811.47	-118.519
811.77	-17.647
812.08	-27.273
812.38	-79.167
812.69	-43.590
812.99	-23.810
813.29	6.522
813.59	-42.857
813.90	-40.476
814.20	-27.273
814.50	-51.020
814.81	-45.098
815.11	-35.417
815.41	-46.341
815.72	-100.000
816.02	-21.277
816.32	-31.250
816.62	-36.364
816.93	-96.970
817.23	-21.622
817.53	-38.235
817.84	-5.000
818.14	-67.647
818.44	-68.750
818.74	-142.857
819.04	-57.143
819.35	-25.714
819.65	-9.091
819.95	-28.205
820.25	-105.556
820.56	-62.069
820.86	-60.714
821.16	-113.043
821.46	-30.952
821.76	-12.963
822.07	-43.478
822.37	-28.571
822.67	-44.186
822.97	-52.174
823.27	-119.231
823.57	-51.852
823.88	-75.000
824.18	-48.718
824.48	-10.714
824.78	-63.636
825.08	-153.333
825.38	-30.000
825.69	-138.889
825.99	-51.852
826.29	-20.000
826.59	-129.630
826.89	-55.556
827.19	-35.714
827.49	-68.182
827.79	-100.000
828.09	-118.182
828.39	-126.087
828.70	-48.148
829.00	-35.714
829.30	-28.571
829.60	-70.968
829.90	-96.154
830.20	-30.769
830.50	-90.909
830.80	-47.619
831.10	-122.222
831.40	-200.000
831.70	-51.852
832.00	-82.353
832.30	-43.478
832.60	-62.500
832.90	-227.273
833.20	-111.111
833.50	-15.625
833.80	-65.385
834.10	-16.000
834.40	-54.167
834.70	-77.273
835.00	-50.000
835.30	-90.000
835.60	-160.000
835.90	-85.000
836.20	-100.000
836.50	-91.304
836.80	-138.889
837.10	-93.333
837.40	-250.000
837.70	-104.348
838.00	-171.429
838.30	3600.000
838.60	-44.000
838.90	-380.000
839.19	-88.889
839.49	-1100.000
839.79	-100.000
840.09	-188.889
840.39	-14.286
840.69	-144.444
840.99	-125.000
841.29	-44.828
841.59	-80.000
841.88	-181.818
842.18	-566.667
842.48	-43.750
842.78	-38.462
843.08	-76.471
843.38	-45.000
843.68	-200.000
843.97	-129.412
844.27	-200.000
844.57	-20.833
844.87	-118.182
845.17	-94.737
845.47	-144.444
845.76	-19.444
846.06	-100.000
846.36	-114.286
846.66	-266.667
846.96	-80.000
847.25	-360.000
847.55	-262.500
847.85	-220.000
848.15	-375.000
848.44	-121.053
848.74	-53.333
849.04	-73.684
849.34	-266.667
849.63	-183.333
849.93	-82.353
850.23	-109.091
850.53	-666.667
850.82	-80.000
851.12	-233.333
851.42	-257.143
851.71	-140.000
852.01	-92.857
852.31	-366.667
852.61	-123.077
852.90	-380.000
853.20	-177.778
853.50	-344.444
853.79	-130.000
854.09	-150.000
854.39	-78.947
854.68	-70.000
854.98	-475.000
855.28	-66.667
855.57	-185.714
855.87	-94.737
856.17	-162.500
856.46	-19.231
856.76	-33.333
857.05	-137.500
857.35	-25.000
857.65	-77.778
857.94	-175.000
858.24	-86.957
858.53	-240.000
858.83	-433.333
859.13	-200.000
859.42	-170.000
859.72	283.333
860.01	-84.615
860.31	-220.000
860.60	-225.000
860.90	-450.000
861.20	-183.333
861.49	-500.000
861.79	800.000
862.08	-9.677
862.38	-110.526
862.67	-84.615
862.97	-170.000
863.26	-141.667
863.56	-69.565
863.85	-500.000
864.15	-100.000
864.44	-93.750
864.74	-166.667
865.03	-244.444
865.33	-533.333
865.62	-2400.000
865.92	-800.000
866.21	-383.333
866.51	-100.000
866.80	-866.667
867.10	-257.143
867.39	-211.111
867.69	-191.667
867.98	280.000
868.27	-575.000
868.57	775.000
868.86	-60.000
869.16	-30.769
869.45	1550.000
869.75	-266.667
870.04	-291.667
870.33	11.765
870.63	-200.000
870.92	4.348
871.22	-275.000
871.51	700.000
871.80	-50.000
872.10	-866.667
>>>>>End Processed Spectral Data<<<<<
