SpectraSuite Data File
++++++++++++++++++++++++++++++++++++
Date: Tue May 12 19:55:26 PDT 2015
User: schluterlab
Dark Spectrum Present: Yes
Reference Spectrum Present: Yes
Number of Sampled Component Spectra: 1
Spectrometers: USB2E3373
Integration Time (usec): 3000 (USB2E3373)
Spectra Averaged: 3 (USB2E3373)
Boxcar Smoothing: 0 (USB2E3373)
Correct for Electrical Dark: No (USB2E3373)
Strobe/Lamp Enabled: No (USB2E3373)
Correct for Detector Non-linearity: No (USB2E3373)
Correct for Stray Light: No (USB2E3373)
Number of Pixels in Processed Spectrum: 2048
>>>>>Begin Processed Spectral Data<<<<<
178.53	0.000
178.91	-180.000
179.29	-233.333
179.67	800.000
180.04	0.000
180.42	-300.000
180.80	-800.000
181.18	1100.000
181.56	-800.000
181.94	366.667
182.31	3400.000
182.69	-200.000
183.07	0.000
183.45	233.333
183.83	440.000
184.20	416.667
184.58	1450.000
184.96	416.667
185.34	-600.000
185.72	-50.000
186.09	-216.667
186.47	-2100.000
186.85	-360.000
187.23	266.667
187.61	-271.429
187.98	-340.000
188.36	800.000
188.74	-575.000
189.12	-133.333
189.49	-70.000
189.87	350.000
190.25	233.333
190.63	700.000
191.00	260.000
191.38	-666.667
191.76	380.000
192.14	-357.143
192.51	-180.000
192.89	-260.000
193.27	-340.000
193.65	-766.667
194.02	-333.333
194.40	1600.000
194.78	-212.500
195.15	-314.286
195.53	566.667
195.91	480.000
196.29	-675.000
196.66	-200.000
197.04	-371.429
197.42	460.000
197.79	-262.500
198.17	-108.333
198.55	-600.000
198.92	-222.222
199.30	1050.000
199.68	-375.000
200.05	-1350.000
200.43	-55.556
200.81	-166.667
201.18	400.000
201.56	-950.000
201.94	-1200.000
202.31	-100.000
202.69	-155.556
203.07	-91.667
203.44	-550.000
203.82	0.000
204.19	337.500
204.57	-733.333
204.95	327.273
205.32	460.000
205.70	275.000
206.08	-2100.000
206.45	-280.000
206.83	2300.000
207.20	-200.000
207.58	-69.231
207.96	666.667
208.33	800.000
208.71	866.667
209.08	1100.000
209.46	-100.000
209.84	800.000
210.21	-633.333
210.59	700.000
210.96	266.667
211.34	-375.000
211.71	1350.000
212.09	-200.000
212.46	-300.000
212.84	-312.500
213.22	271.429
213.59	-100.000
213.97	0.000
214.34	-400.000
214.72	-1100.000
215.09	1050.000
215.47	-80.000
215.84	-100.000
216.22	-1500.000
216.59	1800.000
216.97	-41.667
217.34	-366.667
217.72	-27.778
218.09	425.000
218.47	-100.000
218.84	-150.000
219.22	-71.429
219.59	-190.000
219.97	-100.000
220.34	200.000
220.72	154.545
221.09	-1600.000
221.47	0.000
221.84	750.000
222.22	-525.000
222.59	-375.000
222.97	-39.130
223.34	220.000
223.72	442.857
224.09	-316.667
224.46	246.154
224.84	-53.333
225.21	-900.000
225.59	-475.000
225.96	25.000
226.34	550.000
226.71	230.000
227.08	-138.462
227.46	-285.714
227.83	-83.333
228.21	-1350.000
228.58	383.333
228.95	-84.211
229.33	-31.250
229.70	-300.000
230.08	-244.444
230.45	-600.000
230.82	-700.000
231.20	-23.810
231.57	-420.000
231.95	-533.333
232.32	288.889
232.69	-1100.000
233.07	-6.250
233.44	-125.000
233.81	6.452
234.19	-380.000
234.56	-61.111
234.93	-316.667
235.31	3.704
235.68	-29.630
236.05	-42.308
236.43	-36.842
236.80	-40.909
237.17	-114.286
237.55	-35.000
237.92	6.977
238.29	-29.032
238.67	10.714
239.04	20.000
239.41	11.765
239.79	42.000
240.16	22.500
240.53	22.414
240.91	16.438
241.28	15.493
241.65	26.562
242.02	3.509
242.40	20.000
242.77	35.789
243.14	43.529
243.51	31.183
243.89	27.619
244.26	41.667
244.63	44.898
245.00	21.429
245.38	31.933
245.75	33.898
246.12	45.312
246.49	34.400
246.87	33.607
247.24	41.549
247.61	37.086
247.98	35.393
248.36	44.654
248.73	39.205
249.10	38.333
249.47	43.229
249.84	37.056
250.22	43.750
250.59	35.955
250.96	41.364
251.33	46.698
251.70	40.367
252.08	43.723
252.45	42.041
252.82	41.772
253.19	43.191
253.56	50.588
253.94	47.967
254.31	43.525
254.68	42.708
255.05	45.695
255.42	46.182
255.79	49.007
256.16	45.486
256.54	46.364
256.91	45.513
257.28	44.805
257.65	47.213
258.02	46.547
258.39	46.224
258.76	45.872
259.14	44.706
259.51	47.606
259.88	47.550
260.25	47.443
260.62	46.067
260.99	44.011
261.36	48.276
261.73	45.867
262.10	50.136
262.47	53.168
262.85	48.072
263.22	47.312
263.59	48.257
263.96	47.520
264.33	45.283
264.70	47.666
265.07	45.813
265.44	46.136
265.81	51.084
266.18	50.585
266.55	48.571
266.92	48.438
267.29	50.444
267.66	46.364
268.03	48.387
268.40	47.826
268.77	48.998
269.14	42.857
269.51	46.380
269.88	45.726
270.25	45.359
270.62	49.580
270.99	48.000
271.36	47.020
271.73	45.625
272.10	48.548
272.47	47.600
272.84	46.285
273.21	46.555
273.58	44.898
273.95	47.809
274.32	46.422
274.69	46.575
275.06	45.403
275.43	45.000
275.80	48.566
276.17	46.838
276.54	48.669
276.91	48.369
277.28	48.549
277.65	48.204
278.02	46.970
278.39	46.098
278.76	48.045
279.13	45.975
279.50	48.917
279.87	45.660
280.23	44.627
280.60	45.936
280.97	47.276
281.34	44.915
281.71	43.517
282.08	47.227
282.45	48.501
282.82	44.613
283.19	45.118
283.56	45.734
283.92	41.706
284.29	46.362
284.66	45.841
285.03	42.367
285.40	46.333
285.77	46.470
286.14	42.155
286.51	45.820
286.87	43.112
287.24	43.429
287.61	43.827
287.98	44.444
288.35	43.101
288.72	43.578
289.08	43.396
289.45	43.370
289.82	39.286
290.19	40.758
290.56	40.666
290.93	42.245
291.29	40.993
291.66	39.045
292.03	43.042
292.40	42.014
292.77	38.192
293.13	38.179
293.50	39.118
293.87	38.558
294.24	38.202
294.60	39.071
294.97	37.119
295.34	36.986
295.71	37.032
296.08	35.929
296.44	38.208
296.81	35.576
297.18	36.869
297.55	35.302
297.91	36.421
298.28	35.294
298.65	34.282
299.02	37.731
299.38	36.352
299.75	35.650
300.12	35.492
300.48	35.446
300.85	35.208
301.22	34.375
301.59	35.036
301.95	36.463
302.32	33.293
302.69	33.294
303.05	34.238
303.42	35.266
303.79	33.483
304.15	34.428
304.52	33.408
304.89	34.047
305.25	34.174
305.62	34.205
305.99	34.826
306.35	33.557
306.72	35.076
307.09	34.059
307.45	33.225
307.82	32.124
308.19	33.993
308.55	33.333
308.92	32.521
309.29	32.950
309.65	31.373
310.02	32.390
310.38	33.689
310.75	31.762
311.12	31.536
311.48	33.094
311.85	29.787
312.22	32.541
312.58	30.816
312.95	31.520
313.31	31.662
313.68	32.274
314.05	33.366
314.41	31.827
314.78	32.362
315.14	32.223
315.51	31.976
315.87	32.812
316.24	32.146
316.61	33.495
316.97	32.059
317.34	30.335
317.70	30.626
318.07	31.148
318.43	32.042
318.80	31.785
319.16	29.543
319.53	32.075
319.89	32.386
320.26	32.252
320.62	31.589
320.99	32.857
321.35	31.423
321.72	32.323
322.08	32.079
322.45	33.136
322.81	32.808
323.18	32.119
323.54	33.175
323.91	32.922
324.27	31.244
324.64	31.959
325.00	30.482
325.37	32.374
325.73	30.839
326.10	32.137
326.46	31.460
326.83	31.486
327.19	32.664
327.56	32.449
327.92	30.295
328.29	30.914
328.65	32.580
329.01	31.743
329.38	31.956
329.74	32.869
330.11	32.339
330.47	32.588
330.84	30.639
331.20	31.238
331.56	32.925
331.93	31.290
332.29	30.620
332.66	32.640
333.02	31.848
333.38	30.790
333.75	31.199
334.11	31.284
334.48	29.070
334.84	30.047
335.20	29.991
335.57	30.881
335.93	31.256
336.29	30.804
336.66	29.599
337.02	29.465
337.38	30.283
337.75	32.000
338.11	31.267
338.47	30.455
338.84	30.110
339.20	31.164
339.56	30.475
339.93	29.279
340.29	30.190
340.65	32.237
341.02	29.672
341.38	29.744
341.74	30.694
342.11	28.736
342.47	29.720
342.83	29.228
343.20	29.620
343.56	29.983
343.92	29.834
344.28	28.988
344.65	28.853
345.01	29.704
345.37	30.342
345.73	29.457
346.10	30.510
346.46	28.991
346.82	29.567
347.19	28.259
347.55	28.827
347.91	27.846
348.27	29.486
348.63	29.646
349.00	29.048
349.36	28.772
349.72	29.475
350.08	30.033
350.45	28.885
350.81	30.058
351.17	27.759
351.53	28.422
351.89	28.584
352.26	28.618
352.62	28.618
352.98	28.033
353.34	29.073
353.70	27.819
354.07	29.242
354.43	27.796
354.79	28.525
355.15	27.926
355.51	28.688
355.87	28.310
356.24	28.268
356.60	28.464
356.96	28.120
357.32	28.560
357.68	27.685
358.04	27.796
358.40	28.396
358.77	27.952
359.13	28.916
359.49	27.440
359.85	28.617
360.21	26.725
360.57	28.230
360.93	28.266
361.29	27.726
361.66	28.233
362.02	28.336
362.38	27.195
362.74	28.824
363.10	26.998
363.46	27.239
363.82	27.029
364.18	27.933
364.54	29.160
364.90	27.185
365.26	27.571
365.62	27.782
365.98	28.561
366.35	28.064
366.71	27.931
367.07	26.863
367.43	26.209
367.79	26.817
368.15	27.724
368.51	27.865
368.87	28.267
369.23	27.101
369.59	28.235
369.95	26.453
370.31	26.894
370.67	27.519
371.03	27.554
371.39	27.266
371.75	26.523
372.11	27.481
372.47	25.612
372.83	27.831
373.19	27.560
373.55	25.973
373.91	27.348
374.27	27.520
374.63	27.320
374.99	25.915
375.35	26.125
375.71	26.973
376.07	26.290
376.42	28.077
376.78	26.690
377.14	27.235
377.50	26.129
377.86	26.741
378.22	26.816
378.58	27.171
378.94	26.916
379.30	26.190
379.66	26.697
380.02	26.510
380.38	26.781
380.74	27.595
381.09	26.684
381.45	26.476
381.81	27.296
382.17	26.710
382.53	26.693
382.89	25.786
383.25	26.886
383.61	27.273
383.97	26.121
384.32	26.387
384.68	26.437
385.04	25.461
385.40	26.390
385.76	26.882
386.12	26.007
386.48	26.223
386.83	25.346
387.19	27.267
387.55	25.518
387.91	25.607
388.27	26.488
388.62	26.166
388.98	26.654
389.34	25.634
389.70	26.731
390.06	25.083
390.42	26.302
390.77	27.163
391.13	25.960
391.49	27.156
391.85	26.613
392.20	27.393
392.56	25.213
392.92	26.221
393.28	25.972
393.64	25.966
393.99	26.039
394.35	26.087
394.71	26.026
395.07	26.459
395.42	25.333
395.78	25.403
396.14	25.383
396.50	24.968
396.85	25.182
397.21	24.838
397.57	26.267
397.92	24.873
398.28	25.959
398.64	25.270
399.00	26.582
399.35	25.440
399.71	24.790
400.07	26.498
400.42	27.436
400.78	26.679
401.14	26.136
401.49	25.671
401.85	26.667
402.21	25.698
402.57	25.628
402.92	26.760
403.28	26.333
403.63	25.769
403.99	25.297
404.35	25.096
404.70	25.206
405.06	26.286
405.42	25.764
405.77	25.030
406.13	25.388
406.49	25.110
406.84	26.027
407.20	24.721
407.55	25.317
407.91	25.734
408.27	25.532
408.62	26.302
408.98	26.834
409.34	25.096
409.69	25.619
410.05	25.324
410.40	24.855
410.76	25.031
411.11	24.822
411.47	24.966
411.83	24.726
412.18	25.262
412.54	25.291
412.89	25.324
413.25	25.392
413.60	25.702
413.96	24.854
414.31	24.857
414.67	26.806
415.03	24.689
415.38	26.045
415.74	25.050
416.09	25.086
416.45	25.265
416.80	24.826
417.16	25.670
417.51	26.718
417.87	25.718
418.22	25.535
418.58	25.363
418.93	25.983
419.29	25.305
419.64	26.648
420.00	25.606
420.35	26.428
420.71	24.584
421.06	26.152
421.42	25.282
421.77	26.431
422.12	26.048
422.48	26.556
422.83	25.714
423.19	26.059
423.54	25.046
423.90	25.649
424.25	26.042
424.61	25.613
424.96	25.369
425.31	25.483
425.67	25.818
426.02	25.093
426.38	24.389
426.73	25.670
427.09	25.870
427.44	25.309
427.79	25.619
428.15	25.618
428.50	25.314
428.85	25.273
429.21	25.344
429.56	24.530
429.92	25.149
430.27	25.173
430.62	26.339
430.98	25.416
431.33	25.751
431.68	26.149
432.04	25.949
432.39	25.371
432.74	26.059
433.10	25.349
433.45	26.092
433.80	25.000
434.16	25.201
434.51	25.418
434.86	25.257
435.22	25.902
435.57	25.989
435.92	24.211
436.28	25.405
436.63	25.164
436.98	25.741
437.34	25.784
437.69	25.679
438.04	25.721
438.39	25.783
438.75	24.308
439.10	26.310
439.45	26.316
439.81	25.778
440.16	25.417
440.51	25.589
440.86	25.063
441.22	25.015
441.57	25.698
441.92	25.621
442.27	26.514
442.63	25.677
442.98	26.039
443.33	26.087
443.68	25.069
444.03	24.536
444.39	25.716
444.74	25.816
445.09	25.974
445.44	25.015
445.79	26.268
446.15	25.714
446.50	26.836
446.85	25.468
447.20	24.453
447.55	25.247
447.91	25.867
448.26	25.460
448.61	25.317
448.96	25.665
449.31	25.437
449.66	25.121
450.02	25.030
450.37	25.759
450.72	25.434
451.07	25.049
451.42	25.560
451.77	24.842
452.12	25.188
452.47	25.203
452.83	25.218
453.18	25.456
453.53	27.041
453.88	25.590
454.23	26.198
454.58	26.044
454.93	23.910
455.28	25.187
455.63	25.536
455.98	26.015
456.34	24.447
456.69	25.254
457.04	25.000
457.39	25.343
457.74	26.675
458.09	25.264
458.44	26.058
458.79	24.558
459.14	26.357
459.49	25.414
459.84	25.386
460.19	26.579
460.54	25.000
460.89	25.353
461.24	26.234
461.59	26.877
461.94	24.852
462.29	25.877
462.64	25.975
462.99	26.541
463.34	25.788
463.69	25.857
464.04	25.914
464.39	25.916
464.74	26.152
465.09	25.531
465.44	25.615
465.79	25.933
466.14	24.940
466.49	26.294
466.84	25.921
467.19	25.991
467.54	24.668
467.89	25.865
468.24	26.263
468.59	25.458
468.94	25.689
469.29	26.713
469.64	26.404
469.99	26.532
470.34	24.257
470.68	25.538
471.03	25.182
471.38	25.131
471.73	25.436
472.08	25.979
472.43	24.827
472.78	24.148
473.13	26.737
473.48	26.349
473.83	26.420
474.17	25.350
474.52	26.189
474.87	27.210
475.22	26.620
475.57	26.322
475.92	25.696
476.27	25.678
476.61	26.714
476.96	26.497
477.31	26.826
477.66	26.206
478.01	26.133
478.36	25.673
478.70	26.648
479.05	26.291
479.40	26.479
479.75	26.248
480.10	25.703
480.45	26.387
480.79	25.999
481.14	26.937
481.49	26.067
481.84	26.212
482.19	25.951
482.53	26.422
482.88	26.690
483.23	26.533
483.58	25.842
483.92	26.734
484.27	26.525
484.62	25.790
484.97	25.923
485.31	25.638
485.66	25.799
486.01	25.257
486.36	25.918
486.70	26.075
487.05	25.931
487.40	25.914
487.75	26.310
488.09	25.345
488.44	25.849
488.79	26.338
489.13	25.561
489.48	26.237
489.83	26.167
490.17	26.442
490.52	24.857
490.87	25.964
491.22	26.824
491.56	25.445
491.91	26.506
492.26	26.211
492.60	26.990
492.95	27.105
493.30	26.712
493.64	25.862
493.99	26.643
494.34	26.964
494.68	25.768
495.03	24.949
495.37	26.761
495.72	27.162
496.07	26.166
496.41	25.198
496.76	26.122
497.11	26.046
497.45	26.921
497.80	26.064
498.14	26.452
498.49	27.389
498.84	26.153
499.18	26.518
499.53	26.584
499.87	26.011
500.22	26.390
500.56	27.891
500.91	27.635
501.26	25.984
501.60	27.523
501.95	26.663
502.29	26.834
502.64	26.083
502.98	26.552
503.33	25.911
503.67	26.748
504.02	26.507
504.36	26.502
504.71	26.330
505.06	26.674
505.40	26.917
505.75	25.645
506.09	26.002
506.44	26.985
506.78	25.964
507.13	26.547
507.47	27.590
507.82	27.121
508.16	26.169
508.51	27.462
508.85	26.813
509.19	26.988
509.54	27.365
509.88	26.582
510.23	27.079
510.57	26.689
510.92	26.644
511.26	26.249
511.61	27.283
511.95	26.778
512.30	26.841
512.64	26.628
512.98	27.289
513.33	25.967
513.67	26.347
514.02	26.562
514.36	28.055
514.70	28.051
515.05	27.744
515.39	27.415
515.74	27.256
516.08	26.993
516.42	27.595
516.77	27.702
517.11	26.300
517.46	27.983
517.80	28.398
518.14	28.653
518.49	28.978
518.83	27.756
519.17	27.956
519.52	27.795
519.86	28.499
520.20	27.325
520.55	27.350
520.89	27.935
521.23	27.722
521.58	26.786
521.92	27.370
522.26	27.629
522.61	28.328
522.95	26.781
523.29	27.395
523.64	26.866
523.98	27.151
524.32	29.226
524.66	27.464
525.01	28.247
525.35	27.565
525.69	27.254
526.04	29.810
526.38	27.279
526.72	28.194
527.06	27.637
527.41	28.987
527.75	27.423
528.09	28.076
528.43	29.057
528.78	28.302
529.12	27.055
529.46	28.040
529.80	27.161
530.15	28.423
530.49	27.685
530.83	28.344
531.17	28.460
531.51	28.837
531.86	27.661
532.20	27.128
532.54	28.345
532.88	26.982
533.22	28.161
533.57	27.448
533.91	28.424
534.25	27.766
534.59	28.061
534.93	27.468
535.27	27.475
535.62	27.076
535.96	27.844
536.30	27.488
536.64	27.969
536.98	27.876
537.32	28.274
537.66	28.006
538.01	28.130
538.35	27.491
538.69	28.096
539.03	28.046
539.37	27.136
539.71	28.406
540.05	28.292
540.39	27.741
540.73	27.546
541.07	26.691
541.42	28.368
541.76	28.201
542.10	28.121
542.44	29.408
542.78	27.786
543.12	25.848
543.46	27.347
543.80	27.877
544.14	28.387
544.48	28.211
544.82	28.176
545.16	28.261
545.50	29.330
545.84	28.822
546.18	26.816
546.52	27.287
546.86	28.233
547.20	28.258
547.54	27.976
547.88	28.276
548.22	26.864
548.56	28.823
548.90	27.298
549.24	29.313
549.58	28.763
549.92	28.421
550.26	28.880
550.60	27.914
550.94	28.492
551.28	28.293
551.62	29.320
551.96	28.435
552.30	28.295
552.64	27.724
552.98	28.455
553.32	26.591
553.66	28.376
554.00	28.494
554.34	29.219
554.68	29.346
555.02	27.937
555.36	27.244
555.69	27.671
556.03	28.307
556.37	28.057
556.71	28.582
557.05	28.125
557.39	27.711
557.73	28.223
558.07	29.264
558.41	28.332
558.75	28.880
559.08	28.170
559.42	28.010
559.76	28.728
560.10	28.606
560.44	27.395
560.78	27.949
561.12	27.799
561.45	28.571
561.79	27.533
562.13	28.317
562.47	28.211
562.81	28.203
563.15	27.072
563.48	26.891
563.82	28.311
564.16	27.358
564.50	28.009
564.84	28.136
565.17	27.754
565.51	28.712
565.85	27.183
566.19	28.184
566.52	27.957
566.86	27.732
567.20	27.279
567.54	27.888
567.88	27.427
568.21	27.843
568.55	27.674
568.89	26.868
569.23	26.908
569.56	27.862
569.90	26.681
570.24	26.596
570.57	26.825
570.91	26.710
571.25	26.653
571.59	26.689
571.92	25.891
572.26	26.566
572.60	26.555
572.93	25.933
573.27	25.535
573.61	25.596
573.95	26.365
574.28	25.407
574.62	25.509
574.96	25.711
575.29	25.168
575.63	25.300
575.97	25.919
576.30	25.506
576.64	25.138
576.98	25.393
577.31	25.832
577.65	25.641
577.98	25.485
578.32	25.338
578.66	25.733
578.99	25.696
579.33	25.671
579.67	25.822
580.00	25.675
580.34	25.724
580.67	25.254
581.01	25.554
581.35	25.471
581.68	25.556
582.02	25.473
582.35	25.510
582.69	25.672
583.02	25.378
583.36	25.424
583.70	25.811
584.03	25.654
584.37	26.320
584.70	26.270
585.04	25.276
585.37	25.735
585.71	25.352
586.04	26.230
586.38	25.524
586.72	25.287
587.05	25.850
587.39	25.639
587.72	25.563
588.06	25.596
588.39	25.679
588.73	25.890
589.06	25.470
589.40	25.836
589.73	26.402
590.07	25.629
590.40	25.860
590.73	26.364
591.07	26.277
591.40	26.268
591.74	25.700
592.07	26.839
592.41	26.945
592.74	26.459
593.08	25.845
593.41	26.294
593.75	25.986
594.08	26.171
594.41	26.601
594.75	25.998
595.08	25.945
595.42	26.286
595.75	26.023
596.09	26.781
596.42	26.934
596.75	26.636
597.09	25.466
597.42	25.153
597.75	26.173
598.09	25.890
598.42	25.935
598.76	25.410
599.09	25.924
599.42	25.020
599.76	25.657
600.09	26.611
600.42	25.156
600.76	25.635
601.09	25.373
601.42	25.483
601.76	25.852
602.09	25.723
602.42	25.923
602.76	26.353
603.09	26.197
603.42	26.533
603.76	26.437
604.09	25.815
604.42	25.762
604.76	25.970
605.09	26.216
605.42	26.019
605.75	25.857
606.09	26.044
606.42	26.684
606.75	26.909
607.09	26.026
607.42	26.342
607.75	25.666
608.08	25.772
608.42	25.994
608.75	26.563
609.08	25.492
609.41	27.216
609.75	26.540
610.08	25.788
610.41	26.514
610.74	26.491
611.07	26.282
611.41	26.231
611.74	26.714
612.07	25.781
612.40	25.905
612.73	26.505
613.07	25.954
613.40	26.797
613.73	26.174
614.06	25.117
614.39	26.714
614.72	25.738
615.06	26.406
615.39	24.827
615.72	26.204
616.05	26.435
616.38	26.275
616.71	25.871
617.05	24.686
617.38	26.581
617.71	26.649
618.04	27.464
618.37	25.768
618.70	25.951
619.03	27.339
619.36	27.099
619.69	26.361
620.03	27.460
620.36	27.135
620.69	27.790
621.02	27.158
621.35	26.979
621.68	28.083
622.01	27.629
622.34	27.889
622.67	27.825
623.00	27.437
623.33	27.244
623.66	27.888
623.99	26.555
624.32	27.085
624.65	26.172
624.99	27.109
625.32	25.987
625.65	26.581
625.98	27.667
626.31	26.494
626.64	27.748
626.97	27.390
627.30	26.944
627.63	27.814
627.96	26.629
628.29	27.533
628.62	26.598
628.95	28.617
629.28	27.789
629.61	26.750
629.94	27.905
630.26	28.452
630.59	27.120
630.92	28.135
631.25	25.698
631.58	27.209
631.91	26.424
632.24	27.929
632.57	28.062
632.90	27.306
633.23	29.806
633.56	26.415
633.89	28.364
634.22	29.103
634.55	28.909
634.88	28.380
635.20	29.589
635.53	28.352
635.86	29.348
636.19	27.967
636.52	29.245
636.85	25.163
637.18	27.979
637.51	28.184
637.83	26.676
638.16	28.165
638.49	27.810
638.82	29.536
639.15	27.857
639.48	27.656
639.81	28.614
640.13	28.025
640.46	30.079
640.79	28.062
641.12	27.752
641.45	27.994
641.77	27.548
642.10	27.036
642.43	28.956
642.76	29.032
643.09	26.817
643.41	29.928
643.74	29.687
644.07	29.101
644.40	29.242
644.73	27.624
645.05	27.863
645.38	29.808
645.71	28.053
646.04	29.740
646.36	26.894
646.69	28.820
647.02	28.906
647.35	28.400
647.67	29.659
648.00	31.068
648.33	27.360
648.66	29.685
648.98	26.780
649.31	30.465
649.64	26.506
649.96	26.858
650.29	26.903
650.62	28.757
650.94	27.726
651.27	25.241
651.60	29.446
651.92	29.008
652.25	25.048
652.58	26.391
652.90	26.868
653.23	27.971
653.56	26.389
653.88	27.372
654.21	26.654
654.54	28.893
654.86	27.518
655.19	27.903
655.52	28.508
655.84	26.275
656.17	26.161
656.49	34.882
656.82	39.390
657.15	31.076
657.47	23.531
657.80	17.450
658.13	14.582
658.45	24.935
658.78	23.949
659.10	23.706
659.43	24.252
659.75	23.537
660.08	23.460
660.41	23.495
660.73	24.931
661.06	25.273
661.38	26.613
661.71	27.571
662.03	27.546
662.36	25.060
662.68	27.338
663.01	29.808
663.33	30.660
663.66	29.904
663.98	29.584
664.31	29.024
664.63	26.147
664.96	29.929
665.28	27.660
665.61	29.439
665.93	27.189
666.26	26.932
666.58	25.688
666.91	31.148
667.23	30.049
667.56	27.160
667.88	29.073
668.21	28.173
668.53	26.904
668.86	26.020
669.18	24.619
669.50	28.278
669.83	30.250
670.15	27.750
670.48	28.822
670.80	27.665
671.13	27.470
671.45	27.041
671.77	26.570
672.10	25.934
672.42	25.697
672.75	25.437
673.07	26.729
673.39	27.432
673.72	26.033
674.04	27.234
674.37	30.947
674.69	24.299
675.01	27.209
675.34	24.755
675.66	25.714
675.98	26.263
676.31	25.189
676.63	25.258
676.95	28.058
677.28	24.505
677.60	30.576
677.92	24.561
678.25	27.842
678.57	28.306
678.89	28.440
679.22	25.917
679.54	23.163
679.86	27.623
680.18	23.431
680.51	24.846
680.83	27.292
681.15	27.451
681.48	25.957
681.80	26.087
682.12	27.409
682.44	26.509
682.77	23.864
683.09	29.657
683.41	26.817
683.73	25.628
684.06	25.635
684.38	27.338
684.70	26.097
685.02	23.377
685.34	24.268
685.67	26.285
685.99	27.345
686.31	25.933
686.63	27.573
686.96	25.813
687.28	26.283
687.60	24.846
687.92	22.574
688.24	23.579
688.56	25.055
688.89	29.224
689.21	25.116
689.53	22.506
689.85	27.342
690.17	23.284
690.49	28.471
690.82	26.536
691.14	28.460
691.46	24.250
691.78	27.512
692.10	26.835
692.42	26.835
692.74	23.934
693.06	29.880
693.39	24.877
693.71	21.860
694.03	25.845
694.35	22.772
694.67	28.753
694.99	26.954
695.31	25.212
695.63	23.514
695.95	25.000
696.27	29.462
696.59	22.849
696.91	25.641
697.23	26.934
697.56	27.979
697.88	25.293
698.20	24.939
698.52	24.279
698.84	22.807
699.16	22.164
699.48	26.178
699.80	25.824
700.12	24.242
700.44	20.649
700.76	24.606
701.08	24.127
701.40	25.658
701.72	28.000
702.04	23.129
702.36	28.197
702.68	30.201
703.00	24.606
703.32	20.659
703.64	28.076
703.96	23.418
704.28	22.183
704.60	20.548
704.91	23.026
705.23	23.509
705.55	21.933
705.87	25.540
706.19	27.092
706.51	24.219
706.83	23.443
707.15	21.695
707.47	25.150
707.79	21.777
708.11	25.926
708.43	25.067
708.74	24.317
709.06	20.859
709.38	26.113
709.70	19.805
710.02	22.727
710.34	24.823
710.66	20.974
710.98	26.923
711.29	27.491
711.61	21.631
711.93	21.723
712.25	25.660
712.57	21.484
712.89	24.898
713.20	31.452
713.52	17.480
713.84	21.533
714.16	29.730
714.48	25.256
714.80	28.620
715.11	23.368
715.43	26.621
715.75	28.070
716.07	25.455
716.39	20.478
716.70	20.800
717.02	17.742
717.34	21.212
717.66	25.000
717.97	26.389
718.29	22.222
718.61	17.117
718.93	21.429
719.24	23.431
719.56	18.750
719.88	21.176
720.20	20.940
720.51	25.877
720.83	21.339
721.15	24.082
721.46	22.363
721.78	22.944
722.10	22.093
722.42	27.826
722.73	19.457
723.05	17.512
723.37	28.054
723.68	25.592
724.00	20.833
724.32	23.364
724.63	19.910
724.95	18.265
725.27	26.761
725.58	19.635
725.90	15.766
726.22	24.017
726.53	21.721
726.85	19.630
727.16	26.316
727.48	23.387
727.80	15.525
728.11	24.000
728.43	25.926
728.74	18.421
729.06	20.524
729.38	24.031
729.69	18.400
730.01	23.431
730.32	18.725
730.64	21.538
730.96	17.375
731.27	18.147
731.59	19.192
731.90	20.395
732.22	26.246
732.53	15.789
732.85	18.310
733.16	25.275
733.48	17.910
733.80	28.364
734.11	22.695
734.43	24.910
734.74	22.430
735.06	23.473
735.37	19.808
735.69	20.775
736.00	22.963
736.32	22.028
736.63	24.444
736.95	17.899
737.26	19.928
737.58	17.153
737.89	22.264
738.21	22.901
738.52	25.410
738.83	24.359
739.15	25.909
739.46	15.315
739.78	20.849
740.09	20.635
740.41	20.455
740.72	19.522
741.04	21.344
741.35	23.767
741.66	22.043
741.98	11.735
742.29	18.135
742.61	12.139
742.92	19.608
743.23	20.896
743.55	18.653
743.86	20.290
744.18	19.500
744.49	23.333
744.80	23.118
745.12	20.000
745.43	19.786
745.74	19.251
746.06	26.437
746.37	17.778
746.68	11.892
747.00	13.260
747.31	21.990
747.62	23.158
747.94	21.698
748.25	25.123
748.56	23.737
748.88	20.765
749.19	24.352
749.50	21.765
749.82	26.500
750.13	20.874
750.44	19.742
750.75	24.800
751.07	19.665
751.38	15.625
751.69	26.190
752.01	21.849
752.32	23.967
752.63	26.638
752.94	22.000
753.26	19.178
753.57	19.905
753.88	14.419
754.19	15.419
754.51	19.247
754.82	21.250
755.13	19.469
755.44	19.481
755.75	22.490
756.07	21.030
756.38	21.339
756.69	26.038
757.00	19.858
757.31	19.031
757.63	19.935
757.94	20.000
758.25	21.131
758.56	21.081
758.87	19.048
759.18	26.168
759.50	16.370
759.81	22.780
760.12	23.843
760.43	25.581
760.74	18.563
761.05	17.949
761.36	26.409
761.67	18.541
761.99	22.742
762.30	17.455
762.61	18.293
762.92	17.778
763.23	20.465
763.54	21.827
763.85	23.077
764.16	18.261
764.47	17.826
764.78	25.403
765.10	22.047
765.41	20.736
765.72	22.742
766.03	20.401
766.34	19.697
766.65	18.750
766.96	22.667
767.27	22.346
767.58	20.755
767.89	18.831
768.20	14.189
768.51	19.540
768.82	7.500
769.13	22.222
769.44	20.755
769.75	13.235
770.06	14.078
770.37	17.021
770.68	11.282
770.99	19.797
771.30	17.010
771.61	12.108
771.92	20.283
772.23	15.865
772.54	11.176
772.85	16.438
773.16	14.839
773.47	18.471
773.78	25.150
774.09	15.132
774.39	19.118
774.70	9.023
775.01	16.923
775.32	11.905
775.63	17.323
775.94	5.660
776.25	19.259
776.56	15.455
776.87	14.530
777.18	22.000
777.48	6.731
777.79	14.815
778.10	14.151
778.41	23.529
778.72	14.151
779.03	8.772
779.34	14.286
779.65	22.535
779.95	12.230
780.26	4.032
780.57	22.464
780.88	16.514
781.19	13.889
781.50	10.656
781.80	10.949
782.11	11.538
782.42	14.483
782.73	23.077
783.04	7.200
783.34	16.000
783.65	17.886
783.96	9.016
784.27	14.286
784.57	15.888
784.88	12.500
785.19	17.526
785.50	4.211
785.81	8.000
786.11	4.950
786.42	-18.824
786.73	14.583
787.04	1.020
787.34	16.667
787.65	20.755
787.96	5.155
788.26	15.842
788.57	17.391
788.88	0.000
789.19	14.050
789.49	10.435
789.80	5.172
790.11	0.000
790.41	16.854
790.72	-2.326
791.03	3.488
791.33	0.000
791.64	12.195
791.95	14.634
792.25	-2.410
792.56	1.235
792.87	-7.042
793.17	14.458
793.48	3.529
793.79	7.500
794.09	-5.000
794.40	15.217
794.70	8.696
795.01	9.174
795.32	7.874
795.62	15.686
795.93	10.784
796.23	15.152
796.54	0.000
796.85	11.594
797.15	3.125
797.46	-11.864
797.76	4.918
798.07	-7.895
798.37	1.613
798.68	-20.312
798.99	4.615
799.29	3.030
799.60	-2.899
799.90	15.714
800.21	-10.526
800.51	-12.069
800.82	-11.321
801.12	0.000
801.43	0.000
801.73	-12.903
802.04	8.000
802.34	-7.547
802.65	-7.895
802.95	-3.636
803.26	-13.208
803.56	0.000
803.87	-26.000
804.17	-25.926
804.48	1.923
804.78	-26.531
805.09	10.638
805.39	5.085
805.70	-29.167
806.00	-12.500
806.30	3.390
806.61	4.615
806.91	-15.385
807.22	-7.895
807.52	8.571
807.83	0.000
808.13	6.329
808.43	-6.557
808.74	0.000
809.04	8.108
809.35	-7.407
809.65	8.929
809.95	-10.169
810.26	-10.204
810.56	9.434
810.86	-5.882
811.17	-13.514
811.47	-74.074
811.77	-1.961
812.08	6.818
812.38	-33.333
812.69	-17.949
812.99	19.048
813.29	17.391
813.59	-5.714
813.90	-2.381
814.20	-9.091
814.50	2.041
814.81	-15.686
815.11	-8.333
815.41	-36.585
815.72	-73.077
816.02	-8.511
816.32	-12.500
816.62	-12.121
816.93	-39.394
817.23	-29.730
817.53	-26.471
817.84	20.000
818.14	-58.824
818.44	-9.375
818.74	-100.000
819.04	-60.000
819.35	-17.143
819.65	6.818
819.95	-5.128
820.25	-27.778
820.56	-37.931
820.86	-32.143
821.16	-108.696
821.46	-7.143
821.76	9.259
822.07	-21.739
822.37	-26.531
822.67	-4.651
822.97	-52.174
823.27	-50.000
823.57	-62.963
823.88	-21.429
824.18	-5.128
824.48	3.571
824.78	-6.061
825.08	-153.333
825.38	-5.000
825.69	-94.444
825.99	-48.148
826.29	15.556
826.59	-51.852
826.89	-40.741
827.19	-39.286
827.49	-54.545
827.79	-68.182
828.09	-104.545
828.39	-100.000
828.70	-25.926
829.00	-35.714
829.30	-7.143
829.60	-19.355
829.90	-57.692
830.20	-7.692
830.50	-63.636
830.80	-28.571
831.10	-122.222
831.40	-192.857
831.70	-44.444
832.00	-70.588
832.30	-17.391
832.60	-20.833
832.90	-190.909
833.20	-83.333
833.50	-3.125
833.80	26.923
834.10	20.000
834.40	-41.667
834.70	-77.273
835.00	15.385
835.30	-135.000
835.60	-200.000
835.90	5.000
836.20	-64.286
836.50	-26.087
836.80	-77.778
837.10	-80.000
837.40	-120.000
837.70	-43.478
838.00	-128.571
838.30	2200.000
838.60	-8.000
838.90	-400.000
839.19	-144.444
839.49	-1150.000
839.79	-100.000
840.09	-66.667
840.39	0.000
840.69	-83.333
840.99	-133.333
841.29	-17.241
841.59	-120.000
841.88	-172.727
842.18	-450.000
842.48	-12.500
842.78	-34.615
843.08	-164.706
843.38	-55.000
843.68	-107.692
843.97	-94.118
844.27	-40.000
844.57	-45.833
844.87	-90.909
845.17	-89.474
845.47	-88.889
845.76	-13.889
846.06	-47.619
846.36	-71.429
846.66	-188.889
846.96	-75.000
847.25	-380.000
847.55	-150.000
847.85	-66.667
848.15	-250.000
848.44	-52.632
848.74	-46.667
849.04	-68.421
849.34	-366.667
849.63	-66.667
849.93	-70.588
850.23	-200.000
850.53	-566.667
850.82	-340.000
851.12	-177.778
851.42	-171.429
851.71	-400.000
852.01	-64.286
852.31	-633.333
852.61	-92.308
852.90	-400.000
853.20	-300.000
853.50	-233.333
853.79	-150.000
854.09	-130.000
854.39	-121.053
854.68	-55.000
854.98	-375.000
855.28	-33.333
855.57	-107.143
855.87	-126.316
856.17	-81.250
856.46	-57.692
856.76	-40.000
857.05	-112.500
857.35	-16.667
857.65	-50.000
857.94	-125.000
858.24	-34.783
858.53	-260.000
858.83	-633.333
859.13	-190.909
859.42	-270.000
859.72	83.333
860.01	-92.308
860.31	-170.000
860.60	-375.000
860.90	-525.000
861.20	-383.333
861.49	-400.000
861.79	500.000
862.08	0.000
862.38	-52.632
862.67	-76.923
862.97	-240.000
863.26	-66.667
863.56	-34.783
863.85	-300.000
864.15	-107.143
864.44	-56.250
864.74	-91.667
865.03	-177.778
865.33	-900.000
865.62	-2700.000
865.92	-1050.000
866.21	-266.667
866.51	-45.455
866.80	-666.667
867.10	-228.571
867.39	-55.556
867.69	-141.667
867.98	320.000
868.27	-175.000
868.57	600.000
868.86	-80.000
869.16	-46.154
869.45	1450.000
869.75	-66.667
870.04	-216.667
870.33	47.059
870.63	-214.286
870.92	4.348
871.22	-250.000
871.51	520.000
871.80	-50.000
872.10	-666.667
>>>>>End Processed Spectral Data<<<<<
