SpectraSuite Data File
++++++++++++++++++++++++++++++++++++
Date: Tue May 12 19:47:46 PDT 2015
User: schluterlab
Dark Spectrum Present: Yes
Reference Spectrum Present: Yes
Number of Sampled Component Spectra: 1
Spectrometers: USB2E3373
Integration Time (usec): 3000 (USB2E3373)
Spectra Averaged: 3 (USB2E3373)
Boxcar Smoothing: 0 (USB2E3373)
Correct for Electrical Dark: No (USB2E3373)
Strobe/Lamp Enabled: No (USB2E3373)
Correct for Detector Non-linearity: No (USB2E3373)
Correct for Stray Light: No (USB2E3373)
Number of Pixels in Processed Spectrum: 2048
>>>>>Begin Processed Spectral Data<<<<<
178.53	0.000
178.91	-160.000
179.29	-200.000
179.67	566.667
180.04	0.000
180.42	-240.000
180.80	-500.000
181.18	1050.000
181.56	-350.000
181.94	183.333
182.31	1000.000
182.69	-28.571
183.07	0.000
183.45	166.667
183.83	400.000
184.20	266.667
184.58	1050.000
184.96	200.000
185.34	-66.667
185.72	-100.000
186.09	-200.000
186.47	-1100.000
186.85	-140.000
187.23	141.667
187.61	-185.714
187.98	-280.000
188.36	250.000
188.74	-200.000
189.12	-122.222
189.49	-80.000
189.87	300.000
190.25	122.222
190.63	666.667
191.00	360.000
191.38	-400.000
191.76	460.000
192.14	-57.143
192.51	-90.000
192.89	-140.000
193.27	-180.000
193.65	-733.333
194.02	-233.333
194.40	1400.000
194.78	-137.500
195.15	-228.571
195.53	66.667
195.91	320.000
196.29	-600.000
196.66	-233.333
197.04	-114.286
197.42	160.000
197.79	-175.000
198.17	-58.333
198.55	-200.000
198.92	-144.444
199.30	500.000
199.68	-100.000
200.05	-1150.000
200.43	-38.889
200.81	-41.667
201.18	283.333
201.56	0.000
201.94	-1800.000
202.31	-100.000
202.69	55.556
203.07	-91.667
203.44	-100.000
203.82	0.000
204.19	350.000
204.57	-300.000
204.95	109.091
205.32	200.000
205.70	350.000
206.08	-300.000
206.45	0.000
206.83	2600.000
207.20	-222.222
207.58	-30.769
207.96	200.000
208.33	566.667
208.71	-33.333
209.08	350.000
209.46	22.222
209.84	533.333
210.21	-666.667
210.59	600.000
210.96	155.556
211.34	-25.000
211.71	900.000
212.09	-60.000
212.46	-125.000
212.84	-175.000
213.22	42.857
213.59	25.000
213.97	0.000
214.34	-200.000
214.72	-900.000
215.09	750.000
215.47	-46.667
215.84	-75.000
216.22	-900.000
216.59	700.000
216.97	-66.667
217.34	66.667
217.72	-11.111
218.09	275.000
218.47	-10.526
218.84	-137.500
219.22	-64.286
219.59	-180.000
219.97	-30.000
220.34	283.333
220.72	81.818
221.09	-900.000
221.47	0.000
221.84	250.000
222.22	-325.000
222.59	-275.000
222.97	13.043
223.34	140.000
223.72	257.143
224.09	33.333
224.46	215.385
224.84	-80.000
225.21	-500.000
225.59	-175.000
225.96	50.000
226.34	233.333
226.71	230.000
227.08	-38.462
227.46	-142.857
227.83	-58.333
228.21	-550.000
228.58	266.667
228.95	-21.053
229.33	12.500
229.70	-16.667
230.08	-133.333
230.45	-466.667
230.82	-1800.000
231.20	9.524
231.57	0.000
231.95	-500.000
232.32	122.222
232.69	-400.000
233.07	31.250
233.44	-62.500
233.81	25.806
234.19	-260.000
234.56	-22.222
234.93	-100.000
235.31	-14.815
235.68	-29.630
236.05	-11.538
236.43	-26.316
236.80	0.000
237.17	-64.286
237.55	-35.000
237.92	30.233
238.29	9.677
238.67	14.286
239.04	25.714
239.41	13.725
239.79	10.000
240.16	22.500
240.53	13.793
240.91	12.329
241.28	28.169
241.65	29.688
242.02	3.509
242.40	21.333
242.77	20.000
243.14	35.294
243.51	33.333
243.89	26.667
244.26	26.852
244.63	28.571
245.00	25.000
245.38	27.731
245.75	22.034
246.12	24.219
246.49	29.600
246.87	27.869
247.24	21.127
247.61	27.152
247.98	29.213
248.36	27.673
248.73	32.955
249.10	28.889
249.47	29.167
249.84	28.426
250.22	29.167
250.59	33.146
250.96	32.727
251.33	31.604
251.70	31.193
252.08	33.766
252.45	30.204
252.82	30.380
253.19	32.296
253.56	38.039
253.94	32.927
254.31	38.489
254.68	30.556
255.05	37.748
255.42	33.818
255.79	35.762
256.16	36.458
256.54	34.242
256.91	34.295
257.28	35.390
257.65	35.410
258.02	33.033
258.39	34.441
258.76	31.804
259.14	31.471
259.51	34.930
259.88	34.582
260.25	31.250
260.62	32.303
260.99	31.198
261.36	31.897
261.73	36.267
262.10	34.060
262.47	37.466
262.85	33.933
263.22	36.559
263.59	31.635
263.96	32.115
264.33	29.111
264.70	33.661
265.07	34.729
265.44	35.597
265.81	37.108
266.18	34.660
266.55	34.762
266.92	34.375
267.29	35.111
267.66	32.727
268.03	32.473
268.40	35.011
268.77	33.185
269.14	32.353
269.51	34.615
269.88	32.051
270.25	32.700
270.62	34.244
270.99	33.263
271.36	33.333
271.73	33.125
272.10	35.477
272.47	31.600
272.84	31.847
273.21	31.315
273.58	31.020
273.95	29.880
274.32	31.528
274.69	31.311
275.06	31.895
275.43	34.400
275.80	34.608
276.17	32.609
276.54	34.411
276.91	34.357
277.28	32.108
277.65	29.679
278.02	33.712
278.39	31.397
278.76	33.333
279.13	31.843
279.50	34.477
279.87	33.585
280.23	32.058
280.60	29.329
280.97	30.931
281.34	33.559
281.71	31.616
282.08	32.379
282.45	30.159
282.82	31.313
283.19	31.818
283.56	33.618
283.92	30.648
284.29	31.303
284.66	31.150
285.03	28.988
285.40	33.333
285.77	32.512
286.14	29.160
286.51	30.707
286.87	29.498
287.24	27.244
287.61	30.864
287.98	33.177
288.35	28.992
288.72	30.428
289.08	27.201
289.45	27.769
289.82	27.484
290.19	27.879
290.56	29.522
290.93	28.360
291.29	28.936
291.66	29.073
292.03	28.121
292.40	29.784
292.77	26.385
293.13	27.753
293.50	26.584
293.87	28.017
294.24	26.966
294.60	24.863
294.97	26.593
295.34	25.068
295.71	26.075
296.08	27.049
296.44	25.165
296.81	24.968
297.18	25.356
297.55	24.246
297.91	24.239
298.28	25.831
298.65	23.674
299.02	25.894
299.38	24.745
299.75	26.384
300.12	23.741
300.48	24.178
300.85	22.983
301.22	24.519
301.59	23.601
301.95	24.146
302.32	22.965
302.69	23.900
303.05	23.259
303.42	24.034
303.79	24.045
304.15	25.255
304.52	23.352
304.89	23.224
305.25	23.280
305.62	23.068
305.99	21.725
306.35	23.043
306.72	24.292
307.09	24.048
307.45	23.517
307.82	21.665
308.19	24.642
308.55	22.152
308.92	22.352
309.29	24.163
309.65	24.252
310.02	22.432
310.38	23.134
310.75	22.643
311.12	23.601
311.48	24.152
311.85	22.492
312.22	24.897
312.58	24.572
312.95	22.895
313.31	22.812
313.68	23.436
314.05	23.635
314.41	24.361
314.78	23.819
315.14	24.780
315.51	26.316
315.87	25.977
316.24	25.519
316.61	26.117
316.97	25.686
317.34	25.933
317.70	26.331
318.07	28.158
318.43	27.694
318.80	27.687
319.16	29.171
319.53	28.208
319.89	29.640
320.26	29.794
320.62	30.717
320.99	32.653
321.35	30.435
321.72	33.333
322.08	33.861
322.45	32.939
322.81	34.975
323.18	35.091
323.54	35.640
323.91	37.192
324.27	37.030
324.64	36.551
325.00	39.035
325.37	39.748
325.73	40.055
326.10	40.543
326.46	41.704
326.83	43.799
327.19	43.493
327.56	45.004
327.92	44.271
328.29	44.624
328.65	46.893
329.01	47.248
329.38	48.393
329.74	47.261
330.11	48.276
330.47	49.255
330.84	48.120
331.20	49.815
331.56	50.660
331.93	51.418
332.29	51.064
332.66	52.260
333.02	51.718
333.38	51.379
333.75	51.601
334.11	52.170
334.48	51.163
334.84	51.549
335.20	52.193
335.57	53.860
335.93	53.674
336.29	53.291
336.66	55.373
337.02	53.309
337.38	55.849
337.75	54.364
338.11	54.512
338.47	54.782
338.84	54.696
339.20	54.812
339.56	57.409
339.93	54.144
340.29	56.301
340.65	57.260
341.02	55.004
341.38	56.046
341.74	55.605
342.11	55.349
342.47	56.731
342.83	55.681
343.20	57.825
343.56	58.392
343.92	57.655
344.28	57.804
344.65	57.449
345.01	57.666
345.37	58.974
345.73	59.087
346.10	59.983
346.46	56.773
346.82	59.303
347.19	57.948
347.55	59.184
347.91	57.002
348.27	57.709
348.63	60.847
349.00	59.850
349.36	59.687
349.72	59.688
350.08	59.820
350.45	60.212
350.81	60.859
351.17	60.461
351.53	58.213
351.89	60.363
352.26	60.569
352.62	60.016
352.98	61.088
353.34	61.069
353.70	61.564
354.07	60.626
354.43	61.269
354.79	61.393
355.15	61.340
355.51	63.488
355.87	63.031
356.24	63.072
356.60	62.688
356.96	61.769
357.32	63.704
357.68	63.484
358.04	63.128
358.40	65.548
358.77	62.892
359.13	64.980
359.49	65.040
359.85	65.707
360.21	65.266
360.57	64.753
360.93	66.587
361.29	65.187
361.66	66.877
362.02	68.524
362.38	66.977
362.74	67.794
363.10	66.516
363.46	67.344
363.82	66.233
364.18	67.979
364.54	69.618
364.90	70.222
365.26	68.852
365.62	69.266
365.98	71.139
366.35	70.953
366.71	70.874
367.07	71.144
367.43	69.675
367.79	70.058
368.15	72.721
368.51	73.258
368.87	73.568
369.23	75.019
369.59	74.191
369.95	73.249
370.31	73.788
370.67	73.008
371.03	75.232
371.39	74.698
371.75	73.180
372.11	74.444
372.47	75.130
372.83	76.406
373.19	76.431
373.55	78.443
373.91	78.712
374.27	78.661
374.63	77.467
374.99	78.258
375.35	79.463
375.71	79.053
376.07	77.032
376.42	79.184
376.78	80.348
377.14	78.492
377.50	80.711
377.86	82.382
378.22	83.223
378.58	82.697
378.94	81.598
379.30	81.789
379.66	82.778
380.02	83.598
380.38	84.669
380.74	84.649
381.09	84.180
381.45	85.587
381.81	86.161
382.17	84.886
382.53	87.968
382.89	87.043
383.25	85.415
383.61	87.285
383.97	88.824
384.32	87.548
384.68	87.676
385.04	88.797
385.40	89.521
385.76	89.690
386.12	88.515
386.48	90.541
386.83	90.849
387.19	92.529
387.55	92.617
387.91	91.090
388.27	91.555
388.62	91.645
388.98	93.639
389.34	92.323
389.70	92.692
390.06	93.003
390.42	95.943
390.77	96.714
391.13	96.291
391.49	96.563
391.85	97.006
392.20	98.416
392.56	96.464
392.92	98.887
393.28	95.272
393.64	99.240
393.99	97.792
394.35	98.897
394.71	98.543
395.07	99.469
395.42	98.540
395.78	99.798
396.14	100.999
396.50	100.129
396.85	100.595
397.21	99.741
397.57	100.527
397.92	100.573
398.28	102.338
398.64	100.762
399.00	101.103
399.35	101.348
399.71	101.377
400.07	102.285
400.42	103.526
400.78	103.583
401.14	102.399
401.49	103.998
401.85	103.746
402.21	104.442
402.57	103.091
402.92	106.242
403.28	104.486
403.63	104.808
403.99	104.227
404.35	104.713
404.70	105.383
405.06	107.626
405.42	106.701
405.77	104.935
406.13	104.600
406.49	106.877
406.84	107.846
407.20	105.204
407.55	108.350
407.91	106.573
408.27	108.511
408.62	105.981
408.98	107.529
409.34	107.618
409.69	106.421
410.05	108.290
410.40	106.808
410.76	108.468
411.11	107.563
411.47	108.844
411.83	107.727
412.18	109.424
412.54	107.180
412.89	108.290
413.25	111.473
413.60	108.418
413.96	110.809
414.31	109.624
414.67	110.601
415.03	109.959
415.38	111.490
415.74	110.007
416.09	111.440
416.45	111.465
416.80	111.474
417.16	111.001
417.51	111.520
417.87	112.859
418.22	111.898
418.58	112.094
418.93	111.863
419.29	112.076
419.64	117.514
420.00	112.967
420.35	112.743
420.71	112.292
421.06	113.822
421.42	114.053
421.77	115.408
422.12	113.172
422.48	113.192
422.83	114.650
423.19	113.588
423.54	115.272
423.90	114.091
424.25	115.227
424.61	115.871
424.96	115.663
425.31	116.486
425.67	114.121
426.02	116.398
426.38	114.994
426.73	115.202
427.09	116.612
427.44	115.802
427.79	118.812
428.15	114.838
428.50	117.839
428.85	117.126
429.21	117.753
429.56	116.575
429.92	115.197
430.27	115.573
430.62	116.549
430.98	113.702
431.33	117.631
431.68	116.630
432.04	119.333
432.39	118.004
432.74	116.445
433.10	117.586
433.45	119.633
433.80	117.083
434.16	117.089
434.51	117.280
434.86	119.577
435.22	118.102
435.57	120.580
435.92	117.214
436.28	117.995
436.63	119.201
436.98	120.988
437.34	122.393
437.69	119.630
438.04	119.531
438.39	120.431
438.75	118.892
439.10	120.179
439.45	122.593
439.81	121.079
440.16	123.438
440.51	119.579
440.86	121.149
441.22	120.071
441.57	119.658
441.92	123.081
442.27	122.057
442.63	122.178
442.98	121.638
443.33	121.857
443.68	121.021
444.03	118.866
444.39	122.853
444.74	120.950
445.09	123.967
445.44	120.000
445.79	123.517
446.15	122.274
446.50	122.846
446.85	121.947
447.20	121.171
447.55	120.361
447.91	121.693
448.26	122.374
448.61	121.934
448.96	120.993
449.31	122.664
449.66	120.642
450.02	121.953
450.37	121.142
450.72	122.741
451.07	123.204
451.42	123.254
451.77	122.951
452.12	122.306
452.47	122.358
452.83	123.163
453.18	125.861
453.53	122.992
453.88	123.995
454.23	121.661
454.58	123.564
454.93	121.253
455.28	123.829
455.63	122.937
455.98	123.414
456.34	123.577
456.69	124.035
457.04	120.538
457.39	122.722
457.74	124.083
458.09	122.215
458.44	122.379
458.79	120.377
459.14	121.705
459.49	123.248
459.84	123.424
460.19	122.952
460.54	120.581
460.89	121.824
461.24	123.377
461.59	123.407
461.94	121.828
462.29	121.805
462.64	123.189
462.99	124.946
463.34	123.736
463.69	124.005
464.04	123.412
464.39	122.765
464.74	122.064
465.09	119.678
465.44	121.356
465.79	120.878
466.14	119.809
466.49	121.118
466.84	121.007
467.19	119.298
467.54	119.894
467.89	123.187
468.24	122.348
468.59	121.990
468.94	121.587
469.29	122.630
469.64	123.778
469.99	122.278
470.34	121.924
470.68	123.769
471.03	121.752
471.38	125.804
471.73	122.820
472.08	123.274
472.43	124.066
472.78	122.408
473.13	123.158
473.48	123.997
473.83	123.184
474.17	120.881
474.52	123.510
474.87	123.169
475.22	121.728
475.57	122.620
475.92	122.172
476.27	120.072
476.61	121.513
476.96	124.481
477.31	123.687
477.66	122.429
478.01	124.426
478.36	122.006
478.70	123.944
479.05	124.028
479.40	123.162
479.75	125.294
480.10	123.864
480.45	123.613
480.79	124.027
481.14	122.509
481.49	123.290
481.84	124.343
482.19	122.683
482.53	121.814
482.88	123.488
483.23	122.814
483.58	122.673
483.92	121.658
484.27	122.943
484.62	122.914
484.97	120.562
485.31	118.600
485.66	116.243
486.01	114.636
486.36	114.917
486.70	117.199
487.05	118.052
487.40	118.521
487.75	117.206
488.09	116.228
488.44	117.150
488.79	116.972
489.13	119.285
489.48	118.330
489.83	118.816
490.17	121.894
490.52	119.551
490.87	121.810
491.22	121.943
491.56	119.862
491.91	121.787
492.26	121.928
492.60	120.408
492.95	120.637
493.30	123.262
493.64	121.197
493.99	122.177
494.34	120.882
494.68	120.416
495.03	121.298
495.37	120.882
495.72	122.943
496.07	122.110
496.41	119.960
496.76	119.007
497.11	122.255
497.45	120.090
497.80	119.418
498.14	122.281
498.49	121.196
498.84	118.973
499.18	119.927
499.53	121.391
499.87	120.686
500.22	122.442
500.56	121.245
500.91	121.185
501.26	119.790
501.60	120.336
501.95	121.955
502.29	122.370
502.64	118.168
502.98	120.040
503.33	120.719
503.67	120.827
504.02	121.399
504.36	120.442
504.71	121.330
505.06	123.032
505.40	122.520
505.75	120.274
506.09	121.614
506.44	120.708
506.78	123.608
507.13	123.290
507.47	123.601
507.82	123.214
508.16	123.664
508.51	123.468
508.85	123.681
509.19	122.106
509.54	126.799
509.88	124.108
510.23	124.775
510.57	125.554
510.92	123.413
511.26	124.756
511.61	124.486
511.95	123.597
512.30	125.565
512.64	122.581
512.98	126.167
513.33	121.630
513.67	124.251
514.02	127.043
514.36	123.962
514.70	126.655
515.05	128.110
515.39	128.795
515.74	128.133
516.08	128.186
516.42	127.906
516.77	128.509
517.11	126.728
517.46	128.982
517.80	130.121
518.14	126.755
518.49	131.113
518.83	130.739
519.17	128.599
519.52	126.858
519.86	131.159
520.20	128.726
520.55	131.136
520.89	132.456
521.23	130.528
521.58	128.373
521.92	129.907
522.26	130.859
522.61	131.399
522.95	130.411
523.29	133.063
523.64	132.361
523.98	128.965
524.32	131.650
524.66	131.271
525.01	134.502
525.35	131.259
525.69	130.833
526.04	136.364
526.38	130.843
526.72	131.181
527.06	134.388
527.41	134.585
527.75	135.319
528.09	132.673
528.43	131.184
528.78	133.683
529.12	131.644
529.46	131.096
529.80	131.042
530.15	132.453
530.49	132.915
530.83	133.912
531.17	131.144
531.51	133.547
531.86	130.112
532.20	128.932
532.54	132.734
532.88	132.655
533.22	132.256
533.57	129.931
533.91	132.691
534.25	131.568
534.59	131.774
534.93	131.901
535.27	130.438
535.62	129.237
535.96	131.263
536.30	128.462
536.64	130.258
536.98	129.646
537.32	130.729
537.66	127.786
538.01	132.106
538.35	131.200
538.69	127.601
539.03	129.416
539.37	128.715
539.71	130.000
540.05	130.463
540.39	128.540
540.73	127.473
541.07	132.353
541.42	127.299
541.76	129.209
542.10	127.260
542.44	128.829
542.78	128.226
543.12	127.726
543.46	129.285
543.80	125.375
544.14	127.168
544.48	127.368
544.82	126.118
545.16	130.942
545.50	128.675
545.84	127.359
546.18	128.689
546.52	128.363
546.86	127.621
547.20	127.879
547.54	127.293
547.88	126.567
548.22	125.949
548.56	125.722
548.90	123.368
549.24	126.023
549.58	125.931
549.92	123.308
550.26	125.714
550.60	127.756
550.94	128.651
551.28	126.585
551.62	129.238
551.96	124.441
552.30	125.426
552.64	125.695
552.98	123.180
553.32	123.788
553.66	124.886
554.00	126.950
554.34	127.188
554.68	126.396
555.02	126.825
555.36	126.132
555.69	124.904
556.03	123.725
556.37	122.431
556.71	123.379
557.05	122.813
557.39	126.586
557.73	122.091
558.07	124.022
558.41	122.346
558.75	126.390
559.08	128.085
559.42	125.418
559.76	125.864
560.10	125.591
560.44	122.882
560.78	122.690
561.12	122.239
561.45	123.735
561.79	120.558
562.13	122.090
562.47	123.471
562.81	120.546
563.15	121.293
563.48	121.049
563.82	122.707
564.16	119.956
564.50	118.338
564.84	119.702
565.17	122.246
565.51	119.634
565.85	117.606
566.19	118.580
566.52	121.075
566.86	120.492
567.20	118.164
567.54	117.039
567.88	116.869
568.21	115.299
568.55	115.903
568.89	117.473
569.23	112.851
569.56	113.195
569.90	113.319
570.24	109.023
570.57	111.023
570.91	110.044
571.25	109.573
571.59	107.803
571.92	106.667
572.26	106.017
572.60	106.960
572.93	105.992
573.27	105.516
573.61	106.345
573.95	104.441
574.28	105.186
574.62	102.452
574.96	103.859
575.29	102.117
575.63	102.268
575.97	101.824
576.30	103.528
576.64	102.646
576.98	102.001
577.31	102.743
577.65	102.852
577.98	100.873
578.32	101.652
578.66	100.772
578.99	101.607
579.33	100.256
579.67	101.226
580.00	100.052
580.34	100.407
580.67	100.203
581.01	101.046
581.35	99.372
581.68	99.074
582.02	99.053
582.35	98.923
582.69	99.526
583.02	99.892
583.36	98.445
583.70	100.418
584.03	100.807
584.37	100.685
584.70	100.028
585.04	98.600
585.37	98.876
585.71	98.968
586.04	99.793
586.38	99.591
586.72	100.236
587.05	100.976
587.39	98.852
587.72	100.917
588.06	99.355
588.39	100.117
588.73	99.813
589.06	100.165
589.40	100.070
589.73	100.785
590.07	100.426
590.40	101.226
590.73	101.708
591.07	99.957
591.40	101.599
591.74	102.519
592.07	100.287
592.41	102.390
592.74	101.790
593.08	101.540
593.41	99.383
593.75	98.315
594.08	99.428
594.41	100.641
594.75	99.687
595.08	98.520
595.42	97.296
595.75	99.091
596.09	98.239
596.42	99.154
596.75	99.591
597.09	98.741
597.42	98.968
597.75	99.343
598.09	97.612
598.42	98.060
598.76	99.408
599.09	98.151
599.42	95.083
599.76	97.568
600.09	97.983
600.42	95.039
600.76	97.113
601.09	96.118
601.42	94.968
601.76	95.576
602.09	95.727
602.42	96.483
602.76	95.506
603.09	98.390
603.42	97.572
603.76	97.063
604.09	96.366
604.42	95.105
604.76	96.486
605.09	96.599
605.42	96.493
605.75	94.792
606.09	96.489
606.42	96.194
606.75	95.204
607.09	96.875
607.42	95.870
607.75	93.985
608.08	95.276
608.42	95.053
608.75	97.449
609.08	94.498
609.41	95.853
609.75	95.893
610.08	94.832
610.41	95.115
610.74	95.501
611.07	96.140
611.41	95.771
611.74	96.681
612.07	96.819
612.40	95.655
612.73	96.238
613.07	94.833
613.40	95.687
613.73	93.929
614.06	95.550
614.39	94.083
614.72	95.277
615.06	93.915
615.39	93.591
615.72	92.049
616.05	94.841
616.38	92.408
616.71	93.408
617.05	92.337
617.38	93.677
617.71	93.272
618.04	95.795
618.37	94.899
618.70	95.856
619.03	99.710
619.36	96.244
619.69	93.935
620.03	97.101
620.36	97.430
620.69	94.678
621.02	94.933
621.35	96.596
621.68	99.100
622.01	101.872
622.34	96.482
622.67	98.229
623.00	96.888
623.33	96.299
623.66	97.291
623.99	96.571
624.32	96.346
624.65	94.141
624.99	96.797
625.32	95.814
625.65	94.956
625.98	96.667
626.31	95.931
626.64	96.577
626.97	99.173
627.30	99.259
627.63	98.977
627.96	98.976
628.29	97.132
628.62	98.969
628.95	100.634
629.28	98.347
629.61	100.104
629.94	100.415
630.26	96.967
630.59	97.801
630.92	96.839
631.25	101.006
631.58	102.791
631.91	99.431
632.24	100.000
632.57	102.378
632.90	104.182
633.23	104.516
633.56	101.761
633.89	103.166
634.22	101.795
634.55	101.314
634.88	102.544
635.20	101.644
635.53	103.352
635.86	102.174
636.19	100.409
636.52	101.482
636.85	101.434
637.18	97.409
637.51	102.981
637.83	101.257
638.16	100.996
638.49	100.432
638.82	99.578
639.15	101.857
639.48	100.582
639.81	102.832
640.13	103.982
640.46	102.205
640.79	100.775
641.12	102.481
641.45	100.933
641.77	103.185
642.10	103.257
642.43	104.545
642.76	107.168
643.09	101.557
643.41	103.943
643.74	103.646
644.07	103.175
644.40	103.791
644.73	104.788
645.05	106.298
645.38	105.577
645.71	103.626
646.04	103.903
646.36	103.598
646.69	105.222
647.02	108.203
647.35	105.400
647.67	108.417
648.00	101.748
648.33	102.890
648.66	104.267
648.98	96.949
649.31	101.377
649.64	98.967
649.96	96.284
650.29	95.044
650.62	100.742
650.94	100.739
651.27	101.734
651.60	95.220
651.92	99.618
652.25	96.367
652.58	98.564
652.90	95.552
653.23	93.419
653.56	94.097
653.88	97.080
654.21	103.214
654.54	99.625
654.86	96.403
655.19	93.387
655.52	91.648
655.84	82.804
656.17	77.041
656.49	100.000
656.82	100.000
657.15	100.000
657.47	71.956
657.80	51.465
658.13	44.550
658.45	74.022
658.78	71.868
659.10	70.099
659.43	69.324
659.75	69.287
660.08	71.429
660.41	76.012
660.73	81.994
661.06	88.364
661.38	93.145
661.71	96.499
662.03	102.083
662.36	98.807
662.68	98.801
663.01	102.163
663.33	102.594
663.66	100.957
663.98	100.000
664.31	101.220
664.63	97.936
664.96	99.762
665.28	97.636
665.61	100.701
665.93	99.309
666.26	95.806
666.58	98.624
666.91	94.848
667.23	97.291
667.56	95.802
667.88	96.491
668.21	101.523
668.53	97.462
668.86	97.194
669.18	94.162
669.50	101.799
669.83	97.500
670.15	95.250
670.48	97.243
670.80	99.746
671.13	92.530
671.45	97.194
671.77	95.894
672.10	91.209
672.42	92.430
672.75	89.709
673.07	87.290
673.39	90.272
673.72	92.769
674.04	88.511
674.37	96.767
674.69	89.252
675.01	94.884
675.34	94.608
675.66	90.238
675.98	95.202
676.31	96.977
676.63	94.330
676.95	91.367
677.28	92.327
677.60	94.236
677.92	92.481
678.25	88.631
678.57	90.023
678.89	91.514
679.22	91.284
679.54	90.646
679.86	90.364
680.18	86.402
680.51	86.653
680.83	86.667
681.15	88.671
681.48	85.957
681.80	83.913
682.12	86.724
682.44	85.991
682.77	88.182
683.09	90.686
683.41	88.722
683.73	89.698
684.06	94.924
684.38	89.928
684.70	87.991
685.02	87.446
685.34	84.519
685.67	83.992
685.99	83.433
686.31	83.769
686.63	84.660
686.96	84.350
687.28	83.573
687.60	83.162
687.92	83.755
688.24	82.105
688.56	81.758
688.89	85.616
689.21	81.628
689.53	92.839
689.85	89.367
690.17	86.520
690.49	84.471
690.82	84.521
691.14	92.950
691.46	83.000
691.78	83.014
692.10	84.862
692.42	83.028
692.74	87.441
693.06	83.373
693.39	84.483
693.71	82.326
694.03	82.609
694.35	79.703
694.67	83.715
694.99	82.210
695.31	85.269
695.63	83.514
695.95	90.449
696.27	88.102
696.59	89.614
696.91	79.202
697.23	83.668
697.56	84.974
697.88	81.967
698.20	81.598
698.52	79.327
698.84	82.206
699.16	81.530
699.48	81.414
699.80	78.297
700.12	80.165
700.44	76.696
700.76	88.328
701.08	79.365
701.40	85.526
701.72	90.000
702.04	84.354
702.36	81.639
702.68	84.564
703.00	83.596
703.32	79.042
703.64	85.174
703.96	84.810
704.28	88.028
704.60	83.904
704.91	76.316
705.23	87.368
705.55	79.926
705.87	80.935
706.19	88.446
706.51	90.234
706.83	84.982
707.15	86.441
707.47	73.653
707.79	77.937
708.11	75.661
708.43	80.000
708.74	75.956
709.06	75.460
709.38	78.635
709.70	75.649
710.02	79.720
710.34	79.433
710.66	86.142
710.98	80.070
711.29	85.223
711.61	81.915
711.93	82.397
712.25	78.868
712.57	81.250
712.89	87.347
713.20	82.258
713.52	81.707
713.84	77.372
714.16	82.432
714.48	77.816
714.80	75.758
715.11	80.412
715.43	80.887
715.75	76.140
716.07	77.818
716.39	78.498
716.70	80.400
717.02	78.226
717.34	84.416
717.66	84.545
717.97	78.241
718.29	86.222
718.61	82.883
718.93	78.992
719.24	81.590
719.56	83.482
719.88	75.686
720.20	77.778
720.51	81.579
720.83	76.569
721.15	73.061
721.46	76.371
721.78	77.489
722.10	77.132
722.42	77.826
722.73	73.303
723.05	74.654
723.37	76.923
723.68	74.882
724.00	77.778
724.32	77.103
724.63	76.018
724.95	75.799
725.27	76.056
725.58	77.626
725.90	77.928
726.22	72.926
726.53	74.590
726.85	72.963
727.16	78.947
727.48	73.790
727.80	68.950
728.11	72.889
728.43	72.016
728.74	74.561
729.06	74.236
729.38	72.868
729.69	71.600
730.01	67.364
730.32	71.713
730.64	74.615
730.96	70.270
731.27	72.201
731.59	63.636
731.90	64.803
732.22	68.106
732.53	67.368
732.85	65.845
733.16	69.597
733.48	62.313
733.80	72.000
734.11	70.922
734.43	72.563
734.74	66.355
735.06	72.347
735.37	65.815
735.69	66.549
736.00	70.370
736.32	70.629
736.63	68.148
736.95	71.984
737.26	64.493
737.58	67.883
737.89	66.038
738.21	66.794
738.52	70.492
738.83	61.966
739.15	70.909
739.46	69.820
739.78	66.409
740.09	71.429
740.41	68.561
740.72	64.542
741.04	66.008
741.35	69.955
741.66	77.419
741.98	71.429
742.29	73.057
742.61	71.676
742.92	74.020
743.23	75.124
743.55	72.539
743.86	69.082
744.18	69.500
744.49	71.667
744.80	62.903
745.12	64.103
745.43	67.380
745.74	71.123
746.06	82.184
746.37	71.111
746.68	67.027
747.00	64.641
747.31	65.969
747.62	72.105
747.94	66.509
748.25	72.414
748.56	68.182
748.88	75.410
749.19	59.067
749.50	78.235
749.82	72.000
750.13	68.447
750.44	70.386
750.75	66.400
751.07	64.854
751.38	60.156
751.69	71.429
752.01	63.866
752.32	66.942
752.63	66.376
752.94	58.800
753.26	63.470
753.57	65.877
753.88	60.465
754.19	62.555
754.51	61.506
754.82	69.583
755.13	59.292
755.44	62.771
755.75	59.839
756.07	70.815
756.38	65.690
756.69	67.547
757.00	62.411
757.31	60.900
757.63	64.706
757.94	60.606
758.25	64.286
758.56	57.838
758.87	58.036
759.18	57.321
759.50	59.431
759.81	66.023
760.12	62.633
760.43	61.130
760.74	61.976
761.05	62.821
761.36	62.908
761.67	56.839
761.99	60.535
762.30	58.545
762.61	64.228
762.92	56.444
763.23	66.512
763.54	61.929
763.85	64.706
764.16	61.304
764.47	60.000
764.78	66.935
765.10	59.055
765.41	58.194
765.72	57.525
766.03	56.187
766.34	54.167
766.65	61.719
766.96	56.000
767.27	69.832
767.58	64.151
767.89	61.688
768.20	62.162
768.51	59.195
768.82	62.500
769.13	60.648
769.44	57.547
769.75	54.412
770.06	53.883
770.37	63.298
770.68	61.538
770.99	55.330
771.30	59.794
771.61	53.812
771.92	61.792
772.23	58.173
772.54	64.706
772.85	63.014
773.16	60.645
773.47	56.051
773.78	64.671
774.09	61.184
774.39	61.029
774.70	57.143
775.01	61.538
775.32	65.079
775.63	59.055
775.94	56.604
776.25	54.074
776.56	66.364
776.87	64.103
777.18	60.000
777.48	58.654
777.79	53.704
778.10	60.377
778.41	62.745
778.72	68.868
779.03	58.772
779.34	54.622
779.65	44.366
779.95	57.554
780.26	58.065
780.57	50.000
780.88	54.128
781.19	61.111
781.50	56.557
781.80	54.745
782.11	46.795
782.42	42.069
782.73	55.944
783.04	63.200
783.34	53.600
783.65	61.789
783.96	56.557
784.27	56.303
784.57	53.271
784.88	54.464
785.19	58.763
785.50	69.474
785.81	54.000
786.11	47.525
786.42	37.647
786.73	55.208
787.04	45.918
787.34	52.778
787.65	58.491
787.96	44.330
788.26	52.475
788.57	55.652
788.88	40.367
789.19	41.322
789.49	40.870
789.80	58.621
790.11	52.439
790.41	61.798
790.72	39.535
791.03	45.349
791.33	37.662
791.64	48.780
791.95	41.463
792.25	36.145
792.56	37.037
792.87	45.070
793.17	50.602
793.48	45.882
793.79	40.000
794.09	58.333
794.40	46.739
794.70	37.391
795.01	44.037
795.32	50.394
795.62	49.020
795.93	53.922
796.23	53.535
796.54	48.837
796.85	40.580
797.15	26.563
797.46	25.424
797.76	57.377
798.07	35.526
798.37	40.323
798.68	43.750
798.99	29.231
799.29	39.394
799.60	50.725
799.90	64.286
800.21	38.596
800.51	41.379
800.82	56.604
801.12	54.902
801.43	41.935
801.73	29.032
802.04	50.000
802.34	33.962
802.65	42.105
802.95	47.273
803.26	32.075
803.56	29.508
803.87	32.000
804.17	44.444
804.48	42.308
804.78	18.367
805.09	31.915
805.39	57.627
805.70	35.417
806.00	41.071
806.30	28.814
806.61	49.231
806.91	35.385
807.22	36.842
807.52	42.857
807.83	46.552
808.13	36.709
808.43	24.590
808.74	55.738
809.04	33.784
809.35	38.889
809.65	42.857
809.95	37.288
810.26	6.122
810.56	24.528
810.86	33.333
811.17	37.838
811.47	3.704
811.77	39.216
812.08	36.364
812.38	37.500
812.69	12.821
812.99	35.714
813.29	52.174
813.59	25.714
813.90	28.571
814.20	34.545
814.50	36.735
814.81	21.569
815.11	20.833
815.41	31.707
815.72	-3.846
816.02	23.404
816.32	21.875
816.62	45.455
816.93	-9.091
817.23	16.216
817.53	29.412
817.84	32.500
818.14	23.529
818.44	46.875
818.74	0.000
819.04	45.714
819.35	14.286
819.65	38.636
819.95	38.462
820.25	-16.667
820.56	20.690
820.86	21.429
821.16	-4.348
821.46	33.333
821.76	46.296
822.07	43.478
822.37	12.245
822.67	18.605
822.97	-17.391
823.27	0.000
823.57	0.000
823.88	10.714
824.18	25.641
824.48	7.143
824.78	39.394
825.08	-80.000
825.38	12.500
825.69	-66.667
825.99	77.778
826.29	37.778
826.59	22.222
826.89	-7.407
827.19	14.286
827.49	-22.727
827.79	-54.545
828.09	0.000
828.39	-8.696
828.70	0.000
829.00	3.571
829.30	9.524
829.60	38.710
829.90	3.846
830.20	7.692
830.50	22.727
830.80	-4.762
831.10	5.556
831.40	-14.286
831.70	-33.333
832.00	52.941
832.30	52.174
832.60	0.000
832.90	-54.545
833.20	5.556
833.50	40.625
833.80	-15.385
834.10	20.000
834.40	25.000
834.70	22.727
835.00	19.231
835.30	0.000
835.60	-60.000
835.90	15.000
836.20	14.286
836.50	-4.348
836.80	-38.889
837.10	20.000
837.40	-160.000
837.70	17.391
838.00	28.571
838.30	900.000
838.60	-4.000
838.90	-260.000
839.19	-55.556
839.49	-800.000
839.79	29.412
840.09	-11.111
840.39	14.286
840.69	-33.333
840.99	-33.333
841.29	13.793
841.59	-66.667
841.88	0.000
842.18	-183.333
842.48	-12.500
842.78	0.000
843.08	-70.588
843.38	-5.000
843.68	-107.692
843.97	5.882
844.27	-70.000
844.57	8.333
844.87	-63.636
845.17	-63.158
845.47	-55.556
845.76	5.556
846.06	-38.095
846.36	-92.857
846.66	-100.000
846.96	-30.000
847.25	-40.000
847.55	-187.500
847.85	26.667
848.15	25.000
848.44	5.263
848.74	60.000
849.04	-15.789
849.34	-133.333
849.63	0.000
849.93	-11.765
850.23	-100.000
850.53	-133.333
850.82	-40.000
851.12	-122.222
851.42	-57.143
851.71	-140.000
852.01	-71.429
852.31	-200.000
852.61	-15.385
852.90	-220.000
853.20	-88.889
853.50	-33.333
853.79	0.000
854.09	-60.000
854.39	-42.105
854.68	-60.000
854.98	-225.000
855.28	11.111
855.57	-85.714
855.87	-21.053
856.17	-50.000
856.46	19.231
856.76	-66.667
857.05	-31.250
857.35	25.000
857.65	0.000
857.94	12.500
858.24	-13.043
858.53	-150.000
858.83	-300.000
859.13	-172.727
859.42	-200.000
859.72	116.667
860.01	23.077
860.31	-100.000
860.60	-312.500
860.90	-425.000
861.20	-233.333
861.49	-350.000
861.79	750.000
862.08	16.129
862.38	-47.368
862.67	-15.385
862.97	-150.000
863.26	-75.000
863.56	-4.348
863.85	-283.333
864.15	0.000
864.44	12.500
864.74	-108.333
865.03	55.556
865.33	-300.000
865.62	-1400.000
865.92	-750.000
866.21	-300.000
866.51	-90.909
866.80	-300.000
867.10	-128.571
867.39	-88.889
867.69	-108.333
867.98	120.000
868.27	-150.000
868.57	525.000
868.86	6.667
869.16	-61.538
869.45	650.000
869.75	-150.000
870.04	-175.000
870.33	-35.294
870.63	-42.857
870.92	78.261
871.22	-100.000
871.51	480.000
871.80	-50.000
872.10	-366.667
>>>>>End Processed Spectral Data<<<<<
