SpectraSuite Data File
++++++++++++++++++++++++++++++++++++
Date: Tue May 12 19:53:49 PDT 2015
User: schluterlab
Dark Spectrum Present: Yes
Reference Spectrum Present: Yes
Number of Sampled Component Spectra: 1
Spectrometers: USB2E3373
Integration Time (usec): 3000 (USB2E3373)
Spectra Averaged: 3 (USB2E3373)
Boxcar Smoothing: 0 (USB2E3373)
Correct for Electrical Dark: No (USB2E3373)
Strobe/Lamp Enabled: No (USB2E3373)
Correct for Detector Non-linearity: No (USB2E3373)
Correct for Stray Light: No (USB2E3373)
Number of Pixels in Processed Spectrum: 2048
>>>>>Begin Processed Spectral Data<<<<<
178.53	0.000
178.91	-100.000
179.29	-183.333
179.67	566.667
180.04	0.000
180.42	-220.000
180.80	-466.667
181.18	1150.000
181.56	-950.000
181.94	533.333
182.31	1700.000
182.69	-314.286
183.07	0.000
183.45	308.333
183.83	480.000
184.20	350.000
184.58	900.000
184.96	333.333
185.34	-733.333
185.72	-128.571
186.09	-333.333
186.47	-2200.000
186.85	-120.000
187.23	241.667
187.61	-314.286
187.98	-220.000
188.36	750.000
188.74	-450.000
189.12	-122.222
189.49	-110.000
189.87	525.000
190.25	211.111
190.63	666.667
191.00	420.000
191.38	-400.000
191.76	540.000
192.14	-57.143
192.51	-220.000
192.89	-280.000
193.27	-360.000
193.65	-1033.333
194.02	-233.333
194.40	1300.000
194.78	-225.000
195.15	-300.000
195.53	566.667
195.91	480.000
196.29	-600.000
196.66	-300.000
197.04	-257.143
197.42	200.000
197.79	-250.000
198.17	-125.000
198.55	300.000
198.92	-155.556
199.30	900.000
199.68	-175.000
200.05	-1100.000
200.43	-77.778
200.81	-175.000
201.18	416.667
201.56	-1450.000
201.94	-2100.000
202.31	-116.667
202.69	-122.222
203.07	-175.000
203.44	-425.000
203.82	0.000
204.19	212.500
204.57	-633.333
204.95	181.818
205.32	320.000
205.70	500.000
206.08	-1500.000
206.45	-100.000
206.83	2700.000
207.20	-166.667
207.58	-46.154
207.96	400.000
208.33	1000.000
208.71	766.667
209.08	1400.000
209.46	-22.222
209.84	566.667
210.21	-666.667
210.59	1300.000
210.96	300.000
211.34	-425.000
211.71	850.000
212.09	-320.000
212.46	-237.500
212.84	-225.000
213.22	300.000
213.59	-125.000
213.97	0.000
214.34	-850.000
214.72	-2000.000
215.09	1100.000
215.47	-60.000
215.84	-150.000
216.22	-1600.000
216.59	2200.000
216.97	-33.333
217.34	-366.667
217.72	-38.889
218.09	650.000
218.47	-52.632
218.84	-175.000
219.22	-85.714
219.59	-170.000
219.97	-150.000
220.34	283.333
220.72	136.364
221.09	-950.000
221.47	0.000
221.84	950.000
222.22	-500.000
222.59	-575.000
222.97	-39.130
223.34	213.333
223.72	342.857
224.09	-300.000
224.46	192.308
224.84	-93.333
225.21	-800.000
225.59	-575.000
225.96	-15.000
226.34	300.000
226.71	190.000
227.08	-123.077
227.46	-271.429
227.83	-41.667
228.21	-1050.000
228.58	466.667
228.95	-78.947
229.33	-31.250
229.70	-233.333
230.08	-300.000
230.45	-666.667
230.82	-2200.000
231.20	-47.619
231.57	-420.000
231.95	-600.000
232.32	255.556
232.69	-850.000
233.07	-43.750
233.44	-212.500
233.81	25.806
234.19	-320.000
234.56	-50.000
234.93	-216.667
235.31	0.000
235.68	-14.815
236.05	-46.154
236.43	-47.368
236.80	-50.000
237.17	-85.714
237.55	-45.000
237.92	20.930
238.29	-29.032
238.67	3.571
239.04	34.286
239.41	39.216
239.79	42.000
240.16	17.500
240.53	5.172
240.91	27.397
241.28	14.085
241.65	42.187
242.02	29.825
242.40	29.333
242.77	27.368
243.14	36.471
243.51	38.710
243.89	26.667
244.26	37.963
244.63	35.714
245.00	22.321
245.38	28.571
245.75	34.746
246.12	46.094
246.49	36.000
246.87	41.803
247.24	32.394
247.61	40.397
247.98	43.258
248.36	41.509
248.73	40.341
249.10	44.444
249.47	41.667
249.84	34.010
250.22	44.792
250.59	41.011
250.96	41.818
251.33	51.887
251.70	47.248
252.08	48.485
252.45	40.816
252.82	46.414
253.19	50.195
253.56	50.588
253.94	44.715
254.31	47.122
254.68	44.792
255.05	49.669
255.42	46.182
255.79	48.013
256.16	48.611
256.54	45.758
256.91	49.679
257.28	46.753
257.65	41.967
258.02	48.348
258.39	50.453
258.76	48.624
259.14	43.824
259.51	48.169
259.88	52.161
260.25	45.455
260.62	43.820
260.99	48.468
261.36	48.276
261.73	44.000
262.10	49.591
262.47	51.515
262.85	49.357
263.22	47.043
263.59	49.598
263.96	49.347
264.33	46.361
264.70	49.386
265.07	46.798
265.44	48.946
265.81	49.639
266.18	48.712
266.55	48.571
266.92	51.116
267.29	49.778
267.66	48.182
268.03	47.957
268.40	52.174
268.77	48.998
269.14	46.639
269.51	45.928
269.88	49.573
270.25	44.937
270.62	49.160
270.99	47.789
271.36	48.344
271.73	51.042
272.10	50.207
272.47	49.200
272.84	44.161
273.21	47.599
273.58	45.918
273.95	49.602
274.32	48.743
274.69	50.881
275.06	48.030
275.43	47.000
275.80	49.140
276.17	46.640
276.54	50.570
276.91	50.672
277.28	49.130
277.65	45.936
278.02	46.970
278.39	48.276
278.76	49.348
279.13	48.479
279.50	48.014
279.87	47.358
280.23	48.087
280.60	46.466
280.97	48.155
281.34	47.458
281.71	43.339
282.08	47.406
282.45	48.854
282.82	44.949
283.19	48.316
283.56	48.294
283.92	46.130
284.29	48.223
284.66	48.142
285.03	42.367
285.40	47.333
285.77	49.589
286.14	46.593
286.51	43.087
286.87	44.246
287.24	45.513
287.61	45.216
287.98	45.853
288.35	45.426
288.72	43.884
289.08	43.082
289.45	43.214
289.82	42.857
290.19	43.485
290.56	42.981
290.93	43.279
291.29	42.837
291.66	41.994
292.03	43.185
292.40	43.453
292.77	43.586
293.13	40.822
293.50	40.634
293.87	40.083
294.24	39.185
294.60	40.301
294.97	38.089
295.34	39.589
295.71	38.696
296.08	37.978
296.44	37.945
296.81	36.999
297.18	39.845
297.55	37.186
297.91	38.071
298.28	37.852
298.65	37.128
299.02	37.608
299.38	36.352
299.75	37.838
300.12	35.372
300.48	35.681
300.85	34.841
301.22	36.418
301.59	36.618
301.95	37.683
302.32	36.330
302.69	35.791
303.05	34.357
303.42	38.889
303.79	36.067
304.15	37.486
304.52	35.307
304.89	34.498
305.25	36.239
305.62	35.682
305.99	34.490
306.35	36.130
306.72	36.275
307.09	34.929
307.45	35.275
307.82	35.539
308.19	36.634
308.55	36.287
308.92	34.216
309.29	35.356
309.65	35.604
310.02	34.172
310.38	36.141
310.75	35.963
311.12	36.012
311.48	36.691
311.85	34.954
312.22	36.570
312.58	36.254
312.95	37.269
313.31	36.382
313.68	37.239
314.05	38.133
314.41	38.114
314.78	37.186
315.14	37.806
315.51	38.530
315.87	38.477
316.24	39.367
316.61	40.194
316.97	41.078
317.34	40.478
317.70	39.776
318.07	40.116
318.43	39.414
318.80	39.709
319.16	40.075
319.53	41.038
319.89	41.667
320.26	43.756
320.62	42.248
320.99	42.551
321.35	42.984
321.72	43.939
322.08	45.248
322.45	43.195
322.81	44.532
323.18	45.062
323.54	46.256
323.91	44.782
324.27	45.419
324.64	47.235
325.00	46.679
325.37	48.471
325.73	47.263
326.10	47.110
326.46	48.504
326.83	48.285
327.19	46.725
327.56	51.194
327.92	47.656
328.29	47.849
328.65	50.753
329.01	48.349
329.38	49.587
329.74	51.253
330.11	48.462
330.47	50.838
330.84	50.282
331.20	50.185
331.56	51.132
331.93	50.595
332.29	51.156
332.66	50.723
333.02	50.975
333.38	52.114
333.75	51.876
334.11	51.718
334.48	51.342
334.84	50.235
335.20	49.597
335.57	52.952
335.93	52.279
336.29	52.011
336.66	51.821
337.02	50.861
337.38	52.925
337.75	52.545
338.11	53.145
338.47	53.203
338.84	52.394
339.20	51.787
339.56	52.190
339.93	50.541
340.29	53.218
340.65	50.959
341.02	51.550
341.38	52.868
341.74	53.826
342.11	53.316
342.47	52.535
342.83	52.298
343.20	52.785
343.56	53.059
343.92	51.444
344.28	51.973
344.65	54.024
345.01	53.746
345.37	53.504
345.73	53.144
346.10	53.846
346.46	53.408
346.82	54.460
347.19	52.817
347.55	54.167
347.91	52.662
348.27	52.570
348.63	53.500
349.00	54.508
349.36	53.504
349.72	53.202
350.08	53.519
350.45	53.377
350.81	52.601
351.17	53.048
351.53	52.738
351.89	55.268
352.26	51.057
352.62	54.047
352.98	53.222
353.34	55.221
353.70	52.016
354.07	52.965
354.43	53.673
354.79	52.951
355.15	52.704
355.51	54.360
355.87	53.789
356.24	52.859
356.60	54.090
356.96	51.264
357.32	53.992
357.68	53.302
358.04	52.350
358.40	54.664
358.77	51.888
359.13	53.655
359.49	53.200
359.85	53.637
360.21	53.291
360.57	53.270
360.93	54.315
361.29	53.037
361.66	52.366
362.02	54.082
362.38	54.157
362.74	53.574
363.10	52.564
363.46	54.251
363.82	52.986
364.18	52.687
364.54	54.275
364.90	54.074
365.26	53.353
365.62	53.520
365.98	53.823
366.35	54.085
366.71	54.220
367.07	52.768
367.43	52.491
367.79	52.544
368.15	54.781
368.51	54.532
368.87	53.304
369.23	54.126
369.59	53.309
369.95	53.279
370.31	54.394
370.67	52.331
371.03	53.947
371.39	54.683
371.75	52.526
372.11	53.630
372.47	53.081
372.83	53.543
373.19	54.217
373.55	52.246
373.91	54.167
374.27	55.188
374.63	53.903
374.99	53.075
375.35	53.628
375.71	54.735
376.07	52.367
376.42	53.181
376.78	53.589
377.14	53.492
377.50	54.036
377.86	54.457
378.22	53.765
378.58	54.934
378.94	54.158
379.30	52.960
379.66	53.265
380.02	52.575
380.38	55.662
380.74	54.568
381.09	53.304
381.45	55.048
381.81	54.911
382.17	53.811
382.53	55.095
382.89	54.394
383.25	54.153
383.61	54.291
383.97	54.776
384.32	53.548
384.68	53.640
385.04	53.787
385.40	52.843
385.76	54.143
386.12	53.201
386.48	54.012
386.83	55.036
387.19	54.725
387.55	54.404
387.91	52.336
388.27	53.487
388.62	54.404
388.98	53.690
389.34	52.960
389.70	53.782
390.06	54.587
390.42	53.482
390.77	55.265
391.13	53.351
391.49	53.976
391.85	54.424
392.20	53.861
392.56	52.652
392.92	53.803
393.28	53.441
393.64	54.022
393.99	53.961
394.35	53.407
394.71	52.980
395.07	52.056
395.42	52.317
395.78	52.487
396.14	53.698
396.50	52.587
396.85	52.743
397.21	51.682
397.57	52.995
397.92	53.562
398.28	54.317
398.64	52.317
399.00	53.163
399.35	53.283
399.71	52.335
400.07	52.440
400.42	53.141
400.78	52.847
401.14	53.346
401.49	53.841
401.85	53.079
402.21	52.348
402.57	52.994
402.92	53.519
403.28	52.211
403.63	50.769
403.99	51.123
404.35	51.338
404.70	51.932
405.06	51.829
405.42	51.789
405.77	50.892
406.13	52.031
406.49	52.240
406.84	52.366
407.20	52.354
407.55	51.703
407.91	51.189
408.27	52.128
408.62	52.540
408.98	52.381
409.34	51.088
409.69	49.431
410.05	50.842
410.40	51.060
410.76	50.249
411.11	51.002
411.47	50.816
411.83	50.161
412.18	51.047
412.54	50.194
412.89	49.223
413.25	50.784
413.60	50.383
413.96	51.003
414.31	50.605
414.67	51.857
415.03	49.585
415.38	50.696
415.74	48.959
416.09	49.070
416.45	50.672
416.80	51.113
417.16	49.718
417.51	50.243
417.87	51.163
418.22	49.332
418.58	49.482
418.93	49.387
419.29	48.779
419.64	51.030
420.00	49.902
420.35	50.220
420.71	49.424
421.06	49.708
421.42	48.306
421.77	49.756
422.12	49.380
422.48	49.572
422.83	49.240
423.19	49.412
423.54	48.259
423.90	49.258
424.25	49.063
424.61	49.032
424.96	48.157
425.31	48.490
425.67	47.939
426.02	48.820
426.38	48.906
426.73	49.097
427.09	48.194
427.44	47.716
427.79	49.196
428.15	47.749
428.50	48.618
428.85	47.017
429.21	47.878
429.56	46.796
429.92	46.566
430.27	46.507
430.62	46.566
430.98	47.125
431.33	48.109
431.68	47.976
432.04	47.641
432.39	46.227
432.74	46.426
433.10	47.362
433.45	46.928
433.80	45.833
434.16	46.203
434.51	45.764
434.86	46.949
435.22	46.217
435.57	48.087
435.92	44.768
436.28	44.583
436.63	46.213
436.98	46.358
437.34	47.793
437.69	45.864
438.04	45.733
438.39	45.953
438.75	44.492
439.10	47.083
439.45	47.240
439.81	45.333
440.16	45.640
440.51	44.919
440.86	46.528
441.22	45.146
441.57	44.274
441.92	46.273
442.27	46.629
442.63	45.937
442.98	46.394
443.33	45.417
443.68	45.147
444.03	44.227
444.39	44.404
444.74	44.877
445.09	46.635
445.44	44.548
445.79	44.876
446.15	45.656
446.50	44.303
446.85	44.059
447.20	44.256
447.55	43.630
447.91	44.797
448.26	44.688
448.61	44.955
448.96	44.766
449.31	43.822
449.66	43.826
450.02	43.669
450.37	44.168
450.72	42.908
451.07	43.968
451.42	44.005
451.77	42.686
452.12	43.108
452.47	44.444
452.83	43.960
453.18	44.092
453.53	45.199
453.88	44.033
454.23	43.195
454.58	43.407
454.93	43.188
455.28	43.109
455.63	42.820
455.98	44.797
456.34	43.537
456.69	42.993
457.04	42.913
457.39	43.633
457.74	43.932
458.09	42.626
458.44	42.918
458.79	41.755
459.14	42.874
459.49	42.484
459.84	42.509
460.19	43.340
460.54	41.035
460.89	42.353
461.24	41.948
461.59	43.659
461.94	42.801
462.29	41.792
462.64	41.852
462.99	42.422
463.34	41.538
463.69	41.701
464.04	41.950
464.39	42.701
464.74	41.142
465.09	41.029
465.44	40.972
465.79	41.396
466.14	42.243
466.49	41.106
466.84	41.278
467.19	41.326
467.54	39.987
467.89	41.150
468.24	40.972
468.59	41.296
468.94	42.636
469.29	41.315
469.64	41.284
469.99	40.735
470.34	39.392
470.68	39.923
471.03	41.168
471.38	41.960
471.73	40.407
472.08	39.573
472.43	40.111
472.78	40.464
473.13	41.053
473.48	41.010
473.83	40.555
474.17	39.226
474.52	39.786
474.87	41.098
475.22	40.788
475.57	39.659
475.92	40.136
476.27	40.084
476.61	40.544
476.96	40.190
477.31	39.669
477.66	40.674
478.01	39.200
478.36	39.255
478.70	40.225
479.05	39.524
479.40	39.801
479.75	40.045
480.10	40.530
480.45	41.257
480.79	39.024
481.14	39.958
481.49	38.920
481.84	40.556
482.19	39.756
482.53	38.676
482.88	39.908
483.23	39.698
483.58	40.396
483.92	38.945
484.27	39.739
484.62	39.321
484.97	37.873
485.31	38.128
485.66	38.018
486.01	36.991
486.36	38.068
486.70	38.550
487.05	38.828
487.40	38.500
487.75	38.248
488.09	37.939
488.44	38.083
488.79	37.959
489.13	38.321
489.48	38.472
489.83	38.835
490.17	39.709
490.52	38.719
490.87	39.763
491.22	39.250
491.56	38.340
491.91	38.353
492.26	39.164
492.60	39.796
492.95	38.809
493.30	39.728
493.64	38.793
493.99	39.476
494.34	40.041
494.68	37.810
495.03	37.982
495.37	38.317
495.72	39.557
496.07	38.590
496.41	37.253
496.76	38.539
497.11	39.094
497.45	39.478
497.80	38.681
498.14	39.546
498.49	38.815
498.84	38.784
499.18	38.817
499.53	38.837
499.87	37.890
500.22	38.909
500.56	39.403
500.91	39.643
501.26	39.318
501.60	37.971
501.95	38.792
502.29	39.507
502.64	37.880
502.98	38.920
503.33	38.293
503.67	38.897
504.02	37.845
504.36	38.469
504.71	38.032
505.06	39.368
505.40	39.035
505.75	38.810
506.09	37.866
506.44	39.753
506.78	37.206
507.13	38.979
507.47	39.003
507.82	37.891
508.16	39.310
508.51	39.114
508.85	39.011
509.19	37.795
509.54	38.867
509.88	38.895
510.23	37.753
510.57	38.671
510.92	38.435
511.26	38.541
511.61	38.584
511.95	38.635
512.30	38.667
512.64	39.062
512.98	39.338
513.33	37.632
513.67	37.605
514.02	38.762
514.36	38.790
514.70	38.616
515.05	38.902
515.39	39.021
515.74	39.474
516.08	39.171
516.42	38.968
516.77	39.565
517.11	38.410
517.46	38.788
517.80	39.247
518.14	39.342
518.49	40.492
518.83	39.494
519.17	39.332
519.52	40.100
519.86	40.532
520.20	38.217
520.55	38.251
520.89	40.486
521.23	39.947
521.58	38.492
521.92	38.785
522.26	38.625
522.61	39.795
522.95	39.589
523.29	39.001
523.64	39.484
523.98	38.575
524.32	40.202
524.66	40.653
525.01	40.069
525.35	39.672
525.69	38.679
526.04	40.451
526.38	40.096
526.72	38.333
527.06	38.889
527.41	40.397
527.75	39.411
528.09	40.028
528.43	39.830
528.78	39.553
529.12	39.384
529.46	38.339
529.80	38.938
530.15	39.889
530.49	40.098
530.83	39.913
531.17	40.466
531.51	40.186
531.86	38.445
532.20	39.033
532.54	39.640
532.88	38.255
533.22	38.362
533.57	38.207
533.91	39.573
534.25	38.561
534.59	38.652
534.93	38.818
535.27	38.721
535.62	38.217
535.96	39.567
536.30	38.900
536.64	38.197
536.98	39.749
537.32	38.988
537.66	38.490
538.01	39.175
538.35	38.327
538.69	37.226
539.03	39.077
539.37	38.981
539.71	39.203
540.05	38.350
540.39	39.216
540.73	38.095
541.07	38.235
541.42	38.346
541.76	39.209
542.10	37.661
542.44	39.379
542.78	38.123
543.12	37.617
543.46	38.152
543.80	38.027
544.14	38.351
544.48	38.175
544.82	38.396
545.16	38.116
545.50	39.374
545.84	39.429
546.18	39.176
546.52	38.355
546.86	37.873
547.20	39.242
547.54	38.362
547.88	37.607
548.22	38.608
548.56	38.055
548.90	37.474
549.24	38.962
549.58	39.493
549.92	37.594
550.26	39.382
550.60	39.651
550.94	39.603
551.28	38.130
551.62	38.575
551.96	38.099
552.30	38.450
552.64	38.693
552.98	38.039
553.32	38.864
553.66	37.102
554.00	38.533
554.34	39.219
554.68	39.474
555.02	38.492
555.36	38.284
555.69	38.201
556.03	36.807
556.37	37.809
556.71	38.462
557.05	38.047
557.39	38.635
557.73	37.500
558.07	38.419
558.41	37.829
558.75	37.925
559.08	39.149
559.42	38.043
559.76	38.669
560.10	38.549
560.44	38.084
560.78	38.542
561.12	37.716
561.45	38.244
561.79	36.931
562.13	37.361
562.47	38.303
562.81	36.770
563.15	36.502
563.48	35.131
563.82	37.555
564.16	37.954
564.50	36.461
564.84	37.845
565.17	37.053
565.51	37.509
565.85	37.324
566.19	38.413
566.52	38.566
566.86	38.388
567.20	37.392
567.54	37.524
567.88	36.772
568.21	36.753
568.55	37.408
568.89	36.429
569.23	36.446
569.56	35.356
569.90	36.617
570.24	36.367
570.57	36.005
570.91	36.354
571.25	35.021
571.59	35.574
571.92	35.535
572.26	34.712
572.60	35.022
572.93	34.545
573.27	34.620
573.61	35.097
573.95	34.003
574.28	34.676
574.62	34.611
574.96	34.263
575.29	33.660
575.63	34.107
575.97	34.208
576.30	34.384
576.64	33.545
576.98	33.689
577.31	34.417
577.65	34.220
577.98	33.559
578.32	33.770
578.66	34.487
578.99	34.693
579.33	34.237
579.67	33.542
580.00	33.879
580.34	33.960
580.67	33.774
581.01	33.499
581.35	33.505
581.68	33.848
582.02	33.826
582.35	33.844
582.69	33.814
583.02	34.161
583.36	33.836
583.70	34.205
584.03	34.140
584.37	35.056
584.70	33.816
585.04	33.567
585.37	33.606
585.71	33.963
586.04	34.102
586.38	34.405
586.72	34.295
587.05	33.718
587.39	33.879
587.72	34.176
588.06	33.922
588.39	34.502
588.73	33.260
589.06	34.003
589.40	34.706
589.73	34.817
590.07	33.682
590.40	35.271
590.73	34.736
591.07	34.156
591.40	34.810
591.74	33.955
592.07	35.339
592.41	34.630
592.74	35.279
593.08	33.734
593.41	34.282
593.75	33.974
594.08	34.609
594.41	34.401
594.75	34.338
595.08	34.203
595.42	34.059
595.75	34.242
596.09	34.508
596.42	34.799
596.75	35.091
597.09	34.142
597.42	34.162
597.75	34.006
598.09	33.755
598.42	34.453
598.76	34.472
599.09	33.739
599.42	33.910
599.76	34.484
600.09	34.757
600.42	33.164
600.76	34.565
601.09	33.451
601.42	34.058
601.76	34.050
602.09	33.515
602.42	33.956
602.76	33.944
603.09	34.900
603.42	34.796
603.76	34.159
604.09	34.586
604.42	34.736
604.76	33.820
605.09	34.341
605.42	34.834
605.75	33.851
606.09	34.311
606.42	34.427
606.75	34.236
607.09	34.981
607.42	33.731
607.75	33.976
608.08	34.565
608.42	34.675
608.75	34.867
609.08	33.872
609.41	34.785
609.75	35.176
610.08	34.212
610.41	34.656
610.74	34.732
611.07	34.691
611.41	34.743
611.74	34.766
612.07	34.710
612.40	33.928
612.73	34.780
613.07	34.469
613.40	34.445
613.73	34.765
614.06	34.426
614.39	34.271
614.72	35.065
615.06	34.902
615.39	34.527
615.72	34.211
616.05	34.725
616.38	33.215
616.71	33.582
617.05	34.171
617.38	34.323
617.71	34.553
618.04	36.202
618.37	35.056
618.70	35.870
619.03	35.751
619.36	35.788
619.69	35.614
620.03	36.613
620.36	35.147
620.69	35.107
621.02	35.867
621.35	35.660
621.68	36.904
622.01	36.631
622.34	35.595
622.67	35.750
623.00	35.627
623.33	35.354
623.66	36.972
623.99	36.922
624.32	35.663
624.65	35.547
624.99	35.703
625.32	35.545
625.65	34.187
625.98	36.917
626.31	34.545
626.64	36.306
626.97	38.235
627.30	35.741
627.63	35.442
627.96	36.406
628.29	36.042
628.62	35.670
628.95	35.797
629.28	35.640
629.61	36.782
629.94	36.722
630.26	37.343
630.59	36.440
630.92	34.879
631.25	35.642
631.58	36.512
631.91	36.105
632.24	37.278
632.57	39.120
632.90	38.376
633.23	37.806
633.56	37.610
633.89	36.016
634.22	38.077
634.55	37.976
634.88	37.082
635.20	37.671
635.53	38.268
635.86	41.168
636.19	36.426
636.52	39.488
636.85	36.245
637.18	37.176
637.51	37.669
637.83	36.732
638.16	38.834
638.49	37.464
638.82	36.146
639.15	36.143
639.48	39.592
639.81	36.960
640.13	39.051
640.46	38.583
640.79	38.295
641.12	39.225
641.45	37.481
641.77	35.987
642.10	37.622
642.43	40.404
642.76	40.143
643.09	35.986
643.41	38.710
643.74	39.062
644.07	36.332
644.40	38.267
644.73	35.912
645.05	39.695
645.38	39.231
645.71	40.458
646.04	37.175
646.36	38.636
646.69	39.845
647.02	40.234
647.35	40.600
647.67	41.483
648.00	39.223
648.33	37.958
648.66	39.518
648.98	36.610
649.31	38.382
649.64	38.554
649.96	35.980
650.29	36.814
650.62	36.178
650.94	38.632
651.27	37.380
651.60	34.799
651.92	37.977
652.25	36.329
652.58	33.393
652.90	35.409
653.23	34.918
653.56	38.021
653.88	37.591
654.21	36.673
654.54	37.523
654.86	37.410
655.19	35.161
655.52	35.635
655.84	33.661
656.17	33.645
656.49	45.384
656.82	51.461
657.15	40.921
657.47	30.742
657.80	22.935
658.13	19.032
658.45	32.203
658.78	31.253
659.10	30.371
659.43	30.743
659.75	29.799
660.08	30.537
660.41	30.800
660.73	31.025
661.06	33.273
661.38	37.097
661.71	36.761
662.03	38.889
662.36	33.890
662.68	36.451
663.01	38.702
663.33	37.028
663.66	39.474
663.98	38.386
664.31	38.049
664.63	36.239
664.96	37.055
665.28	37.825
665.61	36.449
665.93	38.710
666.26	36.645
666.58	38.761
666.91	39.110
667.23	36.453
667.56	38.519
667.88	37.343
668.21	36.548
668.53	37.310
668.86	36.224
669.18	37.817
669.50	36.504
669.83	37.500
670.15	36.250
670.48	36.341
670.80	39.848
671.13	36.867
671.45	36.480
671.77	37.681
672.10	36.264
672.42	36.454
672.75	34.951
673.07	37.383
673.39	36.381
673.72	38.636
674.04	37.660
674.37	39.030
674.69	36.682
675.01	37.209
675.34	36.520
675.66	33.571
675.98	36.364
676.31	35.768
676.63	36.082
676.95	36.691
677.28	35.644
677.60	38.847
677.92	35.589
678.25	35.499
678.57	36.195
678.89	36.468
679.22	34.174
679.54	34.076
679.86	35.546
680.18	32.636
680.51	33.470
680.83	33.958
681.15	36.383
681.48	34.255
681.80	37.826
682.12	37.901
682.44	33.836
682.77	35.682
683.09	35.784
683.41	35.088
683.73	37.437
684.06	38.832
684.38	38.849
684.70	36.721
685.02	34.199
685.34	33.264
685.67	34.783
685.99	35.529
686.31	36.194
686.63	34.757
686.96	30.488
687.28	32.854
687.60	36.140
687.92	33.544
688.24	32.842
688.56	33.187
688.89	36.758
689.21	31.628
689.53	34.783
689.85	35.696
690.17	36.275
690.49	35.294
690.82	33.415
691.14	39.687
691.46	36.250
691.78	32.057
692.10	35.780
692.42	33.486
692.74	36.967
693.06	32.530
693.39	32.266
693.71	32.558
694.03	33.575
694.35	32.921
694.67	34.860
694.99	38.005
695.31	33.428
695.63	33.784
695.95	35.112
696.27	38.244
696.59	32.641
696.91	33.903
697.23	34.670
697.56	38.342
697.88	34.895
698.20	28.571
698.52	32.212
698.84	33.584
699.16	32.718
699.48	34.293
699.80	31.868
700.12	33.058
700.44	34.513
700.76	35.016
701.08	33.651
701.40	34.211
701.72	36.000
702.04	42.857
702.36	35.082
702.68	37.584
703.00	30.599
703.32	29.641
703.64	33.438
703.96	33.861
704.28	31.338
704.60	37.671
704.91	30.592
705.23	33.684
705.55	30.855
705.87	32.374
706.19	34.263
706.51	33.203
706.83	34.799
707.15	33.898
707.47	34.431
707.79	35.244
708.11	32.011
708.43	35.200
708.74	37.978
709.06	37.423
709.38	33.828
709.70	28.247
710.02	35.315
710.34	32.624
710.66	32.959
710.98	33.217
711.29	34.364
711.61	30.851
711.93	34.082
712.25	37.358
712.57	34.375
712.89	36.735
713.20	31.855
713.52	31.707
713.84	31.752
714.16	36.824
714.48	36.519
714.80	28.620
715.11	31.959
715.43	29.010
715.75	32.281
716.07	33.455
716.39	34.812
716.70	33.600
717.02	31.452
717.34	32.900
717.66	33.182
717.97	30.093
718.29	32.889
718.61	31.081
718.93	31.092
719.24	33.473
719.56	35.268
719.88	25.490
720.20	30.769
720.51	28.509
720.83	32.218
721.15	33.469
721.46	38.397
721.78	33.333
722.10	31.395
722.42	36.522
722.73	27.149
723.05	34.101
723.37	25.792
723.68	33.175
724.00	32.407
724.32	28.972
724.63	28.959
724.95	34.247
725.27	34.272
725.58	34.247
725.90	23.423
726.22	30.568
726.53	28.689
726.85	29.259
727.16	30.769
727.48	29.435
727.80	25.114
728.11	32.444
728.43	37.449
728.74	31.579
729.06	31.441
729.38	29.070
729.69	28.800
730.01	28.870
730.32	26.295
730.64	32.308
730.96	30.116
731.27	29.344
731.59	29.293
731.90	29.934
732.22	29.568
732.53	29.123
732.85	27.817
733.16	31.868
733.48	27.239
733.80	29.818
734.11	30.142
734.43	36.101
734.74	31.464
735.06	31.190
735.37	30.671
735.69	29.577
736.00	28.889
736.32	32.168
736.63	35.185
736.95	27.626
737.26	29.348
737.58	31.022
737.89	24.528
738.21	34.351
738.52	33.197
738.83	24.359
739.15	35.000
739.46	27.928
739.78	29.730
740.09	29.762
740.41	29.545
740.72	27.092
741.04	30.830
741.35	34.529
741.66	31.183
741.98	27.551
742.29	29.016
742.61	24.277
742.92	24.510
743.23	30.348
743.55	29.534
743.86	32.367
744.18	26.500
744.49	30.000
744.80	30.108
745.12	28.718
745.43	29.412
745.74	26.203
746.06	35.632
746.37	30.000
746.68	29.730
747.00	22.652
747.31	35.079
747.62	32.105
747.94	24.528
748.25	40.394
748.56	32.828
748.88	30.055
749.19	28.497
749.50	35.294
749.82	27.500
750.13	30.097
750.44	30.901
750.75	32.000
751.07	25.105
751.38	30.469
751.69	34.127
752.01	34.034
752.32	30.579
752.63	35.371
752.94	29.600
753.26	26.484
753.57	30.332
753.88	22.791
754.19	28.634
754.51	28.033
754.82	29.167
755.13	24.779
755.44	33.333
755.75	29.719
756.07	32.618
756.38	32.636
756.69	34.717
757.00	33.333
757.31	31.488
757.63	30.392
757.94	30.606
758.25	28.571
758.56	27.838
758.87	27.381
759.18	32.399
759.50	31.673
759.81	28.571
760.12	30.605
760.43	36.545
760.74	27.545
761.05	30.449
761.36	34.125
761.67	26.748
761.99	31.773
762.30	28.364
762.61	29.268
762.92	29.778
763.23	33.488
763.54	33.503
763.85	31.674
764.16	27.391
764.47	30.000
764.78	25.000
765.10	31.496
765.41	30.435
765.72	32.441
766.03	32.441
766.34	30.303
766.65	30.469
766.96	27.111
767.27	30.168
767.58	34.591
767.89	30.519
768.20	15.541
768.51	30.460
768.82	28.125
769.13	32.870
769.44	33.019
769.75	25.490
770.06	26.699
770.37	32.979
770.68	29.744
770.99	30.457
771.30	22.165
771.61	30.493
771.92	21.226
772.23	23.558
772.54	29.412
772.85	21.918
773.16	27.742
773.47	24.841
773.78	34.132
774.09	23.026
774.39	23.529
774.70	18.045
775.01	29.231
775.32	18.254
775.63	32.283
775.94	30.189
776.25	20.741
776.56	26.364
776.87	27.350
777.18	29.000
777.48	18.269
777.79	16.667
778.10	16.038
778.41	26.471
778.72	26.415
779.03	16.667
779.34	21.849
779.65	27.465
779.95	17.266
780.26	6.452
780.57	26.812
780.88	11.927
781.19	31.481
781.50	23.770
781.80	16.788
782.11	23.718
782.42	19.310
782.73	27.273
783.04	18.400
783.34	14.400
783.65	24.390
783.96	16.393
784.27	16.807
784.57	19.626
784.88	16.964
785.19	36.082
785.50	14.737
785.81	25.000
786.11	27.723
786.42	-2.353
786.73	26.042
787.04	17.347
787.34	30.556
787.65	33.962
787.96	16.495
788.26	23.762
788.57	27.826
788.88	15.596
789.19	23.140
789.49	25.217
789.80	21.552
790.11	6.098
790.41	17.978
790.72	1.163
791.03	15.116
791.33	-1.299
791.64	26.829
791.95	13.415
792.25	12.048
792.56	29.630
792.87	5.634
793.17	25.301
793.48	5.882
793.79	11.250
794.09	-5.000
794.40	17.391
794.70	13.913
795.01	12.844
795.32	14.961
795.62	18.627
795.93	24.510
796.23	19.192
796.54	10.465
796.85	4.348
797.15	3.125
797.46	-13.559
797.76	14.754
798.07	7.895
798.37	11.290
798.68	7.813
798.99	27.692
799.29	7.576
799.60	-2.899
799.90	25.714
800.21	7.018
800.51	-1.724
800.82	-5.660
801.12	-5.882
801.43	20.968
801.73	17.742
802.04	28.000
802.34	7.547
802.65	-10.526
802.95	1.818
803.26	-13.208
803.56	-4.918
803.87	-8.000
804.17	-11.111
804.48	5.769
804.78	-32.653
805.09	17.021
805.39	37.288
805.70	-6.250
806.00	28.571
806.30	-5.085
806.61	1.538
806.91	3.077
807.22	6.579
807.52	25.714
807.83	6.897
808.13	7.595
808.43	11.475
808.74	9.836
809.04	9.459
809.35	9.259
809.65	10.714
809.95	8.475
810.26	2.041
810.56	16.981
810.86	5.882
811.17	13.514
811.47	-25.926
811.77	-3.922
812.08	-11.364
812.38	4.167
812.69	-12.821
812.99	7.143
813.29	19.565
813.59	-20.000
813.90	-16.667
814.20	7.273
814.50	-10.204
814.81	-5.882
815.11	4.167
815.41	0.000
815.72	-11.538
816.02	27.660
816.32	6.250
816.62	-9.091
816.93	-42.424
817.23	10.811
817.53	-29.412
817.84	35.000
818.14	-8.824
818.44	3.125
818.74	-66.667
819.04	-8.571
819.35	-20.000
819.65	-6.818
819.95	-10.256
820.25	-72.222
820.56	-31.034
820.86	-17.857
821.16	-65.217
821.46	-19.048
821.76	3.704
822.07	-39.130
822.37	-4.082
822.67	-13.953
822.97	-52.174
823.27	-26.923
823.57	-11.111
823.88	-17.857
824.18	-15.385
824.48	-7.143
824.78	-12.121
825.08	-53.333
825.38	2.500
825.69	-138.889
825.99	-33.333
826.29	13.333
826.59	-33.333
826.89	-29.630
827.19	-42.857
827.49	-27.273
827.79	-118.182
828.09	-50.000
828.39	-82.609
828.70	-14.815
829.00	-39.286
829.30	7.143
829.60	12.903
829.90	-65.385
830.20	17.949
830.50	0.000
830.80	-4.762
831.10	-50.000
831.40	-114.286
831.70	-29.630
832.00	-76.471
832.30	4.348
832.60	-45.833
832.90	-145.455
833.20	-16.667
833.50	-3.125
833.80	0.000
834.10	8.000
834.40	-12.500
834.70	13.636
835.00	-26.923
835.30	-60.000
835.60	-90.000
835.90	-85.000
836.20	-107.143
836.50	-34.783
836.80	-61.111
837.10	-73.333
837.40	-80.000
837.70	-17.391
838.00	-85.714
838.30	2000.000
838.60	-4.000
838.90	-480.000
839.19	-44.444
839.49	-1150.000
839.79	-82.353
840.09	-155.556
840.39	-25.000
840.69	-88.889
840.99	-125.000
841.29	-24.138
841.59	-86.667
841.88	-63.636
842.18	-216.667
842.48	-56.250
842.78	15.385
843.08	-105.882
843.38	-25.000
843.68	-69.231
843.97	-100.000
844.27	-70.000
844.57	-50.000
844.87	-81.818
845.17	-100.000
845.47	-38.889
845.76	-5.556
846.06	-66.667
846.36	-50.000
846.66	-311.111
846.96	-75.000
847.25	-580.000
847.55	-150.000
847.85	-106.667
848.15	-425.000
848.44	-10.526
848.74	13.333
849.04	-42.105
849.34	-233.333
849.63	-166.667
849.93	-47.059
850.23	-163.636
850.53	-333.333
850.82	-420.000
851.12	-144.444
851.42	-171.429
851.71	-180.000
852.01	-64.286
852.31	-266.667
852.61	-100.000
852.90	-380.000
853.20	-233.333
853.50	-166.667
853.79	-190.000
854.09	-125.000
854.39	-68.421
854.68	-45.000
854.98	-375.000
855.28	-22.222
855.57	-114.286
855.87	-47.368
856.17	-75.000
856.46	-7.692
856.76	-86.667
857.05	-81.250
857.35	8.333
857.65	-27.778
857.94	-125.000
858.24	-65.217
858.53	-220.000
858.83	-666.667
859.13	-218.182
859.42	-140.000
859.72	200.000
860.01	-100.000
860.31	-150.000
860.60	-250.000
860.90	-475.000
861.20	-183.333
861.49	-325.000
861.79	450.000
862.08	9.677
862.38	-84.211
862.67	-92.308
862.97	-190.000
863.26	-33.333
863.56	-60.870
863.85	-400.000
864.15	-85.714
864.44	-50.000
864.74	-141.667
865.03	-166.667
865.33	-433.333
865.62	-2200.000
865.92	-650.000
866.21	-416.667
866.51	-109.091
866.80	-633.333
867.10	-228.571
867.39	-177.778
867.69	-66.667
867.98	220.000
868.27	-600.000
868.57	600.000
868.86	-113.333
869.16	-61.538
869.45	1350.000
869.75	-133.333
870.04	-216.667
870.33	-58.824
870.63	-271.429
870.92	-21.739
871.22	-275.000
871.51	580.000
871.80	-81.250
872.10	-500.000
>>>>>End Processed Spectral Data<<<<<
