SpectraSuite Data File
++++++++++++++++++++++++++++++++++++
Date: Tue May 12 19:35:43 PDT 2015
User: schluterlab
Dark Spectrum Present: Yes
Reference Spectrum Present: Yes
Number of Sampled Component Spectra: 1
Spectrometers: USB2E3373
Integration Time (usec): 3000 (USB2E3373)
Spectra Averaged: 3 (USB2E3373)
Boxcar Smoothing: 0 (USB2E3373)
Correct for Electrical Dark: No (USB2E3373)
Strobe/Lamp Enabled: No (USB2E3373)
Correct for Detector Non-linearity: No (USB2E3373)
Correct for Stray Light: No (USB2E3373)
Number of Pixels in Processed Spectrum: 2048
>>>>>Begin Processed Spectral Data<<<<<
178.53	0.000
178.91	-50.000
179.29	-116.667
179.67	33.333
180.04	0.000
180.42	-80.000
180.80	-133.333
181.18	100.000
181.56	-200.000
181.94	233.333
182.31	1300.000
182.69	71.429
183.07	0.000
183.45	91.667
183.83	300.000
184.20	316.667
184.58	100.000
184.96	216.667
185.34	-300.000
185.72	28.571
186.09	-200.000
186.47	0.000
186.85	40.000
187.23	116.667
187.61	-71.429
187.98	-460.000
188.36	250.000
188.74	-100.000
189.12	-44.444
189.49	-10.000
189.87	225.000
190.25	155.556
190.63	366.667
191.00	160.000
191.38	-166.667
191.76	340.000
192.14	-157.143
192.51	20.000
192.89	-60.000
193.27	-240.000
193.65	33.333
194.02	0.000
194.40	900.000
194.78	0.000
195.15	-157.143
195.53	-33.333
195.91	160.000
196.29	-325.000
196.66	300.000
197.04	-157.143
197.42	120.000
197.79	-12.500
198.17	-66.667
198.55	0.000
198.92	-200.000
199.30	400.000
199.68	-125.000
200.05	-800.000
200.43	-33.333
200.81	-100.000
201.18	266.667
201.56	-450.000
201.94	-800.000
202.31	25.000
202.69	133.333
203.07	25.000
203.44	-375.000
203.82	0.000
204.19	212.500
204.57	-333.333
204.95	36.364
205.32	-60.000
205.70	225.000
206.08	-400.000
206.45	-20.000
206.83	1600.000
207.20	-55.556
207.58	-23.077
207.96	333.333
208.33	533.333
208.71	33.333
209.08	450.000
209.46	22.222
209.84	133.333
210.21	-366.667
210.59	100.000
210.96	122.222
211.34	-25.000
211.71	600.000
212.09	40.000
212.46	-137.500
212.84	-37.500
213.22	85.714
213.59	25.000
213.97	0.000
214.34	-350.000
214.72	-800.000
215.09	100.000
215.47	0.000
215.84	-112.500
216.22	-900.000
216.59	400.000
216.97	-16.667
217.34	66.667
217.72	50.000
218.09	300.000
218.47	21.053
218.84	-200.000
219.22	-28.571
219.59	-90.000
219.97	-30.000
220.34	166.667
220.72	36.364
221.09	-950.000
221.47	0.000
221.84	-50.000
222.22	-225.000
222.59	-325.000
222.97	21.739
223.34	73.333
223.72	142.857
224.09	0.000
224.46	76.923
224.84	6.667
225.21	150.000
225.59	-150.000
225.96	70.000
226.34	250.000
226.71	200.000
227.08	23.077
227.46	-14.286
227.83	-41.667
228.21	-50.000
228.58	300.000
228.95	52.632
229.33	31.250
229.70	-133.333
230.08	-66.667
230.45	-233.333
230.82	-100.000
231.20	-4.762
231.57	-120.000
231.95	-200.000
232.32	122.222
232.69	-700.000
233.07	31.250
233.44	0.000
233.81	19.355
234.19	-260.000
234.56	22.222
234.93	-33.333
235.31	51.852
235.68	14.815
236.05	-3.846
236.43	-21.053
236.80	-27.273
237.17	-64.286
237.55	-75.000
237.92	16.279
238.29	-3.226
238.67	-39.286
239.04	0.000
239.41	-1.961
239.79	14.000
240.16	-10.000
240.53	-6.897
240.91	8.219
241.28	1.408
241.65	10.938
242.02	-12.281
242.40	10.667
242.77	15.789
243.14	8.235
243.51	2.151
243.89	-1.905
244.26	9.259
244.63	1.020
245.00	-1.786
245.38	0.840
245.75	1.695
246.12	4.688
246.49	1.600
246.87	-4.098
247.24	0.704
247.61	0.000
247.98	3.933
248.36	1.258
248.73	-1.136
249.10	6.667
249.47	3.125
249.84	5.076
250.22	3.646
250.59	-5.056
250.96	0.000
251.33	6.132
251.70	2.294
252.08	5.195
252.45	5.714
252.82	-2.110
253.19	4.280
253.56	9.412
253.94	0.813
254.31	9.712
254.68	5.208
255.05	8.940
255.42	5.818
255.79	9.603
256.16	5.208
256.54	10.000
256.91	7.372
257.28	9.416
257.65	4.590
258.02	6.306
258.39	7.251
258.76	6.422
259.14	5.294
259.51	10.141
259.88	8.934
260.25	4.830
260.62	5.337
260.99	6.685
261.36	6.034
261.73	8.000
262.10	7.357
262.47	7.163
262.85	9.512
263.22	6.720
263.59	7.507
263.96	6.527
264.33	2.965
264.70	3.440
265.07	8.621
265.44	8.431
265.81	8.193
266.18	6.557
266.55	7.143
266.92	7.813
267.29	5.556
267.66	5.455
268.03	8.172
268.40	7.094
268.77	7.795
269.14	6.933
269.51	5.204
269.88	6.624
270.25	4.641
270.62	7.773
270.99	8.000
271.36	4.636
271.73	5.625
272.10	6.846
272.47	6.400
272.84	3.822
273.21	5.846
273.58	7.347
273.95	8.765
274.32	6.576
274.69	7.828
275.06	7.505
275.43	4.800
275.80	8.031
276.17	5.138
276.54	6.654
276.91	7.678
277.28	8.124
277.65	4.726
278.02	4.167
278.39	8.893
278.76	7.821
279.13	8.229
279.50	8.845
279.87	7.736
280.23	6.193
280.60	6.537
280.97	4.921
281.34	5.593
281.71	4.440
282.08	5.546
282.45	5.644
282.82	5.387
283.19	7.912
283.56	8.362
283.92	7.109
284.29	7.953
284.66	6.018
285.03	6.518
285.40	7.000
285.77	5.911
286.14	5.388
286.51	5.305
286.87	7.455
287.24	5.769
287.61	4.784
287.98	10.172
288.35	6.202
288.72	6.422
289.08	4.088
289.45	5.460
289.82	3.727
290.19	6.970
290.56	6.657
290.93	6.056
291.29	5.674
291.66	7.022
292.03	8.178
292.40	6.619
292.77	4.373
293.13	5.727
293.50	6.336
293.87	6.519
294.24	6.180
294.60	6.831
294.97	5.125
295.34	5.479
295.71	5.409
296.08	5.874
296.44	6.324
296.81	5.951
297.18	6.856
297.55	4.899
297.91	5.711
298.28	4.476
298.65	5.951
299.02	7.152
299.38	5.867
299.75	5.663
300.12	5.875
300.48	6.221
300.85	4.034
301.22	6.250
301.59	5.474
301.95	5.610
302.32	6.318
302.69	4.756
303.05	4.841
303.42	4.106
303.79	4.157
304.15	4.757
304.52	5.810
304.89	5.186
305.25	5.734
305.62	5.341
305.99	4.703
306.35	5.145
306.72	6.100
307.09	4.570
307.45	5.609
307.82	4.696
308.19	4.070
308.55	5.696
308.92	4.449
309.29	4.079
309.65	6.192
310.02	5.136
310.38	5.330
310.75	5.943
311.12	4.476
311.48	5.755
311.85	5.167
312.22	5.165
312.58	4.834
312.95	5.236
313.31	4.228
313.68	5.164
314.05	5.859
314.41	4.420
314.78	4.724
315.14	4.995
315.51	5.462
315.87	6.348
316.24	5.638
316.61	6.117
316.97	5.686
317.34	6.316
317.70	5.976
318.07	4.822
318.43	6.900
318.80	7.195
319.16	5.033
319.53	6.509
319.89	5.777
320.26	6.195
320.62	6.589
320.99	7.653
321.35	7.115
321.72	8.283
322.08	7.228
322.45	9.172
322.81	8.079
323.18	8.150
323.54	8.910
323.91	8.065
324.27	6.847
324.64	7.779
325.00	8.007
325.37	8.813
325.73	8.485
326.10	9.895
326.46	9.157
326.83	9.587
327.19	8.472
327.56	10.610
327.92	9.983
328.29	10.125
328.65	12.241
329.01	10.826
329.38	11.203
329.74	10.678
330.11	10.624
330.47	11.173
330.84	10.620
331.20	10.906
331.56	11.132
331.93	11.711
332.29	10.453
332.66	11.844
333.02	12.163
333.38	12.500
333.75	11.345
334.11	11.121
334.48	12.791
334.84	12.113
335.20	11.907
335.57	12.534
335.93	12.093
336.29	11.426
336.66	11.749
337.02	11.967
337.38	11.604
337.75	12.182
338.11	13.491
338.47	13.092
338.84	11.602
339.20	13.382
339.56	11.650
339.93	14.234
340.29	12.874
340.65	12.603
341.02	12.578
341.38	12.004
341.74	13.345
342.11	11.760
342.47	12.937
342.83	13.183
343.20	13.970
343.56	13.112
343.92	12.861
344.28	11.835
344.65	12.671
345.01	13.153
345.37	12.735
345.73	12.575
346.10	13.397
346.46	12.166
346.82	13.169
347.19	12.195
347.55	12.925
347.91	12.776
348.27	13.985
348.63	13.397
349.00	13.606
349.36	13.932
349.72	13.465
350.08	14.403
350.45	13.670
350.81	13.460
351.17	12.438
351.53	13.527
351.89	12.867
352.26	12.602
352.62	13.737
352.98	14.142
353.34	13.617
353.70	13.909
354.07	13.921
354.43	14.524
354.79	13.852
355.15	14.044
355.51	14.588
355.87	14.238
356.24	15.605
356.60	13.022
356.96	13.665
357.32	14.239
357.68	13.842
358.04	14.587
358.40	15.794
358.77	13.896
359.13	14.779
359.49	14.000
359.85	14.708
360.21	14.830
360.57	14.593
360.93	15.202
361.29	14.564
361.66	14.590
362.02	15.149
362.38	15.540
362.74	15.450
363.10	15.158
363.46	16.253
363.82	16.233
364.18	15.594
364.54	15.954
364.90	14.889
365.26	16.244
365.62	16.200
365.98	15.742
366.35	16.036
366.71	16.804
367.07	16.015
367.43	15.957
367.79	15.698
368.15	16.605
368.51	17.378
368.87	17.621
369.23	17.411
369.59	16.838
369.95	15.723
370.31	16.515
370.67	17.218
371.03	16.099
371.39	17.372
371.75	16.790
372.11	17.333
372.47	16.927
372.83	18.992
373.19	18.675
373.55	17.365
373.91	17.879
374.27	18.322
374.63	18.336
374.99	18.302
375.35	17.852
375.71	18.293
376.07	18.163
376.42	19.640
376.78	18.815
377.14	19.553
377.50	19.083
377.86	19.708
378.22	19.287
378.58	20.461
378.94	19.384
379.30	19.305
379.66	19.974
380.02	20.407
380.38	20.547
380.74	19.702
381.09	20.076
381.45	20.762
381.81	20.281
382.17	20.586
382.53	21.302
382.89	20.462
383.25	20.609
383.61	20.470
383.97	21.962
384.32	21.548
384.68	21.967
385.04	21.260
385.40	21.342
385.76	22.201
386.12	22.178
386.48	21.983
386.83	21.856
387.19	22.542
387.55	21.762
387.91	21.620
388.27	22.073
388.62	23.251
388.98	21.883
389.34	22.056
389.70	23.333
390.06	23.498
390.42	24.070
390.77	23.877
391.13	24.593
391.49	23.652
391.85	23.886
392.20	24.752
392.56	24.296
392.92	23.933
393.28	24.596
393.64	23.179
393.99	23.442
394.35	24.270
394.71	24.503
395.07	24.536
395.42	24.317
395.78	25.134
396.14	24.650
396.50	25.744
396.85	25.446
397.21	24.968
397.57	23.897
397.92	25.254
398.28	25.779
398.64	25.016
399.00	25.885
399.35	25.440
399.71	25.868
400.07	26.560
400.42	26.218
400.78	26.168
401.14	25.884
401.49	26.109
401.85	27.175
402.21	26.269
402.57	25.757
402.92	26.959
403.28	27.048
403.63	27.051
403.99	25.892
404.35	26.688
404.70	27.739
405.06	27.154
405.42	27.001
405.77	26.813
406.13	27.300
406.49	26.940
406.84	27.895
407.20	27.447
407.55	28.390
407.91	26.364
408.27	27.261
408.62	27.010
408.98	27.799
409.34	27.785
409.69	27.759
410.05	26.749
410.40	28.003
410.76	28.082
411.11	27.473
411.47	28.639
411.83	27.366
412.18	28.207
412.54	28.655
412.89	28.368
413.25	28.589
413.60	28.954
413.96	28.673
414.31	28.426
414.67	29.507
415.03	28.631
415.38	29.248
415.74	29.281
416.09	29.635
416.45	29.016
416.80	28.025
417.16	29.408
417.51	29.840
417.87	31.122
418.22	30.816
418.58	30.062
418.93	30.754
419.29	30.529
419.64	31.525
420.00	31.631
420.35	31.262
420.71	32.266
421.06	30.824
421.42	31.430
421.77	32.217
422.12	31.660
422.48	32.667
422.83	32.766
423.19	32.471
423.54	32.743
423.90	32.695
424.25	33.474
424.61	33.677
424.96	33.231
425.31	34.481
425.67	34.000
426.02	34.099
426.38	34.427
426.73	34.704
427.09	34.143
427.44	35.370
427.79	35.520
428.15	35.384
428.50	36.244
428.85	34.124
429.21	35.744
429.56	35.856
429.92	34.938
430.27	34.507
430.62	36.344
430.98	36.378
431.33	35.984
431.68	36.761
432.04	37.802
432.39	36.720
432.74	37.002
433.10	37.477
433.45	38.315
433.80	37.798
434.16	37.514
434.51	37.570
434.86	38.127
435.22	37.078
435.57	40.303
435.92	37.647
436.28	38.481
436.63	38.462
436.98	38.519
437.34	40.755
437.69	39.383
438.04	38.101
438.39	39.360
438.75	40.123
439.10	40.893
439.45	40.822
439.81	39.873
440.16	40.754
440.51	40.087
440.86	40.657
441.22	39.845
441.57	40.399
441.92	41.303
442.27	41.486
442.63	42.043
442.98	41.932
443.33	41.246
443.68	41.320
444.03	41.546
444.39	40.864
444.74	41.385
445.09	42.739
445.44	40.700
445.79	42.826
446.15	42.274
446.50	42.684
446.85	41.914
447.20	41.740
447.55	40.896
447.91	42.916
448.26	43.027
448.61	44.290
448.96	41.336
449.31	42.254
449.66	41.283
450.02	42.189
450.37	43.196
450.72	43.686
451.07	42.584
451.42	43.939
451.77	41.425
452.12	43.358
452.47	43.360
452.83	43.773
453.18	43.619
453.53	44.546
453.88	43.586
454.23	43.706
454.58	44.191
454.93	43.188
455.28	44.467
455.63	43.535
455.98	43.591
456.34	44.340
456.69	43.737
457.04	44.423
457.39	43.695
457.74	43.047
458.09	42.999
458.44	45.310
458.79	44.346
459.14	44.246
459.49	44.013
459.84	44.649
460.19	43.965
460.54	43.182
460.89	43.235
461.24	44.610
461.59	45.174
461.94	44.905
462.29	44.424
462.64	44.568
462.99	45.758
463.34	44.469
463.69	46.159
464.04	44.772
464.39	45.209
464.74	44.517
465.09	44.759
465.44	43.851
465.79	45.006
466.14	44.332
466.49	43.902
466.84	44.287
467.19	43.600
467.54	42.971
467.89	45.330
468.24	43.750
468.59	43.717
468.94	44.855
469.29	45.675
469.64	45.879
469.99	44.773
470.34	43.989
470.68	45.923
471.03	45.766
471.38	46.447
471.73	45.712
472.08	45.053
472.43	45.920
472.78	45.105
473.13	46.175
473.48	45.920
473.83	44.650
474.17	44.096
474.52	44.943
474.87	46.338
475.22	45.489
475.57	45.182
475.92	44.571
476.27	45.811
476.61	47.163
476.96	45.643
477.31	45.776
477.66	45.671
478.01	46.675
478.36	44.928
478.70	45.352
479.05	45.270
479.40	43.836
479.75	45.934
480.10	45.022
480.45	45.550
480.79	45.874
481.14	45.915
481.49	45.141
481.84	46.010
482.19	43.854
482.53	45.735
482.88	45.653
483.23	45.779
483.58	45.644
483.92	45.327
484.27	45.450
484.62	46.393
484.97	45.123
485.31	44.702
485.66	43.757
486.01	42.548
486.36	42.559
486.70	42.997
487.05	42.598
487.40	43.005
487.75	42.972
488.09	43.233
488.44	43.529
488.79	43.884
489.13	44.140
489.48	44.832
489.83	44.244
490.17	44.820
490.52	43.738
490.87	46.142
491.22	45.611
491.56	45.109
491.91	44.930
492.26	46.048
492.60	45.765
492.95	44.661
493.30	45.949
493.64	45.183
493.99	46.201
494.34	46.275
494.68	45.342
495.03	43.813
495.37	45.109
495.72	46.361
496.07	44.980
496.41	44.269
496.76	45.129
497.11	45.741
497.45	45.103
497.80	46.521
498.14	45.090
498.49	45.275
498.84	45.021
499.18	44.318
499.53	45.067
499.87	46.032
500.22	44.987
500.56	46.311
500.91	45.988
501.26	45.407
501.60	46.636
501.95	44.780
502.29	45.357
502.64	44.450
502.98	45.533
503.33	44.284
503.67	45.278
504.02	46.016
504.36	45.660
504.71	45.426
505.06	46.438
505.40	46.434
505.75	45.024
506.09	46.587
506.44	46.835
506.78	46.627
507.13	46.145
507.47	46.039
507.82	45.982
508.16	46.437
508.51	46.280
508.85	47.308
509.19	47.120
509.54	48.329
509.88	48.159
510.23	47.416
510.57	46.621
510.92	46.712
511.26	46.870
511.61	47.374
511.95	47.715
512.30	48.348
512.64	47.449
512.98	48.671
513.33	46.542
513.67	47.964
514.02	49.099
514.36	47.450
514.70	48.695
515.05	49.512
515.39	48.745
515.74	50.188
516.08	49.592
516.42	48.602
516.77	50.435
517.11	48.379
517.46	50.406
517.80	50.734
518.14	49.336
518.49	51.100
518.83	51.427
519.17	50.643
519.52	49.969
519.86	50.475
520.20	49.809
520.55	51.240
520.89	51.957
521.23	50.367
521.58	51.786
521.92	51.469
522.26	51.615
522.61	52.901
522.95	51.507
523.29	51.889
523.64	51.628
523.98	51.411
524.32	52.256
524.66	52.549
525.01	51.753
525.35	52.326
525.69	51.755
526.04	52.361
526.38	53.393
526.72	53.611
527.06	53.727
527.41	52.303
527.75	52.907
528.09	52.687
528.43	52.020
528.78	52.690
529.12	52.397
529.46	53.023
529.80	51.055
530.15	53.231
530.49	52.929
530.83	52.639
531.17	51.836
531.51	52.962
531.86	51.681
532.20	51.082
532.54	53.597
532.88	52.000
533.22	52.945
533.57	52.138
533.91	51.686
534.25	51.731
534.59	52.751
534.93	52.451
535.27	52.727
535.62	52.262
535.96	53.105
536.30	52.262
536.64	52.504
536.98	53.024
537.32	53.125
537.66	52.859
538.01	51.988
538.35	53.091
538.69	50.672
539.03	52.199
539.37	51.400
539.71	52.101
540.05	52.822
540.39	51.779
540.73	52.527
541.07	53.529
541.42	52.245
541.76	51.942
542.10	51.793
542.44	51.879
542.78	51.320
543.12	50.469
543.46	52.459
543.80	51.108
544.14	53.190
544.48	51.158
544.82	50.674
545.16	51.377
545.50	51.456
545.84	52.231
546.18	52.434
546.52	52.575
546.86	51.645
547.20	51.667
547.54	50.644
547.88	50.855
548.22	49.789
548.56	50.951
548.90	50.667
549.24	52.558
549.58	52.161
549.92	51.128
550.26	50.811
550.60	53.053
550.94	53.333
551.28	52.602
551.62	54.545
551.96	51.358
552.30	50.543
552.64	49.437
552.98	51.263
553.32	52.273
553.66	51.062
554.00	51.197
554.34	52.500
554.68	50.718
555.02	50.714
555.36	51.231
555.69	51.115
556.03	49.224
556.37	50.113
556.71	50.905
557.05	51.641
557.39	53.173
557.73	50.865
558.07	51.565
558.41	50.918
558.75	52.199
559.08	52.085
559.42	52.007
559.76	50.800
560.10	51.834
560.44	49.485
560.78	51.089
561.12	50.338
561.45	49.926
561.79	49.339
562.13	50.556
562.47	50.535
562.81	49.204
563.15	48.593
563.48	48.390
563.82	49.636
564.16	48.766
564.50	49.427
564.84	49.114
565.17	49.785
565.51	48.628
565.85	49.085
566.19	47.947
566.52	48.961
566.86	47.814
567.20	48.769
567.54	48.819
567.88	46.723
568.21	46.952
568.55	46.406
568.89	46.538
569.23	45.382
569.56	43.770
569.90	43.726
570.24	43.381
570.57	42.814
570.91	43.122
571.25	43.457
571.59	42.623
571.92	41.705
572.26	40.759
572.60	41.950
572.93	41.356
573.27	40.655
573.61	41.535
573.95	41.018
574.28	40.690
574.62	39.906
574.96	40.365
575.29	39.623
575.63	39.578
575.97	39.458
576.30	39.907
576.64	39.030
576.98	39.744
577.31	39.573
577.65	38.749
577.98	38.730
578.32	38.275
578.66	39.052
578.99	39.083
579.33	39.069
579.67	39.124
580.00	38.915
580.34	38.688
580.67	38.708
581.01	38.804
581.35	38.016
581.68	38.292
582.02	37.992
582.35	37.925
582.69	38.300
583.02	38.088
583.36	38.007
583.70	39.095
584.03	38.759
584.37	39.595
584.70	38.780
585.04	38.412
585.37	38.768
585.71	38.394
586.04	39.202
586.38	38.981
586.72	39.123
587.05	39.071
587.39	38.587
587.72	38.483
588.06	38.352
588.39	39.118
588.73	39.819
589.06	38.880
589.40	39.388
589.73	39.454
590.07	39.721
590.40	39.699
590.73	40.233
591.07	40.303
591.40	40.749
591.74	40.112
592.07	40.926
592.41	40.862
592.74	40.861
593.08	38.993
593.41	39.458
593.75	39.366
594.08	39.292
594.41	38.772
594.75	39.037
595.08	38.917
595.42	39.129
595.75	39.091
596.09	39.191
596.42	39.027
596.75	40.182
597.09	39.459
597.42	38.573
597.75	40.666
598.09	39.139
598.42	39.754
598.76	39.299
599.09	38.824
599.42	37.333
599.76	37.897
600.09	39.027
600.42	37.344
600.76	38.029
601.09	38.392
601.42	38.164
601.76	37.825
602.09	38.793
602.42	40.122
602.76	38.656
603.09	38.294
603.42	38.927
603.76	38.607
604.09	38.137
604.42	38.128
604.76	38.749
605.09	38.073
605.42	38.104
605.75	37.917
606.09	38.089
606.42	38.408
606.75	37.833
607.09	37.966
607.42	37.311
607.75	37.236
608.08	37.746
608.42	37.148
608.75	37.969
609.08	36.547
609.41	38.258
609.75	39.179
610.08	37.726
610.41	38.473
610.74	37.614
611.07	37.969
611.41	38.009
611.74	37.758
612.07	37.946
612.40	38.942
612.73	37.847
613.07	37.581
613.40	38.413
613.73	38.545
614.06	37.881
614.39	39.602
614.72	38.076
615.06	39.437
615.39	37.529
615.72	37.626
616.05	37.043
616.38	38.197
616.71	37.873
617.05	37.877
617.38	37.742
617.71	38.668
618.04	38.371
618.37	38.129
618.70	38.451
619.03	39.449
619.36	39.912
619.69	39.813
620.03	39.283
620.36	39.531
620.69	37.842
621.02	38.163
621.35	39.574
621.68	41.044
622.01	39.750
622.34	39.196
622.67	39.713
623.00	40.541
623.33	39.449
623.66	40.478
623.99	38.836
624.32	39.158
624.65	38.281
624.99	38.750
625.32	38.389
625.65	37.550
625.98	39.917
626.31	39.134
626.64	40.721
626.97	41.636
627.30	40.648
627.63	40.651
627.96	39.572
628.29	39.866
628.62	41.856
628.95	40.232
629.28	39.463
629.61	40.543
629.94	41.494
630.26	41.213
630.59	42.723
630.92	40.464
631.25	40.335
631.58	41.977
631.91	41.230
632.24	43.314
632.57	42.331
632.90	44.403
633.23	44.258
633.56	42.138
633.89	43.668
634.22	42.308
634.55	44.021
634.88	42.169
635.20	43.973
635.53	44.553
635.86	43.750
636.19	42.156
636.52	42.992
636.85	40.287
637.18	41.839
637.51	41.734
637.83	43.436
638.16	44.381
638.49	42.507
638.82	42.757
639.15	42.000
639.48	41.194
639.81	42.325
640.13	41.960
640.46	42.992
640.79	41.860
641.12	44.186
641.45	44.012
641.77	43.471
642.10	44.300
642.43	45.623
642.76	44.444
643.09	44.637
643.41	44.086
643.74	44.618
644.07	43.034
644.40	42.960
644.73	43.831
645.05	45.992
645.38	46.731
645.71	47.137
646.04	45.911
646.36	44.886
646.69	47.389
647.02	46.875
647.35	46.800
647.67	46.092
648.00	45.243
648.33	42.582
648.66	44.712
648.98	41.356
649.31	42.341
649.64	41.308
649.96	40.203
650.29	40.885
650.62	45.640
650.94	43.253
651.27	44.509
651.60	43.977
651.92	42.557
652.25	41.109
652.58	41.113
652.90	40.925
653.23	42.962
653.56	40.278
653.88	43.066
654.21	40.454
654.54	40.150
654.86	42.086
655.19	39.355
655.52	36.303
655.84	29.408
656.17	28.728
656.49	38.471
656.82	44.373
657.15	35.250
657.47	26.469
657.80	19.971
658.13	16.565
658.45	28.476
658.78	27.720
659.10	27.130
659.43	28.490
659.75	28.291
660.08	30.341
660.41	31.787
660.73	35.042
661.06	36.909
661.38	40.121
661.71	42.670
662.03	43.287
662.36	41.289
662.68	41.727
663.01	44.231
663.33	45.047
663.66	44.019
663.98	45.232
664.31	41.220
664.63	42.661
664.96	42.755
665.28	45.154
665.61	43.925
665.93	43.779
666.26	39.514
666.58	39.679
666.91	43.560
667.23	44.828
667.56	42.716
667.88	41.604
668.21	42.132
668.53	45.685
668.86	42.857
669.18	40.609
669.50	44.730
669.83	42.500
670.15	41.000
670.48	43.358
670.80	43.655
671.13	40.964
671.45	43.622
671.77	43.720
672.10	38.901
672.42	38.247
672.75	37.087
673.07	37.570
673.39	40.467
673.72	40.289
674.04	40.000
674.37	40.185
674.69	40.888
675.01	40.233
675.34	35.784
675.66	39.524
675.98	43.182
676.31	44.081
676.63	40.722
676.95	41.966
677.28	40.099
677.60	44.361
677.92	39.599
678.25	35.731
678.57	39.443
678.89	35.780
679.22	40.367
679.54	37.194
679.86	37.045
680.18	38.075
680.51	34.908
680.83	35.417
681.15	39.216
681.48	34.681
681.80	35.217
682.12	37.045
682.44	37.284
682.77	39.545
683.09	35.539
683.41	40.100
683.73	36.935
684.06	39.086
684.38	37.410
684.70	38.337
685.02	35.714
685.34	32.218
685.67	35.573
685.99	35.329
686.31	35.821
686.63	37.282
686.96	33.943
687.28	36.550
687.60	35.113
687.92	33.966
688.24	38.737
688.56	34.945
688.89	37.215
689.21	33.488
689.53	40.153
689.85	43.797
690.17	35.049
690.49	35.529
690.82	39.312
691.14	37.598
691.46	37.750
691.78	35.885
692.10	36.468
692.42	37.844
692.74	35.071
693.06	34.699
693.39	33.990
693.71	34.651
694.03	35.990
694.35	34.406
694.67	41.985
694.99	36.927
695.31	36.261
695.63	37.568
695.95	39.326
696.27	39.377
696.59	34.421
696.91	35.613
697.23	41.261
697.56	36.010
697.88	33.021
698.20	36.562
698.52	33.894
698.84	34.837
699.16	35.092
699.48	40.314
699.80	35.165
700.12	34.986
700.44	32.448
700.76	35.647
701.08	33.968
701.40	40.132
701.72	40.333
702.04	38.095
702.36	40.328
702.68	40.940
703.00	37.224
703.32	33.234
703.64	32.492
703.96	36.709
704.28	35.211
704.60	36.301
704.91	32.566
705.23	41.404
705.55	37.546
705.87	36.691
706.19	34.263
706.51	35.156
706.83	37.729
707.15	36.271
707.47	32.934
707.79	30.946
708.11	35.185
708.43	36.533
708.74	34.153
709.06	37.117
709.38	32.047
709.70	33.766
710.02	33.566
710.34	39.362
710.66	41.199
710.98	39.161
711.29	40.893
711.61	34.043
711.93	39.326
712.25	33.585
712.57	34.375
712.89	35.510
713.20	35.887
713.52	34.553
713.84	36.131
714.16	34.797
714.48	38.567
714.80	33.333
715.11	36.426
715.43	34.130
715.75	32.982
716.07	36.000
716.39	36.177
716.70	39.200
717.02	39.113
717.34	40.693
717.66	34.545
717.97	26.389
718.29	35.556
718.61	34.234
718.93	34.034
719.24	38.075
719.56	37.500
719.88	29.412
720.20	32.051
720.51	30.263
720.83	38.075
721.15	35.102
721.46	32.911
721.78	33.766
722.10	33.721
722.42	35.217
722.73	35.294
723.05	34.562
723.37	32.127
723.68	36.493
724.00	34.722
724.32	37.850
724.63	32.579
724.95	31.963
725.27	36.620
725.58	33.333
725.90	25.225
726.22	36.681
726.53	30.328
726.85	37.407
727.16	36.437
727.48	33.065
727.80	34.247
728.11	34.222
728.43	34.156
728.74	28.070
729.06	34.934
729.38	34.884
729.69	29.600
730.01	33.054
730.32	28.287
730.64	33.077
730.96	28.185
731.27	30.502
731.59	28.283
731.90	27.632
732.22	30.565
732.53	25.263
732.85	25.000
733.16	37.729
733.48	30.224
733.80	31.636
734.11	30.851
734.43	34.657
734.74	28.660
735.06	28.296
735.37	27.796
735.69	27.817
736.00	31.481
736.32	27.622
736.63	28.148
736.95	27.237
737.26	30.072
737.58	27.737
737.89	27.925
738.21	32.443
738.52	34.016
738.83	29.487
739.15	29.091
739.46	24.324
739.78	23.938
740.09	27.381
740.41	37.121
740.72	28.685
741.04	32.411
741.35	31.839
741.66	27.957
741.98	30.102
742.29	36.269
742.61	31.214
742.92	33.333
743.23	35.323
743.55	32.124
743.86	27.536
744.18	28.500
744.49	30.556
744.80	29.570
745.12	29.744
745.43	33.155
745.74	28.342
746.06	35.632
746.37	30.556
746.68	33.514
747.00	25.967
747.31	36.126
747.62	36.316
747.94	33.019
748.25	35.468
748.56	33.838
748.88	32.787
749.19	33.679
749.50	29.412
749.82	31.000
750.13	30.583
750.44	31.330
750.75	32.400
751.07	26.778
751.38	26.563
751.69	28.571
752.01	33.193
752.32	27.273
752.63	31.441
752.94	25.600
753.26	30.594
753.57	29.858
753.88	26.047
754.19	28.194
754.51	26.778
754.82	26.250
755.13	26.549
755.44	30.303
755.75	26.506
756.07	28.755
756.38	30.962
756.69	29.434
757.00	27.305
757.31	25.260
757.63	26.797
757.94	26.364
758.25	27.679
758.56	22.973
758.87	28.274
759.18	30.530
759.50	28.470
759.81	30.116
760.12	27.046
760.43	25.249
760.74	26.347
761.05	26.282
761.36	28.487
761.67	23.404
761.99	27.090
762.30	26.182
762.61	26.829
762.92	26.667
763.23	29.302
763.54	34.518
763.85	33.937
764.16	24.783
764.47	28.261
764.78	28.629
765.10	25.984
765.41	24.080
765.72	22.742
766.03	24.080
766.34	27.273
766.65	25.000
766.96	23.556
767.27	30.726
767.58	32.075
767.89	30.519
768.20	29.054
768.51	27.586
768.82	16.875
769.13	35.185
769.44	23.113
769.75	23.529
770.06	16.019
770.37	27.660
770.68	25.128
770.99	25.888
771.30	24.742
771.61	20.179
771.92	25.000
772.23	23.077
772.54	31.765
772.85	26.712
773.16	21.935
773.47	29.936
773.78	26.946
774.09	22.368
774.39	26.471
774.70	21.805
775.01	26.923
775.32	26.984
775.63	32.283
775.94	22.642
776.25	27.407
776.56	27.273
776.87	32.479
777.18	30.000
777.48	24.038
777.79	16.667
778.10	24.528
778.41	38.235
778.72	29.245
779.03	29.825
779.34	22.689
779.65	23.239
779.95	20.863
780.26	23.387
780.57	26.087
780.88	17.431
781.19	30.556
781.50	30.328
781.80	22.628
782.11	21.795
782.42	12.414
782.73	30.070
783.04	24.800
783.34	20.000
783.65	31.707
783.96	19.672
784.27	23.529
784.57	14.953
784.88	24.107
785.19	22.680
785.50	16.842
785.81	29.000
786.11	30.693
786.42	9.412
786.73	30.208
787.04	14.286
787.34	23.148
787.65	31.132
787.96	13.402
788.26	13.861
788.57	20.870
788.88	20.183
789.19	18.182
789.49	19.130
789.80	26.724
790.11	8.537
790.41	44.944
790.72	19.767
791.03	15.116
791.33	14.286
791.64	43.902
791.95	17.073
792.25	18.072
792.56	17.284
792.87	14.085
793.17	32.530
793.48	17.647
793.79	20.000
794.09	3.333
794.40	13.043
794.70	27.826
795.01	20.183
795.32	28.346
795.62	27.451
795.93	21.569
796.23	29.293
796.54	23.256
796.85	28.986
797.15	21.875
797.46	3.390
797.76	22.951
798.07	25.000
798.37	-3.226
798.68	-6.250
798.99	20.000
799.29	34.848
799.60	18.841
799.90	28.571
800.21	15.789
800.51	20.690
800.82	33.962
801.12	19.608
801.43	17.742
801.73	33.871
802.04	30.000
802.34	35.849
802.65	-10.526
802.95	21.818
803.26	35.849
803.56	19.672
803.87	16.000
804.17	-12.963
804.48	21.154
804.78	16.327
805.09	55.319
805.39	27.119
805.70	-8.333
806.00	5.357
806.30	16.949
806.61	41.538
806.91	3.077
807.22	18.421
807.52	27.143
807.83	5.172
808.13	26.582
808.43	11.475
808.74	31.148
809.04	21.622
809.35	42.593
809.65	14.286
809.95	32.203
810.26	2.041
810.56	18.868
810.86	17.647
811.17	13.514
811.47	3.704
811.77	7.843
812.08	18.182
812.38	-8.333
812.69	5.128
812.99	23.810
813.29	50.000
813.59	25.714
813.90	28.571
814.20	12.727
814.50	28.571
814.81	7.843
815.11	12.500
815.41	12.195
815.72	26.923
816.02	38.298
816.32	12.500
816.62	3.030
816.93	15.152
817.23	10.811
817.53	0.000
817.84	42.500
818.14	-14.706
818.44	21.875
818.74	-4.762
819.04	22.857
819.35	20.000
819.65	45.455
819.95	23.077
820.25	16.667
820.56	-3.448
820.86	50.000
821.16	21.739
821.46	26.190
821.76	20.370
822.07	52.174
822.37	16.327
822.67	9.302
822.97	30.435
823.27	0.000
823.57	11.111
823.88	-25.000
824.18	12.821
824.48	42.857
824.78	15.152
825.08	-33.333
825.38	17.500
825.69	-5.556
825.99	3.704
826.29	26.667
826.59	40.741
826.89	-37.037
827.19	7.143
827.49	-18.182
827.79	-63.636
828.09	22.727
828.39	4.348
828.70	-3.704
829.00	17.857
829.30	19.048
829.60	16.129
829.90	-23.077
830.20	28.205
830.50	13.636
830.80	19.048
831.10	-27.778
831.40	-42.857
831.70	22.222
832.00	47.059
832.30	73.913
832.60	33.333
832.90	-90.909
833.20	-27.778
833.50	3.125
833.80	34.615
834.10	72.000
834.40	25.000
834.70	27.273
835.00	15.385
835.30	0.000
835.60	60.000
835.90	-30.000
836.20	-7.143
836.50	39.130
836.80	0.000
837.10	-13.333
837.40	-60.000
837.70	-4.348
838.00	35.714
838.30	500.000
838.60	16.000
838.90	-380.000
839.19	66.667
839.49	-250.000
839.79	58.824
840.09	-11.111
840.39	17.857
840.69	-66.667
840.99	-41.667
841.29	20.690
841.59	46.667
841.88	36.364
842.18	-200.000
842.48	-6.250
842.78	53.846
843.08	-35.294
843.38	-15.000
843.68	0.000
843.97	-5.882
844.27	60.000
844.57	-25.000
844.87	-27.273
845.17	-15.789
845.47	-22.222
845.76	-13.889
846.06	-38.095
846.36	-21.429
846.66	-144.444
846.96	5.000
847.25	-200.000
847.55	-112.500
847.85	-33.333
848.15	-225.000
848.44	21.053
848.74	6.667
849.04	0.000
849.34	200.000
849.63	-33.333
849.93	5.882
850.23	-54.545
850.53	-200.000
850.82	40.000
851.12	0.000
851.42	100.000
851.71	40.000
852.01	78.571
852.31	-166.667
852.61	61.538
852.90	-20.000
853.20	-55.556
853.50	0.000
853.79	30.000
854.09	-10.000
854.39	-5.263
854.68	5.000
854.98	-175.000
855.28	-5.556
855.57	-35.714
855.87	-36.842
856.17	18.750
856.46	19.231
856.76	0.000
857.05	-43.750
857.35	8.333
857.65	33.333
857.94	0.000
858.24	-21.739
858.53	-190.000
858.83	-366.667
859.13	-154.545
859.42	-120.000
859.72	16.667
860.01	-30.769
860.31	0.000
860.60	-162.500
860.90	-175.000
861.20	-83.333
861.49	-75.000
861.79	600.000
862.08	41.935
862.38	5.263
862.67	23.077
862.97	-80.000
863.26	41.667
863.56	-21.739
863.85	-83.333
864.15	21.429
864.44	-25.000
864.74	25.000
865.03	55.556
865.33	266.667
865.62	-600.000
865.92	-500.000
866.21	-150.000
866.51	-18.182
866.80	-500.000
867.10	-185.714
867.39	-66.667
867.69	0.000
867.98	120.000
868.27	-175.000
868.57	400.000
868.86	-26.667
869.16	53.846
869.45	300.000
869.75	-33.333
870.04	-150.000
870.33	52.941
870.63	-28.571
870.92	65.217
871.22	-62.500
871.51	360.000
871.80	75.000
872.10	-266.667
>>>>>End Processed Spectral Data<<<<<
