SpectraSuite Data File
++++++++++++++++++++++++++++++++++++
Date: Tue May 12 19:45:13 PDT 2015
User: schluterlab
Dark Spectrum Present: Yes
Reference Spectrum Present: Yes
Number of Sampled Component Spectra: 1
Spectrometers: USB2E3373
Integration Time (usec): 3000 (USB2E3373)
Spectra Averaged: 3 (USB2E3373)
Boxcar Smoothing: 0 (USB2E3373)
Correct for Electrical Dark: No (USB2E3373)
Strobe/Lamp Enabled: No (USB2E3373)
Correct for Detector Non-linearity: No (USB2E3373)
Correct for Stray Light: No (USB2E3373)
Number of Pixels in Processed Spectrum: 2048
>>>>>Begin Processed Spectral Data<<<<<
178.53	0.000
178.91	-90.000
179.29	-166.667
179.67	633.333
180.04	0.000
180.42	-120.000
180.80	-166.667
181.18	600.000
181.56	-450.000
181.94	216.667
182.31	1000.000
182.69	14.286
183.07	0.000
183.45	141.667
183.83	300.000
184.20	216.667
184.58	450.000
184.96	366.667
185.34	-266.667
185.72	-7.143
186.09	-83.333
186.47	-1000.000
186.85	80.000
187.23	191.667
187.61	-200.000
187.98	-120.000
188.36	300.000
188.74	-250.000
189.12	-111.111
189.49	-80.000
189.87	300.000
190.25	144.444
190.63	566.667
191.00	140.000
191.38	-500.000
191.76	280.000
192.14	-42.857
192.51	-90.000
192.89	-40.000
193.27	20.000
193.65	-300.000
194.02	-66.667
194.40	1100.000
194.78	-112.500
195.15	-214.286
195.53	200.000
195.91	320.000
196.29	-325.000
196.66	-333.333
197.04	-142.857
197.42	180.000
197.79	-150.000
198.17	-25.000
198.55	0.000
198.92	-144.444
199.30	550.000
199.68	-200.000
200.05	-800.000
200.43	-66.667
200.81	-116.667
201.18	383.333
201.56	-250.000
201.94	-1400.000
202.31	-33.333
202.69	77.778
203.07	-91.667
203.44	-375.000
203.82	0.000
204.19	237.500
204.57	-433.333
204.95	154.545
205.32	220.000
205.70	325.000
206.08	-900.000
206.45	-60.000
206.83	1800.000
207.20	-111.111
207.58	-23.077
207.96	433.333
208.33	666.667
208.71	433.333
209.08	450.000
209.46	33.333
209.84	700.000
210.21	-600.000
210.59	250.000
210.96	122.222
211.34	-300.000
211.71	900.000
212.09	40.000
212.46	-137.500
212.84	-200.000
213.22	114.286
213.59	50.000
213.97	0.000
214.34	100.000
214.72	-1100.000
215.09	900.000
215.47	20.000
215.84	-112.500
216.22	-800.000
216.59	1200.000
216.97	-50.000
217.34	-16.667
217.72	72.222
218.09	450.000
218.47	-15.789
218.84	-150.000
219.22	-14.286
219.59	-240.000
219.97	-230.000
220.34	183.333
220.72	154.545
221.09	-1000.000
221.47	0.000
221.84	650.000
222.22	-125.000
222.59	-400.000
222.97	-4.348
223.34	106.667
223.72	314.286
224.09	-166.667
224.46	107.692
224.84	-20.000
225.21	-250.000
225.59	-300.000
225.96	-5.000
226.34	200.000
226.71	260.000
227.08	-53.846
227.46	71.429
227.83	-33.333
228.21	-850.000
228.58	266.667
228.95	-10.526
229.33	0.000
229.70	-283.333
230.08	-44.444
230.45	-566.667
230.82	-1300.000
231.20	-4.762
231.57	-260.000
231.95	-333.333
232.32	133.333
232.69	-500.000
233.07	62.500
233.44	-75.000
233.81	51.613
234.19	-200.000
234.56	-38.889
234.93	-166.667
235.31	18.519
235.68	-3.704
236.05	-34.615
236.43	-47.368
236.80	-18.182
237.17	-92.857
237.55	-50.000
237.92	27.907
238.29	-6.452
238.67	7.143
239.04	42.857
239.41	13.725
239.79	28.000
240.16	7.500
240.53	-17.241
240.91	17.808
241.28	12.676
241.65	29.688
242.02	-10.526
242.40	25.333
242.77	22.105
243.14	35.294
243.51	23.656
243.89	15.238
244.26	23.148
244.63	23.469
245.00	15.179
245.38	21.008
245.75	18.644
246.12	27.344
246.49	28.800
246.87	21.311
247.24	21.127
247.61	31.788
247.98	23.596
248.36	33.962
248.73	28.977
249.10	26.667
249.47	33.854
249.84	28.426
250.22	28.646
250.59	24.719
250.96	31.364
251.33	33.962
251.70	33.945
252.08	30.303
252.45	26.939
252.82	27.004
253.19	30.350
253.56	31.373
253.94	31.301
254.31	35.612
254.68	32.986
255.05	32.450
255.42	26.909
255.79	36.424
256.16	34.722
256.54	34.545
256.91	28.846
257.28	28.571
257.65	28.197
258.02	32.733
258.39	32.024
258.76	30.275
259.14	30.882
259.51	34.085
259.88	34.582
260.25	28.409
260.62	29.775
260.99	31.755
261.36	31.322
261.73	28.533
262.10	31.063
262.47	34.711
262.85	33.419
263.22	32.258
263.59	35.389
263.96	32.115
264.33	26.685
264.70	27.764
265.07	30.788
265.44	31.850
265.81	36.145
266.18	28.337
266.55	34.762
266.92	31.696
267.29	31.556
267.66	29.773
268.03	32.043
268.40	30.892
268.77	30.735
269.14	31.092
269.51	29.864
269.88	33.761
270.25	30.591
270.62	35.084
270.99	29.684
271.36	33.113
271.73	31.875
272.10	35.477
272.47	29.000
272.84	30.573
273.21	30.271
273.58	29.592
273.95	29.482
274.32	31.721
274.69	31.898
275.06	32.833
275.43	31.600
275.80	30.210
276.17	31.423
276.54	32.129
276.91	33.973
277.28	33.462
277.65	32.892
278.02	30.682
278.39	32.305
278.76	30.540
279.13	31.843
279.50	31.408
279.87	31.132
280.23	30.965
280.60	28.975
280.97	31.459
281.34	31.017
281.71	30.906
282.08	30.233
282.45	32.275
282.82	30.303
283.19	29.630
283.56	31.058
283.92	30.648
284.29	31.980
284.66	31.150
285.03	25.214
285.40	32.000
285.77	30.542
286.14	28.843
286.51	28.457
286.87	30.308
287.24	27.083
287.61	29.475
287.98	30.360
288.35	28.837
288.72	28.746
289.08	27.201
289.45	29.953
289.82	26.708
290.19	28.333
290.56	28.944
290.93	27.326
291.29	27.801
291.66	27.107
292.03	28.981
292.40	27.626
292.77	26.822
293.13	26.872
293.50	27.410
293.87	27.462
294.24	25.843
294.60	28.005
294.97	24.654
295.34	24.247
295.71	25.243
296.08	22.268
296.44	25.428
296.81	21.345
297.18	26.261
297.55	25.754
297.91	25.000
298.28	24.169
298.65	24.062
299.02	24.168
299.38	23.342
299.75	24.324
300.12	23.621
300.48	22.770
300.85	23.961
301.22	23.558
301.59	24.331
301.95	25.122
302.32	23.694
302.69	21.760
303.05	21.960
303.42	22.705
303.79	21.461
304.15	24.349
304.52	22.682
304.89	21.984
305.25	22.706
305.62	24.318
305.99	22.172
306.35	21.477
306.72	24.292
307.09	21.763
307.45	22.438
307.82	22.519
308.19	23.762
308.55	22.152
308.92	22.564
309.29	22.071
309.65	21.878
310.02	22.013
310.38	22.921
310.75	22.131
311.12	21.872
311.48	23.741
311.85	20.669
312.22	22.831
312.58	21.652
312.95	21.663
313.31	21.731
313.68	20.258
314.05	22.046
314.41	22.102
314.78	21.106
315.14	23.115
315.51	22.244
315.87	23.242
316.24	22.750
316.61	23.689
316.97	23.333
317.34	22.967
317.70	23.623
318.07	22.565
318.43	23.062
318.80	22.222
319.16	23.113
319.53	23.679
319.89	25.189
320.26	25.172
320.62	24.903
320.99	26.429
321.35	25.198
321.72	26.263
322.08	25.545
322.45	24.556
322.81	28.177
323.18	27.133
323.54	27.678
323.91	27.419
324.27	28.447
324.64	27.554
325.00	27.298
325.37	28.417
325.73	27.555
326.10	28.984
326.46	28.921
326.83	29.464
327.19	29.607
327.56	30.592
327.92	30.642
328.29	28.405
328.65	31.638
329.01	31.284
329.38	31.864
329.74	31.662
330.11	31.314
330.47	31.285
330.84	31.203
331.20	32.348
331.56	31.509
331.93	32.296
332.29	32.192
332.66	32.278
333.02	33.519
333.38	32.904
333.75	32.296
334.11	31.736
334.48	33.542
334.84	31.831
335.20	31.065
335.57	32.516
335.93	33.674
336.29	32.907
336.66	32.332
337.02	32.910
337.38	32.547
337.75	33.909
338.11	33.181
338.47	33.705
338.84	32.320
339.20	34.647
339.56	33.271
339.93	34.054
340.29	34.451
340.65	34.429
341.02	33.127
341.38	34.157
341.74	35.320
342.11	33.599
342.47	32.955
342.83	34.779
343.20	35.102
343.56	34.353
343.92	34.821
344.28	33.962
344.65	34.846
345.01	35.192
345.37	34.359
345.73	33.678
346.10	34.831
346.46	34.426
346.82	33.900
347.19	34.483
347.55	35.459
347.91	34.971
348.27	33.951
348.63	35.436
349.00	35.559
349.36	35.779
349.72	35.386
350.08	36.170
350.45	35.069
350.81	35.260
351.17	35.008
351.53	34.380
351.89	36.356
352.26	34.309
352.62	35.732
352.98	37.071
353.34	36.424
353.70	35.802
354.07	35.997
354.43	35.726
354.79	36.475
355.15	36.885
355.51	36.756
355.87	36.886
356.24	37.827
356.60	37.145
356.96	37.520
357.32	39.671
357.68	38.107
358.04	37.358
358.40	37.234
358.77	36.546
359.13	38.394
359.49	36.080
359.85	38.689
360.21	37.193
360.57	39.234
360.93	38.242
361.29	38.474
361.66	37.855
362.02	39.168
362.38	39.472
362.74	39.124
363.10	38.763
363.46	39.202
363.82	40.352
364.18	39.591
364.54	39.924
364.90	39.333
365.26	39.940
365.62	39.364
365.98	40.780
366.35	40.393
366.71	39.432
367.07	40.295
367.43	39.495
367.79	40.334
368.15	41.883
368.51	40.599
368.87	40.455
369.23	40.045
369.59	40.294
369.95	40.387
370.31	41.136
370.67	41.579
371.03	41.099
371.39	42.674
371.75	41.159
372.11	40.444
372.47	41.722
372.83	42.586
373.19	42.696
373.55	41.243
373.91	41.591
374.27	42.311
374.63	41.826
374.99	41.142
375.35	42.743
375.71	42.898
376.07	41.837
376.42	42.808
376.78	43.415
377.14	43.017
377.50	43.092
377.86	43.802
378.22	42.933
378.58	43.882
378.94	43.680
379.30	43.565
379.66	43.214
380.02	43.611
380.38	44.784
380.74	43.754
381.09	43.520
381.45	43.746
381.81	43.750
382.17	45.016
382.53	45.365
382.89	43.874
383.25	44.769
383.61	44.565
383.97	44.185
384.32	45.419
384.68	43.423
385.04	45.130
385.40	44.665
385.76	45.351
386.12	45.149
386.48	45.662
386.83	44.832
387.19	45.594
387.55	45.402
387.91	44.798
388.27	45.489
388.62	46.179
388.98	46.501
389.34	46.975
389.70	46.090
390.06	46.997
390.42	46.383
390.77	45.875
391.13	47.040
391.49	47.776
391.85	46.906
392.20	46.931
392.56	46.234
392.92	47.310
393.28	46.798
393.64	47.498
393.99	47.208
394.35	46.398
394.71	46.954
395.07	47.149
395.42	46.159
395.78	47.648
396.14	47.568
396.50	48.189
396.85	46.927
397.21	45.990
397.57	46.675
397.92	47.837
398.28	48.261
398.64	46.540
399.00	47.591
399.35	47.479
399.71	47.246
400.07	47.128
400.42	47.564
400.78	47.153
401.14	47.601
401.49	48.657
401.85	47.429
402.21	47.398
402.57	46.813
402.92	47.278
403.28	47.399
403.63	47.115
403.99	48.085
404.35	46.433
404.70	47.372
405.06	48.543
405.42	48.276
405.77	47.325
406.13	48.088
406.49	47.192
406.84	46.887
407.20	47.646
407.55	48.363
407.91	47.692
408.27	48.205
408.62	47.588
408.98	47.619
409.34	48.271
409.69	46.957
410.05	47.733
410.40	48.491
410.76	48.194
411.11	47.641
411.47	46.395
411.83	45.911
412.18	47.382
412.54	47.607
412.89	46.762
413.25	46.458
413.60	48.916
413.96	47.443
414.31	46.654
414.67	48.481
415.03	47.787
415.38	47.772
415.74	47.011
416.09	46.520
416.45	47.488
416.80	45.758
417.16	47.038
417.51	47.120
417.87	48.837
418.22	46.725
418.58	46.717
418.93	47.518
419.29	48.168
419.64	47.459
420.00	48.068
420.35	47.207
420.71	46.415
421.06	46.723
421.42	47.365
421.77	46.894
422.12	47.076
422.48	47.744
422.83	47.052
423.19	46.941
423.54	46.732
423.90	48.146
424.25	46.767
424.61	48.581
424.96	47.174
425.31	47.524
425.67	47.091
426.02	47.640
426.38	46.268
426.73	46.106
427.09	47.669
427.44	46.914
427.79	48.144
428.15	46.925
428.50	47.613
428.85	46.825
429.21	46.922
429.56	47.238
429.92	45.917
430.27	46.240
430.62	46.728
430.98	45.191
431.33	47.108
431.68	47.210
432.04	46.778
432.39	44.920
432.74	45.225
433.10	46.270
433.45	47.372
433.80	46.548
434.16	45.857
434.51	44.983
434.86	46.828
435.22	46.333
435.57	47.164
435.92	45.697
436.28	44.645
436.63	46.094
436.98	46.914
437.34	46.257
437.69	46.173
438.04	45.913
438.39	46.149
438.75	44.862
439.10	45.952
439.45	46.855
439.81	45.841
440.16	45.826
440.51	44.734
440.86	45.391
441.22	44.431
441.57	44.615
441.92	45.113
442.27	45.657
442.63	45.147
442.98	44.621
443.33	43.537
443.68	44.481
444.03	45.000
444.39	45.133
444.74	45.106
445.09	45.868
445.44	42.799
445.79	45.685
446.15	44.898
446.50	44.303
446.85	44.774
447.20	44.420
447.55	44.852
447.91	44.386
448.26	44.214
448.61	44.109
448.96	43.347
449.31	44.304
449.66	42.070
450.02	43.432
450.37	43.742
450.72	43.926
451.07	44.364
451.42	43.610
451.77	43.253
452.12	41.479
452.47	45.054
452.83	44.521
453.18	43.889
453.53	43.370
453.88	43.778
454.23	43.770
454.58	43.734
454.93	41.757
455.28	41.480
455.63	41.715
455.98	43.718
456.34	42.867
456.69	42.722
457.04	42.585
457.39	42.322
457.74	41.593
458.09	41.942
458.44	42.796
458.79	40.989
459.14	42.397
459.49	41.401
459.84	42.390
460.19	42.589
460.54	40.088
460.89	41.529
461.24	42.468
461.59	41.956
461.94	41.223
462.29	41.040
462.64	40.669
462.99	40.029
463.34	41.392
463.69	41.084
464.04	40.411
464.39	40.514
464.74	40.363
465.09	39.486
465.44	40.192
465.79	40.012
466.14	39.737
466.49	40.214
466.84	39.742
467.19	39.571
467.54	38.992
467.89	40.170
468.24	39.078
468.59	38.351
468.94	38.870
469.29	39.585
469.64	39.971
469.99	38.645
470.34	38.190
470.68	40.000
471.03	37.372
471.38	38.818
471.73	37.500
472.08	38.292
472.43	37.759
472.78	37.128
473.13	37.895
473.48	37.690
473.83	37.781
474.17	36.624
474.52	38.178
474.87	37.184
475.22	38.437
475.57	37.250
475.92	36.725
476.27	36.227
476.61	37.175
476.96	38.115
477.31	38.299
477.66	37.013
478.01	36.963
478.36	36.332
478.70	37.521
479.05	36.216
479.40	36.484
479.75	36.399
480.10	35.768
480.45	36.545
480.79	36.326
481.14	36.690
481.49	36.247
481.84	36.869
482.19	35.756
482.53	35.784
482.88	36.502
483.23	35.578
483.58	34.950
483.92	34.975
484.27	36.108
484.62	36.492
484.97	34.930
485.31	34.571
485.66	34.882
486.01	35.117
486.36	35.405
486.70	35.763
487.05	35.695
487.40	35.268
487.75	35.042
488.09	33.647
488.44	33.840
488.79	34.251
489.13	33.416
489.48	34.187
489.83	33.703
490.17	34.271
490.52	33.222
490.87	33.581
491.22	33.185
491.56	33.498
491.91	34.839
492.26	34.829
492.60	34.337
492.95	33.162
493.30	32.985
493.64	32.860
493.99	33.368
494.34	33.452
494.68	33.003
495.03	31.846
495.37	32.083
495.72	32.911
496.07	32.809
496.41	32.955
496.76	32.760
497.11	32.939
497.45	32.898
497.80	32.347
498.14	31.626
498.49	32.301
498.84	30.922
499.18	32.382
499.53	33.333
499.87	31.848
500.22	32.208
500.56	32.862
500.91	32.354
501.26	31.024
501.60	31.804
501.95	32.497
502.29	32.376
502.64	31.359
502.98	31.348
503.33	30.504
503.67	30.883
504.02	31.307
504.36	30.868
504.71	30.957
505.06	30.102
505.40	31.689
505.75	30.437
506.09	31.419
506.44	30.526
506.78	31.156
507.13	30.945
507.47	31.967
507.82	30.190
508.16	31.292
508.51	31.236
508.85	31.099
509.19	30.335
509.54	31.048
509.88	30.610
510.23	29.775
510.57	29.813
510.92	29.875
511.26	29.351
511.61	31.450
511.95	29.960
512.30	29.739
512.64	29.326
512.98	30.538
513.33	30.246
513.67	29.641
514.02	28.846
514.36	30.190
514.70	29.690
515.05	28.902
515.39	29.799
515.74	29.762
516.08	29.692
516.42	29.894
516.77	30.000
517.11	29.602
517.46	29.357
517.80	29.611
518.14	29.981
518.49	29.948
518.83	29.118
519.17	28.856
519.52	29.357
519.86	29.576
520.20	29.108
520.55	30.091
520.89	30.094
521.23	29.392
521.58	28.042
521.92	28.171
522.26	29.278
522.61	29.488
522.95	28.699
523.29	28.543
523.64	28.765
523.98	28.696
524.32	28.620
524.66	29.232
525.01	28.591
525.35	28.249
525.69	28.080
526.04	28.823
526.38	28.855
526.72	28.264
527.06	28.833
527.41	28.561
527.75	27.925
528.09	27.723
528.43	27.073
528.78	28.442
529.12	27.466
529.46	27.641
529.80	28.046
530.15	29.187
530.49	28.382
530.83	28.055
531.17	27.401
531.51	28.194
531.86	28.361
532.20	27.201
532.54	27.338
532.88	27.345
533.22	28.592
533.57	27.172
533.91	28.217
534.25	28.853
534.59	28.748
534.93	26.998
535.27	27.879
535.62	28.427
535.96	28.332
536.30	27.418
536.64	27.182
536.98	28.024
537.32	27.158
537.66	26.686
538.01	27.393
538.35	27.127
538.69	27.459
539.03	26.965
539.37	27.207
539.71	27.899
540.05	28.437
540.39	26.652
540.73	27.399
541.07	26.250
541.42	27.014
541.76	27.554
542.10	27.188
542.44	27.962
542.78	26.540
543.12	25.199
543.46	27.273
543.80	26.733
544.14	27.168
544.48	26.737
544.82	25.905
545.16	27.464
545.50	27.802
545.84	26.774
546.18	26.667
546.52	25.980
546.86	25.784
547.20	26.439
547.54	25.474
547.88	26.638
548.22	26.231
548.56	26.991
548.90	26.316
549.24	26.170
549.58	25.633
549.92	25.714
550.26	26.564
550.60	26.487
550.94	26.111
551.28	26.098
551.62	26.372
551.96	27.157
552.30	25.814
552.64	26.071
552.98	25.780
553.32	25.606
553.66	26.404
554.00	25.560
554.34	26.641
554.68	25.120
555.02	26.508
555.36	25.576
555.69	25.288
556.03	26.460
556.37	25.206
556.71	25.038
557.05	25.469
557.39	25.622
557.73	25.943
558.07	26.604
558.41	24.421
558.75	25.975
559.08	26.213
559.42	25.084
559.76	24.937
560.10	25.917
560.44	25.257
560.78	25.695
561.12	25.319
561.45	25.744
561.79	24.963
562.13	24.166
562.47	25.229
562.81	24.943
563.15	24.106
563.48	25.318
563.82	25.619
564.16	25.617
564.50	25.143
564.84	25.514
565.17	25.393
565.51	25.053
565.85	25.070
566.19	25.261
566.52	26.380
566.86	25.683
567.20	25.216
567.54	25.590
567.88	24.818
568.21	26.319
568.55	25.127
568.89	26.429
569.23	25.402
569.56	25.977
569.90	25.824
570.24	26.478
570.57	26.448
570.91	26.747
571.25	26.894
571.59	26.623
571.92	25.767
572.26	25.918
572.60	26.106
572.93	26.686
573.27	25.665
573.61	26.153
573.95	25.799
574.28	26.207
574.62	25.952
574.96	25.815
575.29	26.020
575.63	25.887
575.97	25.394
576.30	26.113
576.64	25.937
576.98	25.980
577.31	26.086
577.65	26.408
577.98	26.031
578.32	25.939
578.66	25.733
578.99	26.272
579.33	25.799
579.67	25.691
580.00	26.298
580.34	26.106
580.67	25.814
581.01	25.604
581.35	25.583
581.68	25.638
582.02	26.174
582.35	25.888
582.69	26.008
583.02	26.068
583.36	25.566
583.70	25.654
584.03	26.016
584.37	26.006
584.70	25.730
585.04	25.384
585.37	25.581
585.71	25.755
586.04	25.842
586.38	26.151
586.72	25.375
587.05	25.614
587.39	25.294
587.72	25.896
588.06	25.736
588.39	26.001
588.73	25.453
589.06	25.535
589.40	25.801
589.73	25.654
590.07	25.281
590.40	24.951
590.73	25.823
591.07	24.719
591.40	25.126
591.74	24.953
592.07	25.310
592.41	25.211
592.74	25.522
593.08	25.094
593.41	25.574
593.75	25.817
594.08	25.849
594.41	24.943
594.75	25.450
595.08	25.438
595.42	24.709
595.75	25.568
596.09	25.020
596.42	25.877
596.75	25.500
597.09	24.720
597.42	24.730
597.75	25.610
598.09	24.953
598.42	24.752
598.76	24.636
599.09	24.622
599.42	24.508
599.76	25.539
600.09	25.623
600.42	25.117
600.76	24.750
601.09	24.353
601.42	24.436
601.76	24.229
602.09	24.885
602.42	24.924
602.76	25.131
603.09	24.891
603.42	24.787
603.76	24.801
604.09	25.355
604.42	25.290
604.76	25.057
605.09	24.516
605.42	24.645
605.75	24.075
606.09	25.156
606.42	25.022
606.75	25.666
607.09	25.000
607.42	24.782
607.75	24.793
608.08	24.930
608.42	25.267
608.75	25.013
609.08	23.372
609.41	24.987
609.75	24.223
610.08	24.444
610.41	24.377
610.74	24.267
611.07	24.802
611.41	24.036
611.74	24.374
612.07	23.940
612.40	24.401
612.73	24.421
613.07	24.251
613.40	25.244
613.73	23.540
614.06	23.419
614.39	24.370
614.72	23.967
615.06	24.225
615.39	23.383
615.72	23.292
616.05	24.058
616.38	24.496
616.71	23.507
617.05	24.183
617.38	24.645
617.71	24.233
618.04	24.376
618.37	23.676
618.70	24.592
619.03	23.858
619.36	23.638
619.69	22.162
620.03	24.027
620.36	23.885
620.69	23.060
621.02	22.724
621.35	24.000
621.68	23.762
622.01	22.906
622.34	23.786
622.67	23.946
623.00	23.587
623.33	23.622
623.66	25.020
623.99	23.684
624.32	23.511
624.65	23.047
624.99	23.359
625.32	23.302
625.65	23.058
625.98	24.083
626.31	22.771
626.64	22.973
626.97	24.081
627.30	23.056
627.63	23.907
627.96	23.650
628.29	22.753
628.62	23.711
628.95	22.070
629.28	22.727
629.61	22.362
629.94	23.651
630.26	21.862
630.59	23.665
630.92	21.707
631.25	20.894
631.58	22.326
631.91	21.754
632.24	22.130
632.57	23.068
632.90	23.370
633.23	22.194
633.56	21.509
633.89	21.900
634.22	21.667
634.55	21.419
634.88	22.222
635.20	21.233
635.53	23.045
635.86	22.147
636.19	23.602
636.52	22.911
636.85	22.425
637.18	21.632
637.51	21.951
637.83	22.905
638.16	23.186
638.49	21.470
638.82	22.644
639.15	22.143
639.48	21.397
639.81	21.162
640.13	20.827
640.46	20.945
640.79	21.395
641.12	23.256
641.45	21.306
641.77	20.223
642.10	23.290
642.43	21.886
642.76	18.638
643.09	21.280
643.41	21.326
643.74	21.701
644.07	21.517
644.40	20.397
644.73	21.363
645.05	20.038
645.38	21.154
645.71	22.519
646.04	21.375
646.36	21.780
646.69	21.857
647.02	22.266
647.35	20.800
647.67	24.850
648.00	24.078
648.33	21.773
648.66	20.594
648.98	20.000
649.31	22.375
649.64	20.998
649.96	20.270
650.29	19.469
650.62	21.521
650.94	21.996
651.27	19.461
651.60	20.268
651.92	21.374
652.25	17.017
652.58	19.928
652.90	19.217
653.23	21.024
653.56	21.007
653.88	22.263
654.21	19.849
654.54	18.762
654.86	22.482
655.19	20.968
655.52	23.942
655.84	26.000
656.17	26.361
656.49	35.155
656.82	40.319
657.15	32.414
657.47	24.366
657.80	18.114
658.13	14.884
658.45	24.972
658.78	23.710
659.10	23.105
659.43	22.469
659.75	21.435
660.08	21.101
660.41	18.954
660.73	20.083
661.06	18.727
661.38	23.185
661.71	23.414
662.03	21.991
662.36	17.900
662.68	21.103
663.01	19.471
663.33	19.811
663.66	21.292
663.98	18.582
664.31	20.000
664.63	19.037
664.96	22.328
665.28	19.858
665.61	21.729
665.93	22.120
666.26	20.530
666.58	21.789
666.91	21.077
667.23	20.197
667.56	19.506
667.88	22.055
668.21	18.782
668.53	21.066
668.86	14.541
669.18	18.782
669.50	21.337
669.83	19.500
670.15	20.500
670.48	18.797
670.80	20.812
671.13	20.241
671.45	18.367
671.77	20.773
672.10	21.538
672.42	18.327
672.75	21.553
673.07	21.869
673.39	21.790
673.72	21.901
674.04	19.574
674.37	21.478
674.69	19.393
675.01	21.860
675.34	18.627
675.66	18.810
675.98	17.677
676.31	18.136
676.63	19.330
676.95	19.664
677.28	19.802
677.60	23.810
677.92	20.802
678.25	19.026
678.57	20.186
678.89	18.119
679.22	22.248
679.54	20.267
679.86	21.413
680.18	20.502
680.51	20.739
680.83	20.000
681.15	18.954
681.48	19.149
681.80	18.043
682.12	21.199
682.44	19.612
682.77	22.955
683.09	17.892
683.41	20.301
683.73	17.839
684.06	20.305
684.38	19.185
684.70	20.785
685.02	17.965
685.34	18.201
685.67	20.751
685.99	20.958
686.31	22.015
686.63	20.777
686.96	20.325
687.28	19.097
687.60	19.713
687.92	19.831
688.24	22.947
688.56	17.802
688.89	22.374
689.21	19.535
689.53	19.182
689.85	19.241
690.17	18.873
690.49	23.059
690.82	21.376
691.14	22.715
691.46	19.250
691.78	18.421
692.10	23.165
692.42	20.642
692.74	22.749
693.06	19.036
693.39	17.980
693.71	20.000
694.03	16.908
694.35	19.554
694.67	22.901
694.99	23.450
695.31	20.397
695.63	17.838
695.95	19.382
696.27	17.847
696.59	19.288
696.91	20.513
697.23	21.490
697.56	21.244
697.88	19.204
698.20	16.707
698.52	19.231
698.84	19.549
699.16	17.942
699.48	20.681
699.80	17.582
700.12	22.039
700.44	17.404
700.76	17.666
701.08	18.413
701.40	22.368
701.72	22.000
702.04	16.667
702.36	17.377
702.68	20.805
703.00	17.666
703.32	17.066
703.64	21.767
703.96	17.089
704.28	17.606
704.60	21.233
704.91	19.737
705.23	14.737
705.55	17.472
705.87	19.424
706.19	20.319
706.51	15.234
706.83	18.315
707.15	18.983
707.47	21.856
707.79	18.911
708.11	21.164
708.43	19.200
708.74	22.678
709.06	18.098
709.38	19.288
709.70	20.779
710.02	19.231
710.34	15.603
710.66	18.727
710.98	18.182
711.29	16.838
711.61	16.312
711.93	20.599
712.25	18.113
712.57	16.406
712.89	18.776
713.20	18.145
713.52	16.260
713.84	17.883
714.16	20.270
714.48	19.454
714.80	18.855
715.11	19.244
715.43	18.430
715.75	22.807
716.07	20.364
716.39	21.843
716.70	17.600
717.02	15.726
717.34	18.615
717.66	16.818
717.97	15.741
718.29	17.333
718.61	15.315
718.93	21.008
719.24	19.665
719.56	17.857
719.88	18.824
720.20	13.248
720.51	21.053
720.83	21.339
721.15	17.959
721.46	16.878
721.78	16.017
722.10	19.767
722.42	21.739
722.73	16.290
723.05	16.590
723.37	21.267
723.68	17.062
724.00	17.593
724.32	16.822
724.63	19.910
724.95	20.091
725.27	18.779
725.58	16.438
725.90	14.865
726.22	14.410
726.53	13.525
726.85	20.000
727.16	18.623
727.48	22.581
727.80	22.831
728.11	19.111
728.43	19.753
728.74	20.614
729.06	19.651
729.38	19.380
729.69	20.000
730.01	19.665
730.32	18.327
730.64	21.154
730.96	13.514
731.27	17.761
731.59	15.488
731.90	20.395
732.22	22.924
732.53	16.842
732.85	15.845
733.16	21.245
733.48	17.910
733.80	21.091
734.11	18.794
734.43	23.105
734.74	21.807
735.06	20.257
735.37	19.489
735.69	18.310
736.00	24.074
736.32	22.028
736.63	21.111
736.95	12.840
737.26	18.116
737.58	19.708
737.89	21.887
738.21	19.466
738.52	23.361
738.83	19.658
739.15	20.000
739.46	15.766
739.78	16.988
740.09	19.841
740.41	21.212
740.72	14.741
741.04	19.763
741.35	18.834
741.66	18.280
741.98	18.367
742.29	15.544
742.61	18.497
742.92	14.706
743.23	21.393
743.55	24.352
743.86	14.493
744.18	15.000
744.49	18.333
744.80	24.194
745.12	16.923
745.43	15.508
745.74	13.904
746.06	20.690
746.37	12.222
746.68	20.541
747.00	12.707
747.31	18.325
747.62	24.737
747.94	24.057
748.25	25.616
748.56	23.737
748.88	15.847
749.19	22.798
749.50	21.765
749.82	26.500
750.13	24.757
750.44	21.030
750.75	22.400
751.07	22.594
751.38	19.141
751.69	21.825
752.01	21.849
752.32	17.355
752.63	20.087
752.94	18.000
753.26	21.005
753.57	20.379
753.88	13.953
754.19	18.062
754.51	18.828
754.82	20.000
755.13	19.912
755.44	18.615
755.75	24.900
756.07	19.313
756.38	21.757
756.69	22.264
757.00	22.340
757.31	18.685
757.63	20.261
757.94	20.000
758.25	25.893
758.56	23.784
758.87	18.750
759.18	25.234
759.50	20.996
759.81	18.919
760.12	19.929
760.43	20.598
760.74	25.749
761.05	24.359
761.36	20.178
761.67	20.973
761.99	24.080
762.30	20.000
762.61	22.764
762.92	21.778
763.23	17.674
763.54	21.320
763.85	23.529
764.16	18.696
764.47	20.870
764.78	21.371
765.10	16.535
765.41	21.070
765.72	22.074
766.03	19.732
766.34	17.803
766.65	23.437
766.96	22.222
767.27	26.816
767.58	17.610
767.89	20.130
768.20	15.541
768.51	21.839
768.82	16.250
769.13	20.833
769.44	21.226
769.75	20.588
770.06	14.078
770.37	23.936
770.68	16.410
770.99	17.259
771.30	20.619
771.61	15.247
771.92	22.170
772.23	20.673
772.54	20.000
772.85	12.329
773.16	18.710
773.47	26.752
773.78	23.952
774.09	16.447
774.39	16.912
774.70	18.045
775.01	17.692
775.32	20.635
775.63	29.134
775.94	16.038
776.25	18.519
776.56	28.182
776.87	20.513
777.18	13.000
777.48	19.231
777.79	21.296
778.10	11.321
778.41	17.647
778.72	12.264
779.03	20.175
779.34	10.084
779.65	12.676
779.95	16.547
780.26	25.806
780.57	8.696
780.88	8.257
781.19	15.741
781.50	10.656
781.80	17.518
782.11	17.308
782.42	8.966
782.73	21.678
783.04	16.800
783.34	17.600
783.65	18.699
783.96	12.295
784.27	16.807
784.57	4.673
784.88	16.964
785.19	26.804
785.50	15.789
785.81	18.000
786.11	12.871
786.42	-4.706
786.73	23.958
787.04	17.347
787.34	25.000
787.65	27.358
787.96	3.093
788.26	21.782
788.57	24.348
788.88	10.092
789.19	8.264
789.49	20.000
789.80	15.517
790.11	14.634
790.41	16.854
790.72	9.302
791.03	19.767
791.33	-2.597
791.64	31.707
791.95	9.756
792.25	-7.229
792.56	6.173
792.87	-9.859
793.17	19.277
793.48	20.000
793.79	15.000
794.09	3.333
794.40	9.783
794.70	14.783
795.01	8.257
795.32	15.748
795.62	11.765
795.93	14.706
796.23	2.020
796.54	12.791
796.85	7.246
797.15	7.813
797.46	-1.695
797.76	14.754
798.07	10.526
798.37	16.129
798.68	4.687
798.99	13.846
799.29	18.182
799.60	7.246
799.90	8.571
800.21	1.754
800.51	3.448
800.82	1.887
801.12	-1.961
801.43	-6.452
801.73	17.742
802.04	24.000
802.34	1.887
802.65	-18.421
802.95	12.727
803.26	18.868
803.56	1.639
803.87	-6.000
804.17	-7.407
804.48	7.692
804.78	-20.408
805.09	8.511
805.39	28.814
805.70	4.167
806.00	17.857
806.30	23.729
806.61	6.154
806.91	16.923
807.22	15.789
807.52	8.571
807.83	8.621
808.13	11.392
808.43	4.918
808.74	-1.639
809.04	24.324
809.35	3.704
809.65	12.500
809.95	30.508
810.26	-18.367
810.56	5.660
810.86	-3.922
811.17	18.919
811.47	-66.667
811.77	5.882
812.08	6.818
812.38	-25.000
812.69	10.256
812.99	21.429
813.29	26.087
813.59	-11.429
813.90	4.762
814.20	21.818
814.50	4.082
814.81	-3.922
815.11	8.333
815.41	-9.756
815.72	-3.846
816.02	2.128
816.32	40.625
816.62	6.061
816.93	-3.030
817.23	8.108
817.53	0.000
817.84	32.500
818.14	0.000
818.44	18.750
818.74	-42.857
819.04	-22.857
819.35	5.714
819.65	29.545
819.95	28.205
820.25	-55.556
820.56	-6.897
820.86	-14.286
821.16	4.348
821.46	4.762
821.76	1.852
822.07	-17.391
822.37	-12.245
822.67	-16.279
822.97	-43.478
823.27	-34.615
823.57	-37.037
823.88	-7.143
824.18	-7.692
824.48	28.571
824.78	9.091
825.08	-106.667
825.38	17.500
825.69	-77.778
825.99	-7.407
826.29	11.111
826.59	-22.222
826.89	-25.926
827.19	-3.571
827.49	-68.182
827.79	-81.818
828.09	-4.545
828.39	-52.174
828.70	-11.111
829.00	-14.286
829.30	19.048
829.60	12.903
829.90	-19.231
830.20	5.128
830.50	-27.273
830.80	-52.381
831.10	-38.889
831.40	-28.571
831.70	-14.815
832.00	-29.412
832.30	-17.391
832.60	16.667
832.90	-136.364
833.20	-55.556
833.50	-9.375
833.80	-11.538
834.10	20.000
834.40	-12.500
834.70	0.000
835.00	38.462
835.30	-10.000
835.60	-50.000
835.90	5.000
836.20	-57.143
836.50	-8.696
836.80	33.333
837.10	6.667
837.40	-110.000
837.70	-56.522
838.00	-50.000
838.30	1600.000
838.60	0.000
838.90	-260.000
839.19	-100.000
839.49	-550.000
839.79	-17.647
840.09	-77.778
840.39	14.286
840.69	-33.333
840.99	0.000
841.29	-6.897
841.59	-33.333
841.88	-36.364
842.18	-300.000
842.48	-6.250
842.78	-7.692
843.08	-23.529
843.38	-30.000
843.68	-38.462
843.97	-88.235
844.27	0.000
844.57	-20.833
844.87	-72.727
845.17	-47.368
845.47	-38.889
845.76	27.778
846.06	-33.333
846.36	21.429
846.66	-255.556
846.96	-15.000
847.25	-340.000
847.55	-187.500
847.85	-73.333
848.15	-150.000
848.44	-36.842
848.74	0.000
849.04	-5.263
849.34	-166.667
849.63	-133.333
849.93	0.000
850.23	-36.364
850.53	-200.000
850.82	-80.000
851.12	-77.778
851.42	-71.429
851.71	20.000
852.01	-42.857
852.31	-266.667
852.61	-107.692
852.90	-320.000
853.20	-255.556
853.50	-111.111
853.79	0.000
854.09	-70.000
854.39	-63.158
854.68	-10.000
854.98	-75.000
855.28	27.778
855.57	-71.429
855.87	-47.368
856.17	-75.000
856.46	-23.077
856.76	13.333
857.05	-87.500
857.35	-12.500
857.65	-27.778
857.94	0.000
858.24	4.348
858.53	-40.000
858.83	-166.667
859.13	-100.000
859.42	-230.000
859.72	83.333
860.01	0.000
860.31	-40.000
860.60	-100.000
860.90	-25.000
861.20	-133.333
861.49	-175.000
861.79	750.000
862.08	-9.677
862.38	-57.895
862.67	7.692
862.97	-90.000
863.26	8.333
863.56	-52.174
863.85	-433.333
864.15	-114.286
864.44	56.250
864.74	-100.000
865.03	-11.111
865.33	-400.000
865.62	-900.000
865.92	-100.000
866.21	66.667
866.51	-18.182
866.80	-366.667
867.10	-300.000
867.39	-122.222
867.69	-116.667
867.98	260.000
868.27	-450.000
868.57	375.000
868.86	-20.000
869.16	76.923
869.45	1000.000
869.75	-83.333
870.04	-108.333
870.33	0.000
870.63	-71.429
870.92	47.826
871.22	-237.500
871.51	500.000
871.80	-25.000
872.10	-533.333
>>>>>End Processed Spectral Data<<<<<
