SpectraSuite Data File
++++++++++++++++++++++++++++++++++++
Date: Tue May 12 19:59:56 PDT 2015
User: schluterlab
Dark Spectrum Present: Yes
Reference Spectrum Present: Yes
Number of Sampled Component Spectra: 1
Spectrometers: USB2E3373
Integration Time (usec): 3000 (USB2E3373)
Spectra Averaged: 3 (USB2E3373)
Boxcar Smoothing: 0 (USB2E3373)
Correct for Electrical Dark: No (USB2E3373)
Strobe/Lamp Enabled: No (USB2E3373)
Correct for Detector Non-linearity: No (USB2E3373)
Correct for Stray Light: No (USB2E3373)
Number of Pixels in Processed Spectrum: 2048
>>>>>Begin Processed Spectral Data<<<<<
178.53	0.000
178.91	-180.000
179.29	-316.667
179.67	766.667
180.04	0.000
180.42	-520.000
180.80	-400.000
181.18	900.000
181.56	-600.000
181.94	216.667
182.31	2300.000
182.69	-142.857
183.07	0.000
183.45	300.000
183.83	580.000
184.20	416.667
184.58	1150.000
184.96	483.333
185.34	-733.333
185.72	-100.000
186.09	-450.000
186.47	-3000.000
186.85	-340.000
187.23	200.000
187.61	-214.286
187.98	-380.000
188.36	1050.000
188.74	-475.000
189.12	-177.778
189.49	-130.000
189.87	575.000
190.25	177.778
190.63	500.000
191.00	260.000
191.38	-533.333
191.76	500.000
192.14	-285.714
192.51	-140.000
192.89	-400.000
193.27	-400.000
193.65	-666.667
194.02	-250.000
194.40	2100.000
194.78	-200.000
195.15	-271.429
195.53	566.667
195.91	360.000
196.29	-825.000
196.66	-733.333
197.04	-300.000
197.42	320.000
197.79	-312.500
198.17	-91.667
198.55	-700.000
198.92	-200.000
199.30	750.000
199.68	-300.000
200.05	-1500.000
200.43	-83.333
200.81	-166.667
201.18	550.000
201.56	-550.000
201.94	-1900.000
202.31	-183.333
202.69	-100.000
203.07	-125.000
203.44	-650.000
203.82	0.000
204.19	300.000
204.57	-466.667
204.95	245.455
205.32	460.000
205.70	625.000
206.08	-1600.000
206.45	-180.000
206.83	2500.000
207.20	-188.889
207.58	-61.538
207.96	800.000
208.33	966.667
208.71	966.667
209.08	1450.000
209.46	-88.889
209.84	566.667
210.21	-700.000
210.59	450.000
210.96	266.667
211.34	-600.000
211.71	1100.000
212.09	-380.000
212.46	-312.500
212.84	-200.000
213.22	314.286
213.59	-200.000
213.97	0.000
214.34	-1200.000
214.72	-1200.000
215.09	750.000
215.47	-113.333
215.84	-137.500
216.22	-2400.000
216.59	1200.000
216.97	-100.000
217.34	-216.667
217.72	-72.222
218.09	625.000
218.47	-100.000
218.84	-250.000
219.22	-85.714
219.59	-180.000
219.97	-200.000
220.34	350.000
220.72	154.545
221.09	-1100.000
221.47	0.000
221.84	900.000
222.22	-525.000
222.59	-875.000
222.97	-60.870
223.34	186.667
223.72	442.857
224.09	-350.000
224.46	292.308
224.84	-100.000
225.21	-950.000
225.59	-525.000
225.96	20.000
226.34	333.333
226.71	280.000
227.08	-153.846
227.46	-214.286
227.83	-133.333
228.21	-1500.000
228.58	383.333
228.95	-36.842
229.33	-87.500
229.70	-383.333
230.08	-233.333
230.45	-833.333
230.82	-2100.000
231.20	-52.381
231.57	-320.000
231.95	-866.667
232.32	233.333
232.69	-1200.000
233.07	-43.750
233.44	-250.000
233.81	-19.355
234.19	-420.000
234.56	-44.444
234.93	-416.667
235.31	3.704
235.68	-66.667
236.05	-30.769
236.43	-78.947
236.80	-45.455
237.17	-178.571
237.55	-150.000
237.92	-18.605
238.29	-41.935
238.67	-39.286
239.04	-22.857
239.41	-1.961
239.79	-4.000
240.16	-22.500
240.53	-27.586
240.91	6.849
241.28	-5.634
241.65	0.000
242.02	-21.053
242.40	-8.000
242.77	11.579
243.14	12.941
243.51	-6.452
243.89	8.571
244.26	6.481
244.63	16.327
245.00	-0.893
245.38	1.681
245.75	21.186
246.12	14.063
246.49	4.800
246.87	11.475
247.24	4.930
247.61	3.311
247.98	13.483
248.36	15.723
248.73	15.341
249.10	19.444
249.47	15.104
249.84	13.198
250.22	16.146
250.59	15.730
250.96	15.000
251.33	21.226
251.70	18.807
252.08	22.944
252.45	19.592
252.82	12.236
253.19	22.568
253.56	20.784
253.94	18.293
254.31	18.705
254.68	20.833
255.05	22.185
255.42	21.091
255.79	24.834
256.16	19.792
256.54	20.909
256.91	18.590
257.28	20.130
257.65	15.738
258.02	21.622
258.39	23.867
258.76	20.795
259.14	17.941
259.51	21.690
259.88	23.631
260.25	20.739
260.62	23.315
260.99	23.677
261.36	21.839
261.73	22.133
262.10	25.613
262.47	26.722
262.85	23.393
263.22	21.505
263.59	23.324
263.96	24.021
264.33	18.059
264.70	20.639
265.07	22.167
265.44	22.482
265.81	25.783
266.18	21.311
266.55	22.381
266.92	24.107
267.29	22.000
267.66	23.409
268.03	21.290
268.40	21.281
268.77	24.053
269.14	23.739
269.51	25.339
269.88	23.718
270.25	22.785
270.62	23.319
270.99	24.421
271.36	22.958
271.73	24.375
272.10	24.481
272.47	21.600
272.84	20.170
273.21	21.712
273.58	22.857
273.95	22.908
274.32	23.598
274.69	23.092
275.06	24.953
275.43	21.000
275.80	25.048
276.17	22.332
276.54	23.384
276.91	24.760
277.28	23.791
277.65	23.629
278.02	23.295
278.39	24.319
278.76	24.581
279.13	23.077
279.50	24.729
279.87	22.830
280.23	23.679
280.60	20.848
280.97	23.550
281.34	26.441
281.71	19.716
282.08	23.971
282.45	25.044
282.82	21.212
283.19	23.401
283.56	26.451
283.92	24.171
284.29	22.335
284.66	24.956
285.03	22.127
285.40	23.500
285.77	25.944
286.14	24.247
286.51	21.865
286.87	24.473
287.24	21.154
287.61	21.451
287.98	25.039
288.35	22.171
288.72	22.936
289.08	17.453
289.45	20.125
289.82	21.429
290.19	21.364
290.56	23.010
290.93	20.236
291.29	21.702
291.66	20.506
292.03	22.525
292.40	21.871
292.77	20.845
293.13	21.586
293.50	22.590
293.87	19.556
294.24	19.663
294.60	21.995
294.97	18.698
295.34	19.589
295.71	18.031
296.08	20.355
296.44	20.553
296.81	18.887
297.18	20.828
297.55	18.844
297.91	19.924
298.28	16.752
298.65	17.076
299.02	19.359
299.38	19.133
299.75	18.018
300.12	19.065
300.48	18.662
300.85	18.949
301.22	18.149
301.59	18.248
301.95	18.415
302.32	17.861
302.69	16.528
303.05	18.654
303.42	17.029
303.79	16.180
304.15	18.913
304.52	18.436
304.89	17.926
305.25	17.890
305.62	18.409
305.99	17.469
306.35	18.680
306.72	18.301
307.09	17.628
307.45	18.015
307.82	17.716
308.19	19.142
308.55	18.460
308.92	17.797
309.29	17.259
309.65	18.369
310.02	18.134
310.38	17.164
310.75	17.725
311.12	18.210
311.48	18.705
311.85	17.730
312.22	16.839
312.58	18.026
312.95	19.302
313.31	18.781
313.68	17.875
314.05	17.875
314.41	17.289
314.78	17.085
315.14	19.295
315.51	17.080
315.87	18.945
316.24	18.793
316.61	18.155
316.97	18.725
317.34	19.330
317.70	19.421
318.07	18.997
318.43	20.132
318.80	19.126
319.16	19.292
319.53	19.434
319.89	19.508
320.26	20.256
320.62	20.640
320.99	21.429
321.35	20.257
321.72	22.222
322.08	22.871
322.45	22.682
322.81	22.857
323.18	22.244
323.54	23.318
323.91	23.719
324.27	22.179
324.64	23.055
325.00	24.932
325.37	23.831
325.73	23.358
326.10	25.044
326.46	25.839
326.83	26.385
327.19	27.074
327.56	28.382
327.92	27.951
328.29	28.495
328.65	28.908
329.01	28.257
329.38	28.375
329.74	29.434
330.11	29.730
330.47	29.236
330.84	29.511
331.20	30.961
331.56	30.000
331.93	28.820
332.29	30.712
332.66	32.007
333.02	31.569
333.38	31.710
333.75	32.205
334.11	30.922
334.48	31.038
334.84	33.052
335.20	31.334
335.57	34.060
335.93	31.349
336.29	32.633
336.66	32.240
337.02	31.913
337.38	33.868
337.75	33.000
338.11	33.090
338.47	33.612
338.84	31.215
339.20	33.547
339.56	33.458
339.93	31.532
340.29	32.548
340.65	32.420
341.02	32.772
341.38	33.981
341.74	33.541
342.11	34.041
342.47	33.129
342.83	33.218
343.20	34.306
343.56	33.392
343.92	33.683
344.28	32.419
344.65	33.733
345.01	33.711
345.37	33.419
345.73	34.109
346.10	34.659
346.46	33.391
346.82	34.240
347.19	34.567
347.55	35.544
347.91	32.187
348.27	34.035
348.63	33.276
349.00	33.973
349.36	35.367
349.72	34.975
350.08	35.679
350.45	34.174
350.81	34.104
351.17	33.526
351.53	33.494
351.89	33.938
352.26	32.358
352.62	33.851
352.98	35.063
353.34	35.338
353.70	33.251
354.07	35.914
354.43	34.558
354.79	32.951
355.15	34.383
355.51	36.349
355.87	35.387
356.24	36.111
356.60	34.224
356.96	35.703
357.32	35.062
357.68	34.765
358.04	35.008
358.40	34.779
358.77	34.618
359.13	35.743
359.49	35.120
359.85	36.691
360.21	34.814
360.57	36.124
360.93	35.788
361.29	34.657
361.66	35.883
362.02	35.479
362.38	35.975
362.74	35.895
363.10	35.747
363.46	36.870
363.82	36.830
364.18	37.169
364.54	36.183
364.90	36.519
365.26	36.885
365.62	37.472
365.98	37.856
366.35	37.821
366.71	37.789
367.07	38.007
367.43	36.245
367.79	38.009
368.15	38.547
368.51	38.801
368.87	37.812
369.23	39.440
369.59	37.574
369.95	37.481
370.31	38.106
370.67	38.271
371.03	38.932
371.39	39.426
371.75	38.187
372.11	39.333
372.47	37.565
372.83	39.664
373.19	39.759
373.55	39.147
373.91	40.000
374.27	40.765
374.63	39.764
374.99	39.971
375.35	39.405
375.71	40.172
376.07	39.788
376.42	40.180
376.78	40.976
377.14	40.503
377.50	40.766
377.86	40.808
378.22	41.083
378.58	42.303
378.94	40.602
379.30	41.120
379.66	42.958
380.02	41.322
380.38	41.603
380.74	42.449
381.09	41.487
381.45	41.968
381.81	41.454
382.17	42.932
382.53	42.801
382.89	43.297
383.25	42.169
383.61	43.102
383.97	42.495
384.32	42.645
384.68	42.784
385.04	43.094
385.40	42.109
385.76	43.011
386.12	43.366
386.48	43.705
386.83	42.923
387.19	43.167
387.55	43.847
387.91	43.614
388.27	45.170
388.62	46.632
388.98	44.784
389.34	44.502
389.70	45.833
390.06	45.281
390.42	45.098
390.77	45.205
391.13	45.608
391.49	45.755
391.85	46.108
392.20	47.591
392.56	44.794
392.92	45.455
393.28	45.721
393.64	47.625
393.99	45.714
394.35	48.215
394.71	46.556
395.07	47.347
395.42	46.222
395.78	47.446
396.14	46.502
396.50	47.219
396.85	46.530
397.21	46.572
397.57	46.807
397.92	48.282
398.28	46.763
398.64	46.349
399.00	47.766
399.35	47.831
399.71	47.605
400.07	48.487
400.42	48.846
400.78	49.520
401.14	49.053
401.49	48.345
401.85	48.444
402.21	49.048
402.57	48.873
402.92	49.336
403.28	48.244
403.63	49.103
403.99	48.217
404.35	47.325
404.70	48.575
405.06	49.597
405.42	49.967
405.77	49.108
406.13	50.000
406.49	49.842
406.84	50.436
407.20	48.885
407.55	49.232
407.91	50.210
408.27	50.000
408.62	48.810
408.98	51.158
409.34	50.256
409.69	49.298
410.05	48.640
410.40	50.417
410.76	50.436
411.11	51.067
411.47	49.796
411.83	50.290
412.18	50.131
412.54	50.129
412.89	50.842
413.25	51.348
413.60	50.319
413.96	49.579
414.31	50.542
414.67	52.532
415.03	51.452
415.38	52.437
415.74	50.235
416.09	51.620
416.45	51.238
416.80	52.086
417.16	52.116
417.51	52.533
417.87	52.736
418.22	52.741
418.58	51.555
418.93	52.095
419.29	53.053
419.64	53.915
420.00	52.521
420.35	53.045
420.71	53.585
421.06	53.861
421.42	52.760
421.77	53.410
422.12	53.692
422.48	53.227
422.83	53.495
423.19	54.235
423.54	54.001
423.90	54.635
424.25	55.710
424.61	53.226
424.96	54.300
425.31	54.529
425.67	54.727
426.02	54.907
426.38	54.569
426.73	53.520
427.09	54.498
427.44	54.321
427.79	55.322
428.15	55.422
428.50	56.533
428.85	54.907
429.21	55.529
429.56	55.746
429.92	55.057
430.27	54.667
430.62	55.219
430.98	54.702
431.33	55.451
431.68	55.361
432.04	56.157
432.39	55.258
432.74	55.218
433.10	55.913
433.45	56.618
433.80	57.143
434.16	55.121
434.51	55.964
434.86	57.039
435.22	56.286
435.57	57.916
435.92	55.542
436.28	56.787
436.63	56.052
436.98	57.593
437.34	57.006
437.69	57.593
438.04	57.392
438.39	58.029
438.75	56.246
439.10	57.679
439.45	58.472
439.81	57.460
440.16	58.194
440.51	58.302
440.86	58.081
441.22	57.713
441.57	57.322
441.92	58.586
442.27	58.457
442.63	57.675
442.98	59.474
443.33	57.873
443.68	58.181
444.03	57.629
444.39	58.251
444.74	58.786
445.09	58.678
445.44	57.026
445.79	58.954
446.15	58.134
446.50	59.225
446.85	57.756
447.20	57.932
447.55	57.475
447.91	58.377
448.26	58.694
448.61	59.094
448.96	58.841
449.31	58.951
449.66	57.506
450.02	57.160
450.37	59.721
450.72	58.767
451.07	58.932
451.42	60.474
451.77	58.512
452.12	57.143
452.47	60.027
452.83	60.149
453.18	59.892
453.53	60.483
453.88	60.689
454.23	59.553
454.58	60.379
454.93	57.766
455.28	59.063
455.63	60.299
455.98	59.327
456.34	58.473
456.69	58.971
457.04	58.990
457.39	59.051
457.74	58.344
458.09	58.494
458.44	58.921
458.79	59.600
459.14	59.928
459.49	60.255
459.84	59.929
460.19	58.224
460.54	58.460
460.89	59.059
461.24	59.221
461.59	60.631
461.94	58.383
462.29	57.707
462.64	59.192
462.99	60.914
463.34	60.000
463.69	60.562
464.04	59.589
464.39	60.193
464.74	57.755
465.09	59.678
465.44	58.368
465.79	58.544
466.14	59.189
466.49	57.704
466.84	58.047
467.19	58.674
467.54	57.361
467.89	58.328
468.24	59.280
468.59	59.031
468.94	59.381
469.29	59.585
469.64	59.008
469.99	60.418
470.34	58.769
470.68	60.538
471.03	58.759
471.38	59.387
471.73	59.884
472.08	60.285
472.43	59.889
472.78	59.101
473.13	59.298
473.48	61.134
473.83	60.502
474.17	58.973
474.52	61.554
474.87	58.965
475.22	59.657
475.57	58.167
475.92	59.636
476.27	59.132
476.61	59.988
476.96	59.455
477.31	59.532
477.66	58.454
478.01	59.152
478.36	60.000
478.70	60.056
479.05	58.387
479.40	58.375
479.75	60.011
480.10	59.578
480.45	60.681
480.79	59.730
481.14	58.830
481.49	58.201
481.84	59.798
482.19	60.049
482.53	58.922
482.88	59.227
483.23	58.593
483.58	59.455
483.92	59.397
484.27	59.100
484.62	59.925
484.97	58.831
485.31	57.850
485.66	56.953
486.01	56.196
486.36	56.815
486.70	58.572
487.05	58.606
487.40	58.135
487.75	56.828
488.09	56.109
488.44	56.436
488.79	56.193
489.13	56.983
489.48	56.935
489.83	58.391
490.17	59.025
490.52	58.317
490.87	59.644
491.22	59.221
491.56	58.745
491.91	59.137
492.26	60.479
492.60	60.612
492.95	59.394
493.30	59.331
493.64	59.026
493.99	60.113
494.34	60.517
494.68	58.127
495.03	58.925
495.37	58.794
495.72	58.914
496.07	59.432
496.41	58.399
496.76	58.883
497.11	59.577
497.45	59.417
497.80	59.190
498.14	58.976
498.49	59.156
498.84	58.176
499.18	58.070
499.53	59.605
499.87	58.730
500.22	59.117
500.56	58.922
500.91	59.465
501.26	60.052
501.60	58.818
501.95	58.802
502.29	59.159
502.64	57.541
502.98	59.667
503.33	58.912
503.67	59.469
504.02	58.223
504.36	57.935
504.71	58.298
505.06	58.864
505.40	59.893
505.75	58.610
506.09	59.209
506.44	59.818
506.78	59.582
507.13	59.229
507.47	58.449
507.82	60.324
508.16	58.686
508.51	59.683
508.85	59.505
509.19	59.024
509.54	59.717
509.88	61.105
510.23	60.112
510.57	60.477
510.92	58.503
511.26	61.631
511.61	61.016
511.95	59.746
512.30	59.304
512.64	59.355
512.98	60.248
513.33	58.851
513.67	59.521
514.02	58.534
514.36	60.202
514.70	61.202
515.05	60.610
515.39	61.355
515.74	60.965
516.08	61.519
516.42	60.783
516.77	62.174
517.11	60.122
517.46	60.650
517.80	61.902
518.14	60.278
518.49	61.902
518.83	61.025
519.17	61.375
519.52	60.712
519.86	63.141
520.20	61.529
520.55	62.467
520.89	63.293
521.23	61.790
521.58	61.574
521.92	60.481
522.26	63.093
522.61	63.140
522.95	63.082
523.29	61.269
523.64	63.433
523.98	62.903
524.32	62.020
524.66	63.630
525.01	63.368
525.35	61.218
525.69	63.386
526.04	65.469
526.38	63.125
526.72	62.917
527.06	64.276
527.41	62.792
527.75	63.245
528.09	62.942
528.43	64.139
528.78	62.404
529.12	62.260
529.46	62.326
529.80	61.947
530.15	62.543
530.49	63.668
530.83	65.437
531.17	62.288
531.51	64.240
531.86	62.885
532.20	60.895
532.54	63.022
532.88	63.491
533.22	62.644
533.57	62.828
533.91	63.455
534.25	63.136
534.59	63.618
534.93	62.458
535.27	62.155
535.62	62.593
535.96	62.875
536.30	62.074
536.64	61.731
536.98	63.127
537.32	63.021
537.66	62.683
538.01	61.782
538.35	61.164
538.69	60.226
539.03	62.581
539.37	63.460
539.71	63.261
540.05	63.025
540.39	61.365
540.73	62.198
541.07	62.868
541.42	62.153
541.76	61.367
542.10	62.123
542.44	61.777
542.78	62.317
543.12	62.094
543.46	62.444
543.80	59.828
544.14	60.645
544.48	61.895
544.82	60.965
545.16	63.623
545.50	63.100
545.84	61.448
546.18	62.247
546.52	62.414
546.86	61.744
547.20	61.515
547.54	61.789
547.88	61.111
548.22	61.181
548.56	62.297
548.90	60.421
549.24	62.719
549.58	62.146
549.92	60.150
550.26	60.772
550.60	62.411
550.94	62.540
551.28	62.358
551.62	62.408
551.96	62.380
552.30	61.008
552.64	62.284
552.98	61.144
553.32	61.212
553.66	60.470
554.00	62.394
554.34	63.516
554.68	61.882
555.02	62.222
555.36	61.319
555.69	61.030
556.03	59.941
556.37	61.590
556.71	60.935
557.05	62.969
557.39	62.731
557.73	60.928
558.07	60.798
558.41	60.495
558.75	62.656
559.08	63.319
559.42	60.786
559.76	61.584
560.10	63.081
560.44	61.124
560.78	60.556
561.12	59.654
561.45	61.012
561.79	59.912
562.13	62.861
562.47	61.086
562.81	60.121
563.15	61.825
563.48	60.075
563.82	60.699
564.16	60.740
564.50	59.384
564.84	61.162
565.17	61.302
565.51	60.732
565.85	59.789
566.19	60.056
566.52	60.789
566.86	60.792
567.20	59.348
567.54	59.349
567.88	58.738
568.21	58.324
568.55	57.725
568.89	58.571
569.23	57.430
569.56	56.368
569.90	57.516
570.24	55.201
570.57	55.418
570.91	55.095
571.25	54.993
571.59	54.689
571.92	53.147
572.26	53.780
572.60	53.977
572.93	53.766
573.27	53.212
573.61	52.770
573.95	53.296
574.28	53.434
574.62	52.504
574.96	52.229
575.29	51.807
575.63	51.508
575.97	51.589
576.30	52.400
576.64	51.516
576.98	52.094
577.31	52.680
577.65	52.840
577.98	52.455
578.32	51.684
578.66	51.621
578.99	52.183
579.33	52.135
579.67	51.435
580.00	50.234
580.34	51.271
580.67	51.144
581.01	51.108
581.35	51.481
581.68	50.741
582.02	51.572
582.35	51.228
582.69	51.739
583.02	51.726
583.36	50.401
583.70	51.360
584.03	51.725
584.37	51.213
584.70	50.610
585.04	51.117
585.37	50.958
585.71	51.259
586.04	51.217
586.38	52.520
586.72	52.429
587.05	51.789
587.39	51.364
587.72	52.070
588.06	52.173
588.39	51.738
588.73	52.092
589.06	51.862
589.40	51.989
589.73	51.945
590.07	52.613
590.40	52.234
590.73	52.936
591.07	52.338
591.40	52.672
591.74	54.011
592.07	52.961
592.41	53.936
592.74	53.259
593.08	52.104
593.41	52.245
593.75	52.679
594.08	53.200
594.41	52.374
594.75	51.135
595.08	52.279
595.42	51.483
595.75	51.970
596.09	52.762
596.42	52.431
596.75	53.364
597.09	51.726
597.42	51.572
597.75	52.627
598.09	52.200
598.42	52.579
598.76	52.505
599.09	51.218
599.42	50.708
599.76	51.863
600.09	51.918
600.42	50.391
600.76	51.001
601.09	51.137
601.42	51.771
601.76	51.420
602.09	51.068
602.42	52.540
602.76	51.440
603.09	51.828
603.42	52.555
603.76	51.742
604.09	51.504
604.42	51.353
604.76	51.438
605.09	51.252
605.42	51.754
605.75	51.622
606.09	52.133
606.42	51.575
606.75	51.599
607.09	52.752
607.42	51.216
607.75	50.321
608.08	51.543
608.42	51.358
608.75	52.676
609.08	51.035
609.41	52.514
609.75	52.712
610.08	50.594
610.41	51.501
610.74	51.314
611.07	51.296
611.41	52.248
611.74	51.360
612.07	51.451
612.40	52.423
612.73	52.431
613.07	51.967
613.40	52.156
613.73	51.375
614.06	52.283
614.39	52.841
614.72	51.417
615.06	52.641
615.39	51.097
615.72	50.504
616.05	51.420
616.38	51.720
616.71	50.498
617.05	51.696
617.38	51.935
617.71	53.625
618.04	53.154
618.37	51.929
618.70	52.514
619.03	53.735
619.36	53.314
619.69	51.244
620.03	53.623
620.36	53.741
620.69	52.476
621.02	53.048
621.35	55.319
621.68	55.896
622.01	54.011
622.34	53.183
622.67	55.059
623.00	54.627
623.33	52.205
623.66	54.741
623.99	52.632
624.32	53.455
624.65	52.734
624.99	53.359
625.32	53.555
625.65	51.962
625.98	53.917
626.31	52.900
626.64	53.423
626.97	54.596
627.30	53.981
627.63	52.279
627.96	54.190
628.29	53.346
628.62	55.670
628.95	57.128
629.28	54.442
629.61	54.754
629.94	54.461
630.26	55.439
630.59	56.021
630.92	52.687
631.25	55.084
631.58	53.140
631.91	54.442
632.24	54.793
632.57	55.410
632.90	56.335
633.23	58.710
633.56	55.346
633.89	56.992
634.22	56.667
634.55	53.876
634.88	55.556
635.20	56.301
635.53	57.961
635.86	57.880
636.19	56.344
636.52	56.065
636.85	54.498
637.18	54.534
637.51	55.420
637.83	55.587
638.16	58.321
638.49	56.340
638.82	55.977
639.15	55.429
639.48	56.186
639.81	54.545
640.13	57.887
640.46	58.425
640.79	55.814
641.12	56.279
641.45	55.988
641.77	57.006
642.10	54.886
642.43	58.754
642.76	59.498
643.09	55.536
643.41	57.348
643.74	54.167
644.07	58.025
644.40	59.025
644.73	56.169
645.05	60.305
645.38	56.731
645.71	58.588
646.04	60.409
646.36	59.659
646.69	58.607
647.02	58.008
647.35	60.400
647.67	60.922
648.00	55.146
648.33	56.455
648.66	57.514
648.98	55.085
649.31	57.143
649.64	56.110
649.96	55.912
650.29	53.451
650.62	55.659
650.94	55.823
651.27	56.262
651.60	53.346
651.92	55.344
652.25	53.920
652.58	54.399
652.90	54.626
653.23	57.587
653.56	54.861
653.88	58.577
654.21	56.333
654.54	58.912
654.86	55.036
655.19	55.161
655.52	54.566
655.84	48.456
656.17	44.839
656.49	60.242
656.82	69.503
657.15	56.566
657.47	42.593
657.80	30.872
658.13	25.107
658.45	41.334
658.78	40.052
659.10	40.251
659.43	40.397
659.75	39.671
660.08	41.350
660.41	43.633
660.73	47.091
661.06	50.182
661.38	55.444
661.71	52.079
662.03	56.713
662.36	53.461
662.68	58.993
663.01	58.654
663.33	54.009
663.66	56.699
663.98	57.702
664.31	50.244
664.63	54.128
664.96	53.444
665.28	56.974
665.61	52.336
665.93	55.300
666.26	55.188
666.58	56.193
666.91	54.333
667.23	56.650
667.56	57.037
667.88	55.138
668.21	54.061
668.53	55.838
668.86	55.102
669.18	54.569
669.50	59.126
669.83	55.500
670.15	51.750
670.48	53.383
670.80	56.853
671.13	50.843
671.45	55.612
671.77	56.039
672.10	52.747
672.42	49.004
672.75	50.680
673.07	51.402
673.39	51.167
673.72	54.545
674.04	50.638
674.37	52.194
674.69	50.467
675.01	56.512
675.34	54.412
675.66	47.619
675.98	54.798
676.31	52.645
676.63	50.258
676.95	50.600
677.28	48.267
677.60	57.644
677.92	54.887
678.25	47.332
678.57	50.580
678.89	50.688
679.22	52.752
679.54	48.107
679.86	52.248
680.18	46.234
680.51	51.540
680.83	48.333
681.15	50.980
681.48	49.574
681.80	49.565
682.12	51.820
682.44	48.491
682.77	50.909
683.09	51.225
683.41	53.634
683.73	49.497
684.06	46.193
684.38	48.921
684.70	53.811
685.02	46.537
685.34	45.188
685.67	47.233
685.99	50.100
686.31	47.201
686.63	48.350
686.96	46.951
687.28	48.460
687.60	46.817
687.92	47.468
688.24	46.737
688.56	45.495
688.89	47.260
689.21	42.326
689.53	51.151
689.85	49.620
690.17	50.490
690.49	47.765
690.82	47.912
691.14	53.525
691.46	48.750
691.78	49.522
692.10	49.083
692.42	47.248
692.74	49.052
693.06	47.470
693.39	49.754
693.71	46.279
694.03	47.585
694.35	47.277
694.67	48.601
694.99	45.283
695.31	49.575
695.63	46.757
695.95	51.685
696.27	49.292
696.59	51.039
696.91	45.014
697.23	48.997
697.56	46.891
697.88	43.794
698.20	46.489
698.52	43.029
698.84	45.363
699.16	44.327
699.48	51.047
699.80	46.978
700.12	47.107
700.44	43.363
700.76	48.896
701.08	42.857
701.40	51.316
701.72	54.667
702.04	46.599
702.36	47.869
702.68	50.671
703.00	45.741
703.32	41.617
703.64	46.688
703.96	46.835
704.28	46.127
704.60	47.603
704.91	45.395
705.23	47.719
705.55	47.955
705.87	46.403
706.19	48.606
706.51	45.703
706.83	44.689
707.15	44.746
707.47	42.216
707.79	44.986
708.11	42.063
708.43	42.933
708.74	42.896
709.06	46.319
709.38	42.730
709.70	42.857
710.02	48.951
710.34	39.007
710.66	46.816
710.98	43.706
711.29	45.704
711.61	42.199
711.93	43.820
712.25	47.925
712.57	46.875
712.89	48.163
713.20	39.113
713.52	41.870
713.84	45.255
714.16	41.216
714.48	47.782
714.80	42.761
715.11	47.766
715.43	40.956
715.75	42.456
716.07	41.455
716.39	47.782
716.70	40.400
717.02	42.339
717.34	47.186
717.66	45.000
717.97	42.593
718.29	42.667
718.61	50.000
718.93	47.479
719.24	44.770
719.56	46.429
719.88	38.039
720.20	39.744
720.51	50.000
720.83	46.025
721.15	40.816
721.46	40.084
721.78	44.156
722.10	40.698
722.42	39.130
722.73	38.914
723.05	47.465
723.37	36.652
723.68	42.654
724.00	40.741
724.32	35.981
724.63	40.271
724.95	35.616
725.27	47.418
725.58	42.922
725.90	37.838
726.22	41.048
726.53	40.164
726.85	39.630
727.16	38.866
727.48	39.113
727.80	41.096
728.11	40.000
728.43	40.329
728.74	38.596
729.06	40.611
729.38	37.597
729.69	44.400
730.01	38.075
730.32	38.645
730.64	40.385
730.96	38.224
731.27	42.471
731.59	37.037
731.90	36.513
732.22	40.864
732.53	36.491
732.85	37.324
733.16	36.630
733.48	33.955
733.80	44.364
734.11	36.525
734.43	44.043
734.74	36.449
735.06	38.585
735.37	37.061
735.69	38.380
736.00	34.074
736.32	39.510
736.63	41.481
736.95	37.354
737.26	39.855
737.58	32.482
737.89	42.264
738.21	41.603
738.52	42.623
738.83	35.897
739.15	41.364
739.46	34.234
739.78	37.066
740.09	38.889
740.41	40.152
740.72	33.068
741.04	37.945
741.35	38.117
741.66	41.398
741.98	37.755
742.29	41.451
742.61	32.948
742.92	33.333
743.23	42.289
743.55	40.415
743.86	36.715
744.18	32.000
744.49	37.778
744.80	42.473
745.12	33.333
745.43	39.037
745.74	29.412
746.06	44.828
746.37	36.111
746.68	40.000
747.00	37.017
747.31	41.885
747.62	45.263
747.94	38.679
748.25	40.887
748.56	42.929
748.88	35.519
749.19	39.896
749.50	46.471
749.82	46.500
750.13	37.379
750.44	34.764
750.75	39.200
751.07	35.983
751.38	35.156
751.69	43.651
752.01	35.294
752.32	34.298
752.63	34.061
752.94	37.600
753.26	34.703
753.57	38.863
753.88	31.628
754.19	33.480
754.51	32.636
754.82	35.000
755.13	34.513
755.44	38.528
755.75	34.137
756.07	40.773
756.38	35.146
756.69	33.962
757.00	33.333
757.31	37.024
757.63	34.641
757.94	34.545
758.25	33.929
758.56	31.351
758.87	31.548
759.18	36.137
759.50	35.231
759.81	33.205
760.12	38.790
760.43	35.216
760.74	34.431
761.05	35.577
761.36	35.015
761.67	35.866
761.99	33.110
762.30	33.455
762.61	33.740
762.92	31.556
763.23	38.605
763.54	39.086
763.85	34.842
764.16	33.478
764.47	31.739
764.78	36.694
765.10	32.283
765.41	32.107
765.72	33.779
766.03	31.438
766.34	36.364
766.65	37.109
766.96	30.222
767.27	38.547
767.58	30.818
767.89	31.818
768.20	20.946
768.51	28.161
768.82	30.000
769.13	34.259
769.44	34.434
769.75	33.333
770.06	23.786
770.37	39.894
770.68	27.179
770.99	25.381
771.30	32.474
771.61	25.112
771.92	33.019
772.23	36.538
772.54	29.412
772.85	29.452
773.16	36.129
773.47	32.484
773.78	33.533
774.09	35.526
774.39	26.471
774.70	27.820
775.01	29.231
775.32	23.810
775.63	32.283
775.94	19.811
776.25	31.852
776.56	19.091
776.87	33.333
777.18	31.000
777.48	22.115
777.79	35.185
778.10	22.642
778.41	30.392
778.72	24.528
779.03	29.825
779.34	27.731
779.65	24.648
779.95	28.058
780.26	23.387
780.57	27.536
780.88	30.275
781.19	32.407
781.50	16.393
781.80	27.737
782.11	26.282
782.42	25.517
782.73	30.769
783.04	20.800
783.34	26.400
783.65	34.959
783.96	30.328
784.27	25.210
784.57	19.626
784.88	17.857
785.19	27.835
785.50	25.263
785.81	23.000
786.11	12.871
786.42	-1.176
786.73	15.625
787.04	19.388
787.34	28.704
787.65	29.245
787.96	17.526
788.26	21.782
788.57	26.957
788.88	11.927
789.19	18.182
789.49	11.304
789.80	25.000
790.11	4.878
790.41	23.596
790.72	15.116
791.03	34.884
791.33	14.286
791.64	20.732
791.95	32.927
792.25	13.253
792.56	11.111
792.87	15.493
793.17	24.096
793.48	15.294
793.79	25.000
794.09	15.000
794.40	35.870
794.70	14.783
795.01	21.101
795.32	24.409
795.62	11.765
795.93	27.451
796.23	22.222
796.54	18.605
796.85	8.696
797.15	7.813
797.46	-1.695
797.76	24.590
798.07	6.579
798.37	1.613
798.68	3.125
798.99	9.231
799.29	13.636
799.60	5.797
799.90	12.857
800.21	1.754
800.51	15.517
800.82	7.547
801.12	11.765
801.43	12.903
801.73	25.806
802.04	16.000
802.34	-7.547
802.65	-13.158
802.95	30.909
803.26	20.755
803.56	9.836
803.87	-14.000
804.17	1.852
804.48	7.692
804.78	-2.041
805.09	4.255
805.39	33.898
805.70	-10.417
806.00	5.357
806.30	13.559
806.61	3.077
806.91	12.308
807.22	2.632
807.52	28.571
807.83	25.862
808.13	21.519
808.43	18.033
808.74	21.311
809.04	21.622
809.35	16.667
809.65	35.714
809.95	27.119
810.26	-4.082
810.56	15.094
810.86	25.490
811.17	2.703
811.47	-59.259
811.77	-7.843
812.08	-2.273
812.38	8.333
812.69	-15.385
812.99	4.762
813.29	6.522
813.59	2.857
813.90	-30.952
814.20	3.636
814.50	16.327
814.81	15.686
815.11	-4.167
815.41	-14.634
815.72	-65.385
816.02	2.128
816.32	6.250
816.62	-21.212
816.93	-60.606
817.23	-18.919
817.53	-20.588
817.84	7.500
818.14	-8.824
818.44	-15.625
818.74	-33.333
819.04	5.714
819.35	17.143
819.65	-2.273
819.95	15.385
820.25	-38.889
820.56	-41.379
820.86	-39.286
821.16	-21.739
821.46	-2.381
821.76	22.222
822.07	-30.435
822.37	-14.286
822.67	-34.884
822.97	-30.435
823.27	-53.846
823.57	-29.630
823.88	-14.286
824.18	-5.128
824.48	-17.857
824.78	9.091
825.08	-53.333
825.38	-17.500
825.69	-77.778
825.99	-14.815
826.29	11.111
826.59	-33.333
826.89	-55.556
827.19	-7.143
827.49	-59.091
827.79	-72.727
828.09	-54.545
828.39	-47.826
828.70	-7.407
829.00	-10.714
829.30	-14.286
829.60	-19.355
829.90	-80.769
830.20	-7.692
830.50	-40.909
830.80	-38.095
831.10	-111.111
831.40	-78.571
831.70	-48.148
832.00	-52.941
832.30	8.696
832.60	-33.333
832.90	-100.000
833.20	-105.556
833.50	-15.625
833.80	-3.846
834.10	-16.000
834.40	-58.333
834.70	-59.091
835.00	-38.462
835.30	-10.000
835.60	-180.000
835.90	-10.000
836.20	14.286
836.50	-34.783
836.80	-111.111
837.10	-46.667
837.40	-150.000
837.70	-52.174
838.00	-28.571
838.30	1600.000
838.60	4.000
838.90	-520.000
839.19	-177.778
839.49	-800.000
839.79	-29.412
840.09	-100.000
840.39	-25.000
840.69	-116.667
840.99	-116.667
841.29	-41.379
841.59	-126.667
841.88	-54.545
842.18	-483.333
842.48	-68.750
842.78	-19.231
843.08	-64.706
843.38	-55.000
843.68	-46.154
843.97	-111.765
844.27	-260.000
844.57	-29.167
844.87	-163.636
845.17	-68.421
845.47	-77.778
845.76	-13.889
846.06	-90.476
846.36	-121.429
846.66	-122.222
846.96	-70.000
847.25	-220.000
847.55	-325.000
847.85	-106.667
848.15	-325.000
848.44	-68.421
848.74	-33.333
849.04	-42.105
849.34	-400.000
849.63	-333.333
849.93	-64.706
850.23	-109.091
850.53	-200.000
850.82	-280.000
851.12	-288.889
851.42	-271.429
851.71	-240.000
852.01	-107.143
852.31	-433.333
852.61	-69.231
852.90	-240.000
853.20	-133.333
853.50	-122.222
853.79	-40.000
854.09	-95.000
854.39	-36.842
854.68	-35.000
854.98	-375.000
855.28	-50.000
855.57	-157.143
855.87	-63.158
856.17	-37.500
856.46	-73.077
856.76	-133.333
857.05	-137.500
857.35	-29.167
857.65	-38.889
857.94	-112.500
858.24	-69.565
858.53	-190.000
858.83	-500.000
859.13	-200.000
859.42	-200.000
859.72	133.333
860.01	-30.769
860.31	-160.000
860.60	-250.000
860.90	-400.000
861.20	-300.000
861.49	-200.000
861.79	800.000
862.08	-16.129
862.38	-52.632
862.67	-76.923
862.97	-200.000
863.26	-66.667
863.56	-52.174
863.85	-266.667
864.15	-192.857
864.44	-62.500
864.74	-141.667
865.03	-233.333
865.33	-566.667
865.62	-2000.000
865.92	-200.000
866.21	-300.000
866.51	-100.000
866.80	-900.000
867.10	-185.714
867.39	-188.889
867.69	-191.667
867.98	300.000
868.27	-700.000
868.57	625.000
868.86	-40.000
869.16	-69.231
869.45	1400.000
869.75	-183.333
870.04	-266.667
870.33	-88.235
870.63	-314.286
870.92	21.739
871.22	-200.000
871.51	640.000
871.80	-81.250
872.10	-566.667
>>>>>End Processed Spectral Data<<<<<
