SpectraSuite Data File
++++++++++++++++++++++++++++++++++++
Date: Tue May 12 19:35:49 PDT 2015
User: schluterlab
Dark Spectrum Present: Yes
Reference Spectrum Present: Yes
Number of Sampled Component Spectra: 1
Spectrometers: USB2E3373
Integration Time (usec): 3000 (USB2E3373)
Spectra Averaged: 3 (USB2E3373)
Boxcar Smoothing: 0 (USB2E3373)
Correct for Electrical Dark: No (USB2E3373)
Strobe/Lamp Enabled: No (USB2E3373)
Correct for Detector Non-linearity: No (USB2E3373)
Correct for Stray Light: No (USB2E3373)
Number of Pixels in Processed Spectrum: 2048
>>>>>Begin Processed Spectral Data<<<<<
178.53	0.000
178.91	-30.000
179.29	-100.000
179.67	200.000
180.04	0.000
180.42	-140.000
180.80	-100.000
181.18	700.000
181.56	0.000
181.94	150.000
182.31	600.000
182.69	57.143
183.07	0.000
183.45	191.667
183.83	260.000
184.20	83.333
184.58	550.000
184.96	133.333
185.34	-33.333
185.72	-14.286
186.09	-116.667
186.47	-1500.000
186.85	-180.000
187.23	108.333
187.61	-157.143
187.98	-180.000
188.36	100.000
188.74	150.000
189.12	-33.333
189.49	-30.000
189.87	275.000
190.25	200.000
190.63	266.667
191.00	300.000
191.38	-66.667
191.76	60.000
192.14	0.000
192.51	10.000
192.89	-80.000
193.27	-160.000
193.65	-400.000
194.02	-183.333
194.40	1100.000
194.78	-37.500
195.15	14.286
195.53	-66.667
195.91	200.000
196.29	-175.000
196.66	-66.667
197.04	-42.857
197.42	20.000
197.79	-212.500
198.17	16.667
198.55	1000.000
198.92	-66.667
199.30	300.000
199.68	-25.000
200.05	-500.000
200.43	16.667
200.81	-25.000
201.18	233.333
201.56	-450.000
201.94	-400.000
202.31	16.667
202.69	-22.222
203.07	0.000
203.44	-150.000
203.82	0.000
204.19	262.500
204.57	-400.000
204.95	145.455
205.32	60.000
205.70	-50.000
206.08	300.000
206.45	140.000
206.83	2600.000
207.20	11.111
207.58	0.000
207.96	33.333
208.33	600.000
208.71	33.333
209.08	550.000
209.46	22.222
209.84	200.000
210.21	-566.667
210.59	-400.000
210.96	144.444
211.34	25.000
211.71	700.000
212.09	160.000
212.46	-112.500
212.84	-112.500
213.22	71.429
213.59	-25.000
213.97	0.000
214.34	-200.000
214.72	-800.000
215.09	350.000
215.47	26.667
215.84	-125.000
216.22	-200.000
216.59	500.000
216.97	66.667
217.34	33.333
217.72	33.333
218.09	300.000
218.47	10.526
218.84	-175.000
219.22	-28.571
219.59	-100.000
219.97	40.000
220.34	383.333
220.72	54.545
221.09	-200.000
221.47	0.000
221.84	350.000
222.22	-25.000
222.59	-150.000
222.97	8.696
223.34	53.333
223.72	314.286
224.09	-250.000
224.46	123.077
224.84	6.667
225.21	150.000
225.59	-75.000
225.96	35.000
226.34	283.333
226.71	100.000
227.08	-30.769
227.46	-42.857
227.83	-41.667
228.21	200.000
228.58	133.333
228.95	-21.053
229.33	43.750
229.70	-150.000
230.08	-111.111
230.45	166.667
230.82	-600.000
231.20	4.762
231.57	-160.000
231.95	-200.000
232.32	122.222
232.69	-500.000
233.07	12.500
233.44	0.000
233.81	48.387
234.19	-120.000
234.56	-50.000
234.93	-150.000
235.31	37.037
235.68	18.519
236.05	-19.231
236.43	-36.842
236.80	22.727
237.17	-7.143
237.55	-40.000
237.92	20.930
238.29	19.355
238.67	25.000
239.04	28.571
239.41	17.647
239.79	54.000
240.16	30.000
240.53	24.138
240.91	20.548
241.28	23.944
241.65	31.250
242.02	31.579
242.40	24.000
242.77	23.158
243.14	35.294
243.51	24.731
243.89	18.095
244.26	29.630
244.63	28.571
245.00	20.536
245.38	22.689
245.75	33.898
246.12	29.687
246.49	23.200
246.87	23.770
247.24	29.577
247.61	30.464
247.98	29.213
248.36	27.673
248.73	28.409
249.10	31.667
249.47	37.500
249.84	30.457
250.22	26.562
250.59	33.708
250.96	36.364
251.33	34.434
251.70	29.817
252.08	35.498
252.45	29.388
252.82	28.270
253.19	32.296
253.56	34.902
253.94	30.894
254.31	38.129
254.68	30.556
255.05	34.106
255.42	37.455
255.79	35.762
256.16	30.556
256.54	33.333
256.91	34.295
257.28	34.416
257.65	30.492
258.02	36.036
258.39	34.139
258.76	34.557
259.14	34.706
259.51	36.056
259.88	31.700
260.25	32.670
260.62	33.146
260.99	35.097
261.36	34.195
261.73	38.400
262.10	35.150
262.47	35.813
262.85	34.447
263.22	35.484
263.59	35.121
263.96	35.248
264.33	32.884
264.70	32.924
265.07	35.468
265.44	37.705
265.81	35.904
266.18	36.534
266.55	34.762
266.92	34.598
267.29	35.111
267.66	33.864
268.03	35.054
268.40	37.300
268.77	32.739
269.14	32.983
269.51	33.258
269.88	33.761
270.25	31.224
270.62	37.185
270.99	35.158
271.36	36.203
271.73	33.750
272.10	37.967
272.47	32.600
272.84	33.546
273.21	32.777
273.58	34.694
273.95	34.861
274.32	34.043
274.69	35.812
275.06	34.709
275.43	32.400
275.80	33.270
276.17	32.411
276.54	35.171
276.91	36.852
277.28	33.269
277.65	31.947
278.02	33.712
278.39	34.483
278.76	34.078
279.13	34.884
279.50	33.394
279.87	36.604
280.23	34.426
280.60	31.625
280.97	34.622
281.34	34.407
281.71	34.281
282.08	32.558
282.45	34.392
282.82	34.343
283.19	32.323
283.56	35.836
283.92	35.545
284.29	32.826
284.66	31.681
285.03	29.503
285.40	34.000
285.77	34.975
286.14	32.964
286.51	31.672
286.87	32.253
287.24	32.853
287.61	33.488
287.98	34.116
288.35	34.109
288.72	32.263
289.08	29.560
289.45	30.733
289.82	29.193
290.19	32.273
290.56	28.220
290.93	31.905
291.29	30.638
291.66	30.758
292.03	32.712
292.40	30.072
292.77	29.446
293.13	30.837
293.50	30.441
293.87	28.710
294.24	29.073
294.60	29.781
294.97	28.255
295.34	28.219
295.71	25.798
296.08	27.869
296.44	28.722
296.81	28.461
297.18	26.391
297.55	26.508
297.91	27.157
298.28	25.320
298.65	27.296
299.02	27.990
299.38	26.658
299.75	28.443
300.12	26.859
300.48	27.700
300.85	25.183
301.22	26.322
301.59	26.034
301.95	26.951
302.32	26.002
302.69	25.803
303.05	26.800
303.42	27.053
303.79	26.180
304.15	25.934
304.52	27.151
304.89	25.479
305.25	25.688
305.62	25.114
305.99	25.308
306.35	25.280
306.72	26.688
307.09	24.701
307.45	24.703
307.82	24.973
308.19	26.293
308.55	26.266
308.92	24.682
309.29	25.941
309.65	25.903
310.02	25.786
310.38	26.546
310.75	23.258
311.12	24.924
311.48	25.797
311.85	24.113
312.22	26.550
312.58	24.773
312.95	26.386
313.31	25.270
313.68	25.223
314.05	28.600
314.41	26.031
314.78	26.834
315.14	27.032
315.51	26.216
315.87	27.051
316.24	27.498
316.61	28.350
316.97	27.451
317.34	28.134
317.70	29.038
318.07	27.869
318.43	29.395
318.80	28.780
319.16	28.518
319.53	30.472
319.89	30.114
320.26	30.580
320.62	31.105
320.99	32.857
321.35	31.423
321.72	33.737
322.08	33.762
322.45	35.010
322.81	37.241
323.18	36.050
323.54	37.725
323.91	37.287
324.27	37.705
324.64	38.800
325.00	41.310
325.37	42.536
325.73	42.245
326.10	42.294
326.46	45.240
326.83	45.558
327.19	48.122
327.56	49.514
327.92	46.962
328.29	48.925
328.65	52.354
329.01	51.651
329.38	51.148
329.74	51.625
330.11	53.122
330.47	54.469
330.84	53.947
331.20	54.529
331.56	55.660
331.93	56.542
332.29	56.892
332.66	57.324
333.02	58.032
333.38	59.191
333.75	59.195
334.11	60.036
334.48	60.555
334.84	61.690
335.20	58.639
335.57	60.854
335.93	60.744
336.29	60.603
336.66	61.931
337.02	60.925
337.38	62.264
337.75	62.455
338.11	63.355
338.47	64.810
338.84	63.352
339.20	62.695
339.56	62.255
339.93	62.432
340.29	64.279
340.65	65.114
341.02	62.533
341.38	63.636
341.74	64.591
342.11	63.307
342.47	64.073
342.83	64.874
343.20	64.279
343.56	64.860
343.92	64.654
344.28	63.465
344.65	64.726
345.01	66.115
345.37	65.470
345.73	66.408
346.10	65.255
346.46	65.142
346.82	65.081
347.19	64.003
347.55	65.561
347.91	64.210
348.27	64.869
348.63	66.206
349.00	65.943
349.36	64.880
349.72	66.256
350.08	65.466
350.45	64.849
350.81	64.905
351.17	64.333
351.53	63.366
351.89	66.408
352.26	63.740
352.62	65.168
352.98	65.858
353.34	65.915
353.70	63.786
354.07	66.392
354.43	63.940
354.79	64.098
355.15	63.438
355.51	67.808
355.87	65.279
356.24	65.931
356.60	65.025
356.96	63.349
357.32	65.514
357.68	65.951
358.04	63.776
358.40	65.794
358.77	64.418
359.13	64.980
359.49	63.200
359.85	65.228
360.21	63.918
360.57	64.035
360.93	65.241
361.29	64.019
361.66	63.486
362.02	65.306
362.38	64.336
362.74	64.796
363.10	64.857
363.46	64.710
363.82	63.706
364.18	62.755
364.54	64.504
364.90	64.222
365.26	63.860
365.62	65.708
365.98	64.918
366.35	65.053
366.71	65.123
367.07	64.649
367.43	64.549
367.79	63.299
368.15	64.418
368.51	66.067
368.87	65.125
369.23	65.178
369.59	64.706
369.95	64.680
370.31	64.470
370.67	64.286
371.03	64.783
371.39	66.465
371.75	64.190
372.11	64.074
372.47	63.400
372.83	64.719
373.19	63.855
373.55	64.596
373.91	64.470
374.27	65.489
374.63	64.138
374.99	64.348
375.35	64.659
375.71	63.702
376.07	63.463
376.42	64.246
376.78	65.157
377.14	63.966
377.50	63.748
377.86	64.276
378.22	64.267
378.58	65.000
378.94	63.065
379.30	62.291
379.66	62.804
380.02	64.399
380.38	64.949
380.74	64.450
381.09	64.295
381.45	63.429
381.81	62.819
382.17	63.322
382.53	64.760
382.89	62.989
383.25	62.587
383.61	63.191
383.97	62.508
384.32	62.903
384.68	63.985
385.04	61.999
385.40	62.684
385.76	62.872
386.12	61.848
386.48	62.427
386.83	62.607
387.19	62.580
387.55	61.334
387.91	61.184
388.27	62.636
388.62	62.435
388.98	62.214
389.34	60.638
389.70	62.564
390.06	61.056
390.42	60.852
390.77	61.972
391.13	62.655
391.49	61.927
391.85	60.878
392.20	61.320
392.56	59.528
392.92	62.152
393.28	61.281
393.64	61.431
393.99	59.675
394.35	60.091
394.71	60.795
395.07	59.947
395.42	59.365
395.78	59.543
396.14	60.360
396.50	59.250
396.85	59.088
397.21	59.508
397.57	59.118
397.92	59.478
398.28	59.412
398.64	60.063
399.00	58.909
399.35	57.737
399.71	58.204
400.07	58.122
400.42	59.551
400.78	60.333
401.14	59.154
401.49	58.339
401.85	59.238
402.21	58.566
402.57	57.051
402.92	58.964
403.28	57.282
403.63	56.859
403.99	57.266
404.35	56.815
404.70	56.745
405.06	56.975
405.42	58.100
405.77	55.767
406.13	54.182
406.49	57.476
406.84	56.351
407.20	56.815
407.55	57.381
407.91	56.573
408.27	55.851
408.62	54.920
408.98	56.628
409.34	54.930
409.69	53.779
410.05	54.858
410.40	53.565
410.76	54.483
411.11	55.268
411.47	55.238
411.83	54.218
412.18	54.385
412.54	54.398
412.89	54.339
413.25	54.295
413.60	54.847
413.96	53.657
414.31	53.474
414.67	54.558
415.03	54.011
415.38	53.830
415.74	53.324
416.09	54.170
416.45	53.291
416.80	52.434
417.16	53.456
417.51	53.366
417.87	54.036
418.22	53.142
418.58	53.974
418.93	52.224
419.29	52.374
419.64	54.052
420.00	53.307
420.35	53.547
420.71	52.881
421.06	54.056
421.42	51.945
421.77	53.228
422.12	51.152
422.48	52.085
422.83	50.517
423.19	52.529
423.54	50.397
423.90	51.916
424.25	52.326
424.61	51.935
424.96	52.273
425.31	53.623
425.67	52.182
426.02	51.056
426.38	50.837
426.73	50.903
427.09	50.689
427.44	50.864
427.79	51.733
428.15	51.300
428.50	51.947
428.85	50.353
429.21	51.225
429.56	51.160
429.92	49.162
430.27	50.400
430.62	50.946
430.98	50.027
431.33	50.000
431.68	49.726
432.04	50.863
432.39	48.960
432.74	48.956
433.10	49.727
433.45	49.842
433.80	50.060
434.16	48.677
434.51	48.439
434.86	49.486
435.22	48.894
435.57	49.934
435.92	48.111
436.28	49.440
436.63	49.493
436.98	49.198
437.34	49.328
437.69	49.259
438.04	48.618
438.39	50.131
438.75	47.077
439.10	48.869
439.45	49.037
439.81	48.254
440.16	50.216
440.51	47.336
440.86	49.495
441.22	47.945
441.57	47.635
441.92	47.985
442.27	48.286
442.63	47.856
442.98	49.328
443.33	47.944
443.68	47.532
444.03	47.577
444.39	47.736
444.74	48.369
445.09	47.462
445.44	46.939
445.79	48.166
446.15	49.271
446.50	46.501
446.85	47.195
447.20	46.335
447.55	47.237
447.91	47.795
448.26	48.546
448.61	47.251
448.96	46.541
449.31	47.197
449.66	46.065
450.02	46.746
450.37	47.570
450.72	45.961
451.07	46.935
451.42	48.221
451.77	45.712
452.12	46.303
452.47	45.528
452.83	47.447
453.18	46.050
453.53	46.767
453.88	46.522
454.23	46.134
454.58	46.345
454.93	46.390
455.28	45.961
455.63	45.614
455.98	45.876
456.34	46.082
456.69	46.581
457.04	45.079
457.39	46.130
457.74	44.185
458.09	45.800
458.44	46.045
458.79	45.936
459.14	45.856
459.49	45.605
459.84	46.076
460.19	45.028
460.54	44.949
460.89	44.647
461.24	45.130
461.59	45.678
461.94	45.957
462.29	45.301
462.64	45.195
462.99	45.613
463.34	46.300
463.69	46.296
464.04	44.323
464.39	44.823
464.74	43.868
465.09	44.630
465.44	44.331
465.79	44.103
466.14	43.377
466.49	43.189
466.84	43.857
467.19	43.535
467.54	42.639
467.89	44.154
468.24	42.551
468.59	44.110
468.94	45.259
469.29	44.152
469.64	43.982
469.99	43.331
470.34	42.221
470.68	42.923
471.03	43.796
471.38	43.381
471.73	44.041
472.08	43.701
472.43	43.154
472.78	42.712
473.13	45.053
473.48	44.398
473.83	44.055
474.17	43.029
474.52	43.871
474.87	43.371
475.22	43.520
475.57	42.891
475.92	42.467
476.27	42.917
476.61	42.671
476.96	42.857
477.31	42.580
477.66	42.533
478.01	42.849
478.36	42.636
478.70	44.056
479.05	42.194
479.40	41.238
479.75	43.746
480.10	42.045
480.45	42.408
480.79	42.813
481.14	43.701
481.49	41.799
481.84	42.980
482.19	42.000
482.53	41.765
482.88	41.840
483.23	41.759
483.58	41.931
483.92	41.256
484.27	42.159
484.62	42.339
484.97	41.872
485.31	41.531
485.66	40.592
486.01	40.263
486.36	40.644
486.70	40.653
487.05	40.736
487.40	40.806
487.75	40.452
488.09	39.474
488.44	39.745
488.79	41.323
489.13	40.898
489.48	40.283
489.83	41.378
490.17	41.491
490.52	40.774
490.87	42.186
491.22	41.272
491.56	41.403
491.91	41.165
492.26	41.713
492.60	41.071
492.95	41.119
493.30	40.983
493.64	41.684
493.99	41.068
494.34	40.395
494.68	40.436
495.03	40.061
495.37	40.193
495.72	41.086
496.07	40.619
496.41	40.168
496.76	40.306
497.11	40.670
497.45	41.085
497.80	41.381
498.14	40.180
498.49	40.790
498.84	40.304
499.18	39.907
499.53	40.706
499.87	40.348
500.22	40.935
500.56	40.764
500.91	40.850
501.26	40.472
501.60	40.214
501.95	41.198
502.29	40.277
502.64	39.622
502.98	40.182
503.33	39.641
503.67	41.092
504.02	40.398
504.36	39.805
504.71	41.277
505.06	41.082
505.40	39.946
505.75	39.336
506.09	41.008
506.44	40.075
506.78	38.812
507.13	40.445
507.47	40.499
507.82	40.569
508.16	40.256
508.51	40.591
508.85	40.495
509.19	39.495
509.54	39.547
509.88	41.024
510.23	40.674
510.57	39.239
510.92	40.023
511.26	40.551
511.61	40.354
511.95	39.387
512.30	40.870
512.64	40.411
512.98	40.579
513.33	39.215
513.67	38.982
514.02	39.964
514.36	41.222
514.70	40.376
515.05	40.061
515.39	40.715
515.74	40.727
516.08	41.117
516.42	41.330
516.77	40.373
517.11	40.306
517.46	42.099
517.80	41.863
518.14	40.987
518.49	41.527
518.83	41.569
519.17	40.167
519.52	40.600
519.86	40.849
520.20	40.573
520.55	41.971
520.89	40.013
521.23	40.481
521.58	41.733
521.92	40.721
522.26	40.069
522.61	40.956
522.95	39.795
523.29	40.958
523.64	40.095
523.98	41.062
524.32	40.808
524.66	40.585
525.01	41.649
525.35	40.492
525.69	39.504
526.04	41.649
526.38	40.918
526.72	41.250
527.06	40.366
527.41	40.468
527.75	39.986
528.09	39.533
528.43	40.539
528.78	40.182
529.12	39.521
529.46	40.199
529.80	39.483
530.15	40.931
530.49	40.656
530.83	40.926
531.17	39.336
531.51	40.828
531.86	40.336
532.20	39.610
532.54	40.216
532.88	40.073
533.22	40.302
533.57	40.138
533.91	41.225
534.25	40.394
534.59	40.234
534.93	40.228
535.27	41.279
535.62	38.150
535.96	39.358
536.30	39.875
536.64	39.199
536.98	40.782
537.32	39.211
537.66	41.202
538.01	39.323
538.35	39.055
538.69	38.358
539.03	39.798
539.37	40.201
539.71	40.797
540.05	39.219
540.39	39.797
540.73	39.341
541.07	39.706
541.42	39.701
541.76	40.288
542.10	38.809
542.44	39.812
542.78	39.076
543.12	39.422
543.46	40.238
543.80	39.814
544.14	40.000
544.48	38.526
544.82	38.467
545.16	38.913
545.50	39.956
545.84	39.429
546.18	39.551
546.52	40.430
546.86	38.944
547.20	40.227
547.54	38.741
547.88	39.031
548.22	37.834
548.56	39.112
548.90	38.596
549.24	39.912
549.58	39.121
549.92	39.398
550.26	37.992
550.60	40.206
550.94	39.921
551.28	39.837
551.62	39.967
551.96	39.537
552.30	39.612
552.64	38.618
552.98	38.559
553.32	39.015
553.66	38.923
554.00	39.151
554.34	39.375
554.68	39.633
555.02	37.460
555.36	40.032
555.69	37.817
556.03	38.803
556.37	39.160
556.71	38.386
557.05	39.219
557.39	39.839
557.73	39.151
558.07	38.732
558.41	37.191
558.75	40.249
559.08	40.340
559.42	38.127
559.76	39.090
560.10	39.283
560.44	38.559
560.78	37.866
561.12	38.317
561.45	39.360
561.79	38.106
562.13	37.880
562.47	39.832
562.81	37.908
563.15	37.186
563.48	36.479
563.82	37.700
564.16	38.462
564.50	37.249
564.84	39.121
565.17	38.484
565.51	38.353
565.85	36.127
566.19	37.926
566.52	37.778
566.86	38.115
567.20	37.458
567.54	37.332
567.88	36.893
568.21	37.925
568.55	36.955
568.89	38.297
569.23	37.851
569.56	36.138
569.90	36.702
570.24	36.407
570.57	36.870
570.91	36.390
571.25	37.018
571.59	36.590
571.92	34.884
572.26	35.514
572.60	36.145
572.93	35.986
573.27	35.042
573.61	35.407
573.95	34.682
574.28	35.338
574.62	34.351
574.96	35.124
575.29	34.874
575.63	33.974
575.97	34.706
576.30	34.905
576.64	34.647
576.98	34.436
577.31	35.408
577.65	35.418
577.98	35.239
578.32	34.842
578.66	34.509
578.99	35.005
579.33	34.492
579.67	33.907
580.00	34.268
580.34	34.469
580.67	34.283
581.01	34.545
581.35	34.874
581.68	34.403
582.02	34.110
582.35	34.694
582.69	34.921
583.02	33.837
583.36	34.189
583.70	34.780
584.03	34.168
584.37	34.970
584.70	34.894
585.04	34.105
585.37	34.500
585.71	34.517
586.04	34.593
586.38	34.759
586.72	34.737
587.05	35.167
587.39	34.912
587.72	34.176
588.06	34.427
588.39	35.466
588.73	34.041
589.06	34.432
589.40	35.093
589.73	35.752
590.07	34.921
590.40	35.627
590.73	35.735
591.07	35.671
591.40	34.947
591.74	34.095
592.07	35.435
592.41	35.098
592.74	35.876
593.08	34.823
593.41	34.625
593.75	34.850
594.08	35.145
594.41	34.552
594.75	34.652
595.08	34.164
595.42	34.435
595.75	34.583
596.09	34.988
596.42	35.137
596.75	34.727
597.09	34.468
597.42	35.007
597.75	34.803
598.09	34.223
598.42	34.927
598.76	34.927
599.09	34.748
599.42	33.635
599.76	34.759
600.09	34.955
600.42	33.281
600.76	34.065
601.09	34.431
601.42	33.897
601.76	34.253
602.09	34.185
602.42	34.998
602.76	34.206
603.09	34.334
603.42	34.710
603.76	33.823
604.09	34.670
604.42	35.208
604.76	34.505
605.09	34.624
605.42	34.929
605.75	33.668
606.09	35.378
606.42	34.514
606.75	34.503
607.09	35.401
607.42	34.557
607.75	34.068
608.08	33.957
608.42	33.657
608.75	34.467
609.08	33.821
609.41	34.474
609.75	34.229
610.08	34.470
610.41	34.402
610.74	34.277
611.07	34.849
611.41	33.940
611.74	34.603
612.07	36.161
612.40	34.485
612.73	34.086
613.07	34.116
613.40	34.445
613.73	34.822
614.06	34.895
614.39	35.032
614.72	34.357
615.06	34.615
615.39	34.180
615.72	33.707
616.05	35.478
616.38	34.223
616.71	34.328
617.05	33.668
617.38	34.323
617.71	35.271
618.04	35.545
618.37	34.794
618.70	35.326
619.03	35.606
619.36	35.935
619.69	34.448
620.03	35.774
620.36	37.113
620.69	34.146
621.02	34.996
621.35	35.404
621.68	36.094
622.01	35.918
622.34	35.427
622.67	36.256
623.00	35.872
623.33	34.961
623.66	34.263
623.99	35.486
624.32	34.869
624.65	35.000
624.99	33.281
625.32	33.254
625.65	33.787
625.98	35.500
626.31	36.017
626.64	35.495
626.97	35.846
627.30	36.111
627.63	36.465
627.96	34.637
628.29	34.417
628.62	35.979
628.95	35.164
629.28	35.950
629.61	35.005
629.94	36.100
630.26	35.879
630.59	38.429
630.92	34.563
631.25	34.190
631.58	35.465
631.91	35.877
632.24	35.030
632.57	36.861
632.90	36.285
633.23	38.065
633.56	36.604
633.89	35.752
634.22	37.308
634.55	35.874
634.88	37.082
635.20	39.041
635.53	38.966
635.86	37.772
636.19	36.289
636.52	37.332
636.85	34.941
637.18	37.565
637.51	36.585
637.83	37.430
638.16	37.127
638.49	37.176
638.82	37.131
639.15	35.714
639.48	36.536
639.81	36.811
640.13	35.375
640.46	37.953
640.79	34.264
641.12	35.969
641.45	36.236
641.77	35.510
642.10	35.016
642.43	36.700
642.76	37.276
643.09	36.678
643.41	37.993
643.74	38.542
644.07	35.626
644.40	36.643
644.73	37.937
645.05	38.931
645.38	36.346
645.71	36.450
646.04	38.290
646.36	33.902
646.69	40.619
647.02	38.672
647.35	37.000
647.67	38.677
648.00	37.670
648.33	35.260
648.66	37.291
648.98	38.136
649.31	37.866
649.64	35.972
649.96	36.149
650.29	34.690
650.62	36.549
650.94	36.784
651.27	37.765
651.60	35.373
651.92	37.023
652.25	33.270
652.58	36.266
652.90	32.740
653.23	34.369
653.56	35.590
653.88	34.672
654.21	35.539
654.54	36.023
654.86	36.511
655.19	34.194
655.52	35.189
655.84	32.495
656.17	32.729
656.49	44.549
656.82	51.734
657.15	41.475
657.47	30.930
657.80	22.552
658.13	18.173
658.45	31.196
658.78	30.429
659.10	30.633
659.43	30.272
659.75	31.079
660.08	30.931
660.41	33.268
660.73	32.410
661.06	32.182
661.38	35.081
661.71	36.980
662.03	35.648
662.36	35.561
662.68	34.772
663.01	38.942
663.33	38.915
663.66	37.081
663.98	35.697
664.31	37.073
664.63	35.092
664.96	33.729
665.28	36.879
665.61	35.047
665.93	35.714
666.26	37.086
666.58	36.239
666.91	36.768
667.23	36.207
667.56	38.765
667.88	38.847
668.21	34.518
668.53	35.533
668.86	37.500
669.18	34.518
669.50	36.761
669.83	33.000
670.15	35.500
670.48	36.090
670.80	36.548
671.13	33.735
671.45	34.694
671.77	36.232
672.10	35.385
672.42	33.466
672.75	32.427
673.07	36.636
673.39	34.241
673.72	35.744
674.04	33.617
674.37	34.411
674.69	33.411
675.01	37.442
675.34	39.461
675.66	34.762
675.98	36.869
676.31	35.768
676.63	36.856
676.95	35.012
677.28	34.406
677.60	35.840
677.92	36.090
678.25	35.963
678.57	36.427
678.89	36.009
679.22	33.486
679.54	34.744
679.86	34.690
680.18	37.448
680.51	34.086
680.83	34.375
681.15	36.383
681.48	33.830
681.80	31.957
682.12	34.904
682.44	32.759
682.77	34.545
683.09	35.784
683.41	35.338
683.73	35.678
684.06	36.802
684.38	36.691
684.70	38.106
685.02	31.818
685.34	31.590
685.67	34.585
685.99	33.134
686.31	34.142
686.63	33.398
686.96	31.911
687.28	36.140
687.60	35.934
687.92	32.700
688.24	33.474
688.56	33.626
688.89	33.562
689.21	33.256
689.53	33.504
689.85	35.443
690.17	34.804
690.49	33.882
690.82	33.907
691.14	36.031
691.46	34.750
691.78	33.254
692.10	32.569
692.42	36.239
692.74	33.886
693.06	36.145
693.39	32.266
693.71	32.093
694.03	32.850
694.35	34.406
694.67	38.931
694.99	34.232
695.31	34.561
695.63	34.324
695.95	36.236
696.27	35.411
696.59	32.641
696.91	32.194
697.23	35.244
697.56	34.197
697.88	33.489
698.20	30.993
698.52	33.413
698.84	31.328
699.16	33.509
699.48	35.864
699.80	31.868
700.12	36.915
700.44	31.858
700.76	32.177
701.08	31.429
701.40	36.513
701.72	35.000
702.04	34.014
702.36	34.754
702.68	33.557
703.00	33.754
703.32	32.036
703.64	34.385
703.96	33.544
704.28	32.042
704.60	33.904
704.91	28.947
705.23	32.982
705.55	33.457
705.87	34.532
706.19	30.677
706.51	36.719
706.83	31.868
707.15	30.508
707.47	31.437
707.79	32.951
708.11	33.862
708.43	36.267
708.74	33.880
709.06	33.436
709.38	29.674
709.70	31.494
710.02	35.315
710.34	30.496
710.66	31.086
710.98	32.517
711.29	34.708
711.61	35.816
711.93	35.581
712.25	35.472
712.57	35.938
712.89	35.102
713.20	31.855
713.52	34.146
713.84	31.752
714.16	33.784
714.48	34.471
714.80	31.987
715.11	39.519
715.43	30.375
715.75	31.228
716.07	36.000
716.39	38.908
716.70	37.200
717.02	28.226
717.34	35.065
717.66	36.364
717.97	31.019
718.29	33.333
718.61	33.784
718.93	29.412
719.24	34.310
719.56	34.375
719.88	29.804
720.20	26.923
720.51	33.772
720.83	31.799
721.15	34.286
721.46	34.177
721.78	29.437
722.10	25.581
722.42	35.217
722.73	32.127
723.05	29.954
723.37	28.507
723.68	37.915
724.00	30.093
724.32	27.570
724.63	33.032
724.95	25.571
725.27	38.967
725.58	33.790
725.90	26.577
726.22	30.568
726.53	34.426
726.85	32.593
727.16	35.628
727.48	34.677
727.80	30.137
728.11	29.333
728.43	30.041
728.74	30.263
729.06	33.188
729.38	36.822
729.69	32.400
730.01	31.799
730.32	29.084
730.64	31.923
730.96	30.502
731.27	34.749
731.59	28.956
731.90	29.605
732.22	30.897
732.53	30.175
732.85	24.648
733.16	34.432
733.48	25.373
733.80	31.636
734.11	34.397
734.43	35.379
734.74	28.972
735.06	32.797
735.37	30.351
735.69	26.408
736.00	31.852
736.32	33.566
736.63	30.741
736.95	29.961
737.26	27.899
737.58	32.117
737.89	28.679
738.21	33.206
738.52	31.557
738.83	27.778
739.15	32.727
739.46	26.126
739.78	24.710
740.09	30.556
740.41	30.682
740.72	32.669
741.04	29.249
741.35	29.148
741.66	33.871
741.98	26.020
742.29	29.534
742.61	28.324
742.92	34.314
743.23	33.831
743.55	30.052
743.86	33.333
744.18	29.000
744.49	36.111
744.80	32.796
745.12	34.872
745.43	29.947
745.74	26.203
746.06	35.632
746.37	28.333
746.68	31.892
747.00	27.072
747.31	36.649
747.62	33.684
747.94	35.377
748.25	38.916
748.56	34.848
748.88	30.055
749.19	34.197
749.50	34.706
749.82	36.500
750.13	31.553
750.44	30.901
750.75	35.200
751.07	26.360
751.38	26.953
751.69	32.937
752.01	39.076
752.32	35.124
752.63	31.441
752.94	28.400
753.26	30.594
753.57	33.649
753.88	29.767
754.19	30.837
754.51	27.197
754.82	27.917
755.13	27.876
755.44	31.169
755.75	33.735
756.07	31.760
756.38	32.636
756.69	30.943
757.00	28.014
757.31	29.758
757.63	26.471
757.94	29.091
758.25	31.548
758.56	27.568
758.87	29.464
759.18	31.153
759.50	30.249
759.81	35.135
760.12	31.673
760.43	28.904
760.74	34.132
761.05	27.244
761.36	32.344
761.67	33.131
761.99	29.097
762.30	32.727
762.61	26.423
762.92	30.667
763.23	31.163
763.54	31.472
763.85	34.389
764.16	28.696
764.47	32.174
764.78	33.871
765.10	29.528
765.41	30.435
765.72	31.104
766.03	30.769
766.34	31.439
766.65	31.641
766.96	27.556
767.27	36.313
767.58	33.962
767.89	35.065
768.20	30.405
768.51	32.184
768.82	20.000
769.13	32.407
769.44	27.830
769.75	29.902
770.06	29.126
770.37	26.596
770.68	30.256
770.99	30.457
771.30	27.320
771.61	30.045
771.92	32.075
772.23	31.731
772.54	34.706
772.85	30.822
773.16	33.548
773.47	24.204
773.78	32.934
774.09	34.211
774.39	24.265
774.70	30.075
775.01	37.692
775.32	23.016
775.63	26.772
775.94	37.736
776.25	25.926
776.56	27.273
776.87	41.026
777.18	26.000
777.48	22.115
777.79	27.778
778.10	26.415
778.41	37.255
778.72	28.302
779.03	27.193
779.34	15.126
779.65	28.873
779.95	30.216
780.26	16.129
780.57	28.261
780.88	28.440
781.19	35.185
781.50	31.967
781.80	27.737
782.11	26.923
782.42	21.379
782.73	33.566
783.04	28.000
783.34	24.000
783.65	26.016
783.96	22.131
784.27	24.370
784.57	15.888
784.88	26.786
785.19	28.866
785.50	14.737
785.81	27.000
786.11	28.713
786.42	-8.235
786.73	38.542
787.04	14.286
787.34	19.444
787.65	26.415
787.96	17.526
788.26	35.644
788.57	31.304
788.88	12.844
789.19	17.355
789.49	22.609
789.80	35.345
790.11	23.171
790.41	46.067
790.72	18.605
791.03	33.721
791.33	22.078
791.64	40.244
791.95	23.171
792.25	14.458
792.56	24.691
792.87	36.620
793.17	26.506
793.48	31.765
793.79	21.250
794.09	13.333
794.40	31.522
794.70	25.217
795.01	24.771
795.32	26.772
795.62	28.431
795.93	25.490
796.23	25.253
796.54	36.047
796.85	17.391
797.15	42.187
797.46	22.034
797.76	22.951
798.07	30.263
798.37	20.968
798.68	15.625
798.99	32.308
799.29	24.242
799.60	20.290
799.90	40.000
800.21	24.561
800.51	27.586
800.82	26.415
801.12	29.412
801.43	17.742
801.73	40.323
802.04	30.000
802.34	22.642
802.65	7.895
802.95	20.000
803.26	32.075
803.56	6.557
803.87	24.000
804.17	37.037
804.48	25.000
804.78	10.204
805.09	44.681
805.39	42.373
805.70	14.583
806.00	3.571
806.30	16.949
806.61	9.231
806.91	9.231
807.22	19.737
807.52	28.571
807.83	34.483
808.13	25.316
808.43	27.869
808.74	22.951
809.04	29.730
809.35	14.815
809.65	23.214
809.95	27.119
810.26	14.286
810.56	28.302
810.86	15.686
811.17	18.919
811.47	18.519
811.77	11.765
812.08	25.000
812.38	45.833
812.69	30.769
812.99	28.571
813.29	36.957
813.59	22.857
813.90	0.000
814.20	23.636
814.50	24.490
814.81	19.608
815.11	10.417
815.41	17.073
815.72	-7.692
816.02	40.426
816.32	25.000
816.62	54.545
816.93	-18.182
817.23	0.000
817.53	5.882
817.84	42.500
818.14	11.765
818.44	21.875
818.74	-4.762
819.04	-2.857
819.35	-5.714
819.65	18.182
819.95	41.026
820.25	-16.667
820.56	-10.345
820.86	-3.571
821.16	0.000
821.46	23.810
821.76	22.222
822.07	-13.043
822.37	0.000
822.67	2.326
822.97	34.783
823.27	11.538
823.57	3.704
823.88	-7.143
824.18	20.513
824.48	32.143
824.78	27.273
825.08	-6.667
825.38	27.500
825.69	44.444
825.99	40.741
826.29	20.000
826.59	-22.222
826.89	-3.704
827.19	-10.714
827.49	-4.545
827.79	-45.455
828.09	-18.182
828.39	56.522
828.70	7.407
829.00	-14.286
829.30	11.905
829.60	22.581
829.90	0.000
830.20	30.769
830.50	4.545
830.80	14.286
831.10	-22.222
831.40	-57.143
831.70	-37.037
832.00	-29.412
832.30	17.391
832.60	50.000
832.90	-72.727
833.20	-33.333
833.50	-3.125
833.80	0.000
834.10	36.000
834.40	8.333
834.70	0.000
835.00	15.385
835.30	-50.000
835.60	0.000
835.90	35.000
836.20	-14.286
836.50	47.826
836.80	-33.333
837.10	-20.000
837.40	-100.000
837.70	21.739
838.00	21.429
838.30	1300.000
838.60	48.000
838.90	-120.000
839.19	-66.667
839.49	-400.000
839.79	-11.765
840.09	-77.778
840.39	71.429
840.69	-94.444
840.99	50.000
841.29	41.379
841.59	20.000
841.88	-63.636
842.18	-83.333
842.48	62.500
842.78	61.538
843.08	-5.882
843.38	-60.000
843.68	-38.462
843.97	-35.294
844.27	0.000
844.57	45.833
844.87	18.182
845.17	-42.105
845.47	5.556
845.76	30.556
846.06	-61.905
846.36	-71.429
846.66	-33.333
846.96	-50.000
847.25	60.000
847.55	12.500
847.85	-13.333
848.15	-25.000
848.44	36.842
848.74	-20.000
849.04	-15.789
849.34	166.667
849.63	50.000
849.93	41.176
850.23	-172.727
850.53	66.667
850.82	0.000
851.12	-22.222
851.42	-42.857
851.71	180.000
852.01	50.000
852.31	-100.000
852.61	-53.846
852.90	-340.000
853.20	-88.889
853.50	-100.000
853.79	-60.000
854.09	-50.000
854.39	15.789
854.68	25.000
854.98	-50.000
855.28	27.778
855.57	-78.571
855.87	-5.263
856.17	31.250
856.46	30.769
856.76	13.333
857.05	18.750
857.35	20.833
857.65	11.111
857.94	175.000
858.24	-8.696
858.53	-20.000
858.83	-266.667
859.13	-27.273
859.42	-50.000
859.72	183.333
860.01	100.000
860.31	-110.000
860.60	-175.000
860.90	-250.000
861.20	-150.000
861.49	25.000
861.79	600.000
862.08	19.355
862.38	10.526
862.67	84.615
862.97	-30.000
863.26	75.000
863.56	-8.696
863.85	-100.000
864.15	14.286
864.44	-6.250
864.74	-66.667
865.03	22.222
865.33	-133.333
865.62	-1300.000
865.92	-350.000
866.21	0.000
866.51	72.727
866.80	-133.333
867.10	-42.857
867.39	-88.889
867.69	-33.333
867.98	140.000
868.27	-225.000
868.57	525.000
868.86	-26.667
869.16	53.846
869.45	900.000
869.75	0.000
870.04	-75.000
870.33	29.412
870.63	0.000
870.92	47.826
871.22	-75.000
871.51	200.000
871.80	12.500
872.10	-300.000
>>>>>End Processed Spectral Data<<<<<
