SpectraSuite Data File
++++++++++++++++++++++++++++++++++++
Date: Tue May 12 19:44:30 PDT 2015
User: schluterlab
Dark Spectrum Present: Yes
Reference Spectrum Present: Yes
Number of Sampled Component Spectra: 1
Spectrometers: USB2E3373
Integration Time (usec): 3000 (USB2E3373)
Spectra Averaged: 3 (USB2E3373)
Boxcar Smoothing: 0 (USB2E3373)
Correct for Electrical Dark: No (USB2E3373)
Strobe/Lamp Enabled: No (USB2E3373)
Correct for Detector Non-linearity: No (USB2E3373)
Correct for Stray Light: No (USB2E3373)
Number of Pixels in Processed Spectrum: 2048
>>>>>Begin Processed Spectral Data<<<<<
178.53	0.000
178.91	-120.000
179.29	-233.333
179.67	366.667
180.04	0.000
180.42	-200.000
180.80	233.333
181.18	1000.000
181.56	0.000
181.94	200.000
182.31	1600.000
182.69	-14.286
183.07	0.000
183.45	183.333
183.83	180.000
184.20	133.333
184.58	850.000
184.96	233.333
185.34	-33.333
185.72	-14.286
186.09	-166.667
186.47	-600.000
186.85	40.000
187.23	158.333
187.61	-85.714
187.98	-260.000
188.36	450.000
188.74	-250.000
189.12	-11.111
189.49	-70.000
189.87	425.000
190.25	166.667
190.63	533.333
191.00	360.000
191.38	-200.000
191.76	220.000
192.14	42.857
192.51	-100.000
192.89	-80.000
193.27	-80.000
193.65	-100.000
194.02	-166.667
194.40	300.000
194.78	-112.500
195.15	-200.000
195.53	66.667
195.91	200.000
196.29	-250.000
196.66	-500.000
197.04	-28.571
197.42	160.000
197.79	-250.000
198.17	-66.667
198.55	500.000
198.92	-155.556
199.30	1050.000
199.68	-150.000
200.05	-250.000
200.43	-61.111
200.81	-41.667
201.18	250.000
201.56	-650.000
201.94	-500.000
202.31	-16.667
202.69	-100.000
203.07	-50.000
203.44	-550.000
203.82	0.000
204.19	150.000
204.57	-533.333
204.95	63.636
205.32	360.000
205.70	175.000
206.08	-600.000
206.45	-20.000
206.83	1800.000
207.20	-155.556
207.58	7.692
207.96	200.000
208.33	666.667
208.71	366.667
209.08	400.000
209.46	-111.111
209.84	400.000
210.21	-666.667
210.59	350.000
210.96	177.778
211.34	-325.000
211.71	600.000
212.09	-100.000
212.46	-150.000
212.84	-112.500
213.22	142.857
213.59	-100.000
213.97	0.000
214.34	-500.000
214.72	-500.000
215.09	100.000
215.47	13.333
215.84	-62.500
216.22	-500.000
216.59	1100.000
216.97	-75.000
217.34	-116.667
217.72	55.556
218.09	425.000
218.47	15.789
218.84	-100.000
219.22	14.286
219.59	-140.000
219.97	-70.000
220.34	233.333
220.72	36.364
221.09	-350.000
221.47	0.000
221.84	-50.000
222.22	-300.000
222.59	-500.000
222.97	-26.087
223.34	73.333
223.72	271.429
224.09	-166.667
224.46	153.846
224.84	-60.000
225.21	-650.000
225.59	-275.000
225.96	35.000
226.34	266.667
226.71	240.000
227.08	-100.000
227.46	-171.429
227.83	-41.667
228.21	-550.000
228.58	200.000
228.95	-5.263
229.33	12.500
229.70	-116.667
230.08	-55.556
230.45	-600.000
230.82	-2600.000
231.20	-14.286
231.57	-360.000
231.95	-533.333
232.32	155.556
232.69	-750.000
233.07	0.000
233.44	-150.000
233.81	48.387
234.19	-400.000
234.56	-83.333
234.93	-283.333
235.31	-18.519
235.68	-11.111
236.05	-23.077
236.43	-68.421
236.80	-40.909
237.17	-85.714
237.55	-65.000
237.92	-11.628
238.29	-22.581
238.67	-3.571
239.04	14.286
239.41	1.961
239.79	2.000
240.16	-7.500
240.53	-3.448
240.91	-1.370
241.28	1.408
241.65	17.187
242.02	1.754
242.40	-10.667
242.77	5.263
243.14	11.765
243.51	12.903
243.89	0.000
244.26	8.333
244.63	13.265
245.00	3.571
245.38	-0.840
245.75	10.169
246.12	3.906
246.49	2.400
246.87	3.279
247.24	4.930
247.61	5.298
247.98	10.112
248.36	7.547
248.73	5.682
249.10	6.111
249.47	8.854
249.84	15.228
250.22	5.208
250.59	10.674
250.96	6.818
251.33	11.321
251.70	8.257
252.08	11.688
252.45	7.755
252.82	4.641
253.19	8.949
253.56	13.725
253.94	7.724
254.31	13.309
254.68	9.375
255.05	17.219
255.42	10.182
255.79	16.556
256.16	5.556
256.54	10.303
256.91	7.692
257.28	9.416
257.65	10.492
258.02	14.114
258.39	11.178
258.76	12.232
259.14	9.412
259.51	14.366
259.88	16.138
260.25	7.386
260.62	9.270
260.99	9.471
261.36	11.494
261.73	13.067
262.10	10.899
262.47	12.397
262.85	11.054
263.22	8.602
263.59	9.920
263.96	9.138
264.33	7.008
264.70	9.582
265.07	12.315
265.44	14.052
265.81	15.663
266.18	12.646
266.55	10.000
266.92	12.277
267.29	13.111
267.66	10.000
268.03	10.753
268.40	11.442
268.77	10.913
269.14	12.815
269.51	10.407
269.88	10.897
270.25	9.072
270.62	11.134
270.99	9.895
271.36	10.155
271.73	11.875
272.10	12.448
272.47	10.400
272.84	9.554
273.21	10.230
273.58	10.612
273.95	8.964
274.32	11.992
274.69	11.546
275.06	11.257
275.43	11.600
275.80	13.002
276.17	9.289
276.54	11.217
276.91	11.132
277.28	11.799
277.65	10.208
278.02	12.500
278.39	12.886
278.76	10.242
279.13	11.807
279.50	10.650
279.87	12.075
280.23	13.115
280.60	9.717
280.97	11.424
281.34	10.678
281.71	8.703
282.08	11.091
282.45	10.406
282.82	10.943
283.19	11.953
283.56	12.799
283.92	9.953
284.29	11.337
284.66	9.381
285.03	8.748
285.40	10.333
285.77	11.166
286.14	9.826
286.51	9.325
286.87	11.831
287.24	8.654
287.61	9.259
287.98	10.172
288.35	11.938
288.72	9.786
289.08	9.434
289.45	9.360
289.82	10.248
290.19	8.485
290.56	10.275
290.93	10.192
291.29	9.787
291.66	10.955
292.03	10.473
292.40	10.360
292.77	9.038
293.13	8.811
293.50	9.091
293.87	10.402
294.24	9.691
294.60	9.290
294.97	7.202
295.34	8.904
295.71	8.322
296.08	9.153
296.44	10.013
296.81	7.891
297.18	7.891
297.55	8.794
297.91	9.264
298.28	8.312
298.65	8.409
299.02	8.755
299.38	8.291
299.75	7.593
300.12	9.712
300.48	8.451
300.85	7.090
301.22	7.812
301.59	8.759
301.95	8.049
302.32	8.141
302.69	7.848
303.05	9.445
303.42	8.213
303.79	7.978
304.15	9.060
304.52	9.385
304.89	8.681
305.25	7.569
305.62	7.727
305.99	7.615
306.35	7.718
306.72	8.061
307.09	7.835
307.45	7.767
307.82	9.072
308.19	8.251
308.55	8.122
308.92	6.674
309.29	8.264
309.65	7.327
310.02	8.176
310.38	7.676
310.75	7.582
311.12	7.731
311.48	8.119
311.85	7.194
312.22	7.955
312.58	7.049
312.95	7.495
313.31	7.670
313.68	7.349
314.05	7.349
314.41	7.269
314.78	6.533
315.14	7.444
315.51	7.646
315.87	8.398
316.24	8.408
316.61	9.320
316.97	6.373
317.34	7.464
317.70	5.882
318.07	8.390
318.43	8.790
318.80	7.468
319.16	6.337
319.53	8.491
319.89	8.144
320.26	8.260
320.62	8.624
320.99	8.061
321.35	8.004
321.72	8.889
322.08	8.218
322.45	6.805
322.81	9.261
323.18	8.150
323.54	9.573
323.91	8.065
324.27	9.065
324.64	7.966
325.00	8.644
325.37	9.532
325.73	7.755
326.10	9.807
326.46	9.066
326.83	8.355
327.19	7.860
327.56	9.019
327.92	8.247
328.29	9.229
328.65	9.416
329.01	8.807
329.38	9.917
329.74	9.099
330.11	8.947
330.47	9.032
330.84	8.365
331.20	9.889
331.56	8.396
331.93	8.600
332.29	9.436
332.66	9.855
333.02	9.192
333.38	10.294
333.75	9.698
334.11	8.951
334.48	8.855
334.84	8.638
335.20	9.490
335.57	9.809
335.93	9.023
336.29	9.689
336.66	9.290
337.02	9.338
337.38	9.340
337.75	9.818
338.11	9.845
338.47	8.449
338.84	8.840
339.20	10.357
339.56	8.481
339.93	9.910
340.29	8.885
340.65	9.954
341.02	7.706
341.38	9.179
341.74	9.698
342.11	9.107
342.47	8.741
342.83	9.193
343.20	9.903
343.56	8.479
343.92	8.661
344.28	8.148
344.65	8.390
345.01	8.624
345.37	9.060
345.73	9.216
346.10	8.384
346.46	7.248
346.82	9.601
347.19	8.410
347.55	9.779
347.91	8.190
348.27	9.183
348.63	8.989
349.00	9.015
349.36	9.398
349.72	9.195
350.08	9.329
350.45	9.276
350.81	8.423
351.17	7.661
351.53	7.890
351.89	7.858
352.26	7.317
352.62	9.076
352.98	8.787
353.34	7.602
353.70	8.230
354.07	8.155
354.43	7.596
354.79	8.770
355.15	7.587
355.51	8.313
355.87	8.993
356.24	9.559
356.60	7.262
356.96	8.610
357.32	9.300
357.68	8.751
358.04	7.942
358.40	9.002
358.77	8.996
359.13	8.434
359.49	7.520
359.85	8.393
360.21	8.168
360.57	8.373
360.93	9.422
361.29	7.477
361.66	8.281
362.02	8.085
362.38	8.858
362.74	8.378
363.10	8.446
363.46	9.029
363.82	9.035
364.18	8.327
364.54	8.321
364.90	8.370
365.26	8.048
365.62	7.419
365.98	8.096
366.35	8.094
366.71	7.991
367.07	8.708
367.43	7.653
367.79	7.413
368.15	7.858
368.51	8.614
368.87	8.664
369.23	7.494
369.59	8.603
369.95	7.004
370.31	7.955
370.67	8.647
371.03	8.978
371.39	8.157
371.75	8.172
372.11	7.852
372.47	7.275
372.83	8.839
373.19	8.584
373.55	7.635
373.91	8.030
374.27	7.726
374.63	8.174
374.99	7.833
375.35	7.112
375.71	8.034
376.07	8.410
376.42	8.714
376.78	7.596
377.14	7.542
377.50	8.276
377.86	8.078
378.22	8.587
378.58	8.026
378.94	8.251
379.30	8.108
379.66	8.515
380.02	8.455
380.38	7.634
380.74	7.831
381.09	7.052
381.45	8.063
381.81	7.717
382.17	8.274
382.53	8.087
382.89	7.505
383.25	8.307
383.61	7.819
383.97	7.602
384.32	8.774
384.68	7.727
385.04	7.575
385.40	7.604
385.76	7.274
386.12	7.195
386.48	7.241
386.83	7.702
387.19	7.599
387.55	7.448
387.91	7.664
388.27	7.678
388.62	7.642
388.98	8.524
389.34	7.417
389.70	7.885
390.06	7.789
390.42	7.099
390.77	7.981
391.13	7.287
391.49	7.615
391.85	7.651
392.20	8.317
392.56	7.007
392.92	7.978
393.28	8.259
393.64	7.600
393.99	7.403
394.35	7.333
394.71	7.881
395.07	8.156
395.42	6.921
395.78	7.661
396.14	7.262
396.50	7.309
396.85	7.336
397.21	6.986
397.57	7.242
397.92	7.188
398.28	7.914
398.64	6.794
399.00	7.719
399.35	7.210
399.71	8.323
400.07	7.844
400.42	8.397
400.78	7.294
401.14	8.081
401.49	7.620
401.85	7.619
402.21	7.614
402.57	6.890
402.92	8.234
403.28	7.932
403.63	8.782
403.99	7.662
404.35	7.580
404.70	7.473
405.06	6.758
405.42	8.458
405.77	7.372
406.13	7.467
406.49	7.508
406.84	8.406
407.20	7.125
407.55	7.749
407.91	7.762
408.27	8.511
408.62	6.817
408.98	8.623
409.34	8.067
409.69	7.157
410.05	7.772
410.40	6.615
410.76	7.659
411.11	8.209
411.47	7.755
411.83	7.920
412.18	8.246
412.54	8.797
412.89	7.513
413.25	7.586
413.60	8.099
413.96	7.573
414.31	6.628
414.67	8.913
415.03	7.884
415.38	8.287
415.74	7.925
416.09	6.616
416.45	7.360
416.80	7.371
417.16	7.757
417.51	7.287
417.87	9.097
418.22	7.821
418.58	7.878
418.93	8.382
419.29	7.870
419.64	8.379
420.00	7.269
420.35	7.031
420.71	8.195
421.06	7.008
421.42	7.905
421.77	8.161
422.12	8.092
422.48	8.738
422.83	7.477
423.19	8.353
423.54	7.514
423.90	7.911
424.25	8.640
424.61	8.000
424.96	7.985
425.31	7.065
425.67	7.212
426.02	7.267
426.38	7.207
426.73	7.726
427.09	7.748
427.44	8.272
427.79	8.168
428.15	7.546
428.50	7.726
428.85	8.531
429.21	8.906
429.56	7.624
429.92	7.518
430.27	6.880
430.62	8.004
430.98	8.490
431.33	8.176
431.68	7.659
432.04	8.400
432.39	8.437
432.74	8.982
433.10	7.702
433.45	8.043
433.80	8.393
434.16	8.170
434.51	8.361
434.86	7.795
435.22	8.789
435.57	8.773
435.92	6.440
436.28	7.721
436.63	8.646
436.98	7.716
437.34	8.509
437.69	7.593
438.04	7.512
438.39	8.290
438.75	7.508
439.10	9.524
439.45	8.601
439.81	8.127
440.16	7.854
440.51	7.745
440.86	8.523
441.22	7.981
441.57	7.977
441.92	8.393
442.27	8.514
442.63	7.506
442.98	8.557
443.33	8.578
443.68	7.709
444.03	8.093
444.39	7.860
444.74	8.815
445.09	8.264
445.44	8.047
445.79	8.684
446.15	8.746
446.50	8.386
446.85	7.976
447.20	7.987
447.55	8.202
447.91	8.760
448.26	8.961
448.61	7.855
448.96	8.575
449.31	8.198
449.66	8.475
450.02	7.515
450.37	9.052
450.72	7.840
451.07	7.910
451.42	7.971
451.77	8.008
452.12	8.396
452.47	8.198
452.83	8.842
453.18	8.305
453.53	9.079
453.88	8.168
454.23	8.882
454.58	8.681
454.93	7.629
455.28	8.893
455.63	8.317
455.98	8.566
456.34	8.908
456.69	8.734
457.04	8.005
457.39	8.801
457.74	8.028
458.09	9.334
458.44	9.135
458.79	8.363
459.14	8.229
459.49	9.490
459.84	8.859
460.19	8.505
460.54	7.828
460.89	8.353
461.24	8.117
461.59	9.211
461.94	8.679
462.29	8.521
462.64	9.192
462.99	8.557
463.34	8.425
463.69	9.396
464.04	8.403
464.39	9.196
464.74	9.020
465.09	9.453
465.44	7.858
465.79	9.025
466.14	8.473
466.49	9.637
466.84	9.029
467.19	8.707
467.54	8.355
467.89	9.602
468.24	7.765
468.59	9.228
468.94	8.877
469.29	8.720
469.64	9.847
469.99	8.796
470.34	8.274
470.68	7.538
471.03	8.467
471.38	9.125
471.73	9.520
472.08	9.537
472.43	8.990
472.78	7.614
473.13	8.561
473.48	9.959
473.83	8.851
474.17	8.873
474.52	9.846
474.87	9.280
475.22	9.593
475.57	9.342
475.92	9.437
476.27	9.584
476.61	9.574
476.96	8.951
477.31	9.132
477.66	9.704
478.01	9.182
478.36	9.341
478.70	10.141
479.05	8.532
479.40	8.734
479.75	9.815
480.10	9.848
480.45	9.110
480.79	9.289
481.14	9.541
481.49	9.717
481.84	9.343
482.19	9.220
482.53	9.902
482.88	9.049
483.23	9.196
483.58	9.604
483.92	9.899
484.27	9.342
484.62	9.099
484.97	9.051
485.31	9.126
485.66	8.462
486.01	8.213
486.36	8.129
486.70	8.470
487.05	8.992
487.40	8.930
487.75	9.705
488.09	9.461
488.44	8.876
488.79	9.251
489.13	8.978
489.48	9.187
489.83	9.894
490.17	9.376
490.52	9.560
490.87	9.397
491.22	10.700
491.56	9.387
491.91	9.739
492.26	10.097
492.60	9.949
492.95	9.856
493.30	9.618
493.64	9.787
493.99	10.164
494.34	9.326
494.68	9.415
495.03	9.686
495.37	10.086
495.72	9.757
496.07	10.142
496.41	9.239
496.76	8.978
497.11	9.453
497.45	10.296
497.80	10.021
498.14	10.296
498.49	10.198
498.84	9.486
499.18	9.549
499.53	9.969
499.87	9.524
500.22	9.922
500.56	10.727
500.91	10.802
501.26	9.711
501.60	9.837
501.95	9.672
502.29	9.954
502.64	9.856
502.98	9.389
503.33	9.486
503.67	9.903
504.02	10.623
504.36	9.605
504.71	9.840
505.06	9.695
505.40	10.724
505.75	9.426
506.09	9.859
506.44	10.622
506.78	10.225
507.13	10.749
507.47	10.914
507.82	10.435
508.16	9.967
508.51	10.996
508.85	10.385
509.19	9.874
509.54	10.482
509.88	10.529
510.23	9.213
510.57	10.051
510.92	10.431
511.26	10.396
511.61	11.073
511.95	10.064
512.30	11.188
512.64	10.088
512.98	11.459
513.33	9.672
513.67	10.539
514.02	10.096
514.36	10.380
514.70	11.415
515.05	10.183
515.39	10.853
515.74	10.526
516.08	10.421
516.42	11.436
516.77	10.435
517.11	11.009
517.46	11.493
517.80	11.232
518.14	10.753
518.49	11.125
518.83	11.219
519.17	11.247
519.52	10.931
519.86	11.336
520.20	9.936
520.55	11.619
520.89	11.673
521.23	11.356
521.58	11.442
521.92	11.949
522.26	11.203
522.61	11.263
522.95	11.233
523.29	10.864
523.64	11.194
523.98	11.089
524.32	12.256
524.66	12.033
525.01	11.478
525.35	11.286
525.69	12.113
526.04	10.994
526.38	11.035
526.72	12.292
527.06	11.603
527.41	11.056
527.75	10.481
528.09	11.457
528.43	11.481
528.78	10.692
529.12	11.164
529.46	12.159
529.80	10.960
530.15	11.397
530.49	11.855
530.83	10.123
531.17	12.429
531.51	12.562
531.86	12.465
532.20	11.255
532.54	12.374
532.88	11.127
533.22	11.566
533.57	12.138
533.91	12.388
534.25	11.745
534.59	11.486
534.93	11.954
535.27	11.852
535.62	11.411
535.96	12.282
536.30	11.343
536.64	11.803
536.98	11.431
537.32	11.533
537.66	11.584
538.01	12.003
538.35	12.873
538.69	10.474
539.03	12.473
539.37	11.845
539.71	11.739
540.05	12.156
540.39	11.256
540.73	12.308
541.07	11.471
541.42	12.117
541.76	11.727
542.10	12.123
542.44	12.139
542.78	10.191
543.12	11.047
543.46	11.475
543.80	12.080
544.14	12.330
544.48	11.649
544.82	11.143
545.16	11.667
545.50	12.227
545.84	13.021
546.18	12.135
546.52	12.145
546.86	11.171
547.20	12.879
547.54	11.145
547.88	12.108
548.22	11.885
548.56	12.262
548.90	11.930
549.24	12.061
549.58	12.891
549.92	12.481
550.26	12.124
550.60	11.578
550.94	12.540
551.28	12.195
551.62	12.203
551.96	12.380
552.30	10.775
552.64	11.345
552.98	11.813
553.32	11.970
553.66	12.291
554.00	11.429
554.34	13.125
554.68	11.962
555.02	11.508
555.36	11.994
555.69	10.838
556.03	11.973
556.37	12.228
556.71	11.614
557.05	12.578
557.39	11.807
557.73	12.264
558.07	13.067
558.41	11.333
558.75	12.531
559.08	12.851
559.42	13.127
559.76	11.457
560.10	12.714
560.44	11.085
560.78	11.270
561.12	11.270
561.45	11.161
561.79	10.866
562.13	12.898
562.47	12.309
562.81	11.979
563.15	11.103
563.48	10.712
563.82	12.154
564.16	11.829
564.50	11.533
564.84	11.977
565.17	11.159
565.51	12.104
565.85	11.761
566.19	11.761
566.52	11.971
566.86	11.885
567.20	11.311
567.54	10.849
567.88	9.830
568.21	11.020
568.55	11.205
568.89	10.769
569.23	10.191
569.56	10.713
569.90	10.021
570.24	10.284
570.57	9.744
570.91	10.298
571.25	10.090
571.59	10.295
571.92	9.705
572.26	9.596
572.60	9.525
572.93	9.299
573.27	9.280
573.61	9.533
573.95	9.109
574.28	9.131
574.62	9.390
574.96	9.126
575.29	9.164
575.63	8.807
575.97	9.091
576.30	9.746
576.64	9.344
576.98	9.229
577.31	9.195
577.65	8.914
577.98	9.055
578.32	8.582
578.66	8.908
578.99	9.693
579.33	9.384
579.67	9.442
580.00	9.709
580.34	9.253
580.67	9.385
581.01	9.215
581.35	8.820
581.68	8.807
582.02	8.674
582.35	8.844
582.69	8.933
583.02	9.085
583.36	9.378
583.70	9.859
584.03	9.154
584.37	9.735
584.70	9.333
585.04	8.964
585.37	9.072
585.71	8.912
586.04	9.425
586.38	9.344
586.72	9.037
587.05	9.879
587.39	9.618
587.72	9.391
588.06	9.560
588.39	9.144
588.73	9.275
589.06	9.819
589.40	9.996
589.73	10.172
590.07	9.175
590.40	9.885
590.73	9.913
591.07	9.610
591.40	9.868
591.74	10.215
592.07	10.220
592.41	10.216
592.74	9.885
593.08	9.654
593.41	9.702
593.75	9.976
594.08	9.868
594.41	9.872
594.75	9.984
595.08	9.817
595.42	10.101
595.75	10.038
596.09	9.408
596.42	9.302
596.75	10.545
597.09	10.448
597.42	9.385
597.75	10.084
598.09	10.440
598.42	9.938
598.76	9.791
599.09	10.252
599.42	9.363
599.76	9.612
600.09	10.241
600.42	9.414
600.76	9.238
601.09	9.412
601.42	10.427
601.76	9.700
602.09	9.887
602.42	10.291
602.76	10.253
603.09	9.922
603.42	9.881
603.76	9.778
604.09	9.691
604.42	10.176
604.76	10.041
605.09	9.636
605.42	10.095
605.75	9.548
606.09	10.400
606.42	9.886
606.75	10.613
607.09	10.121
607.42	10.188
607.75	9.320
608.08	10.243
608.42	10.281
608.75	9.955
609.08	9.490
609.41	10.783
609.75	9.847
610.08	10.181
610.41	9.975
610.74	9.960
611.07	10.471
611.41	9.636
611.74	10.065
612.07	9.766
612.40	11.031
612.73	10.069
613.07	11.039
613.40	10.523
613.73	10.367
614.06	10.480
614.39	10.955
614.72	9.976
615.06	10.792
615.39	10.162
615.72	9.798
616.05	9.623
616.38	10.558
616.71	10.261
617.05	10.741
617.38	10.452
617.71	10.255
618.04	10.447
618.37	10.595
618.70	10.054
619.03	12.255
619.36	11.856
619.69	10.575
620.03	10.908
620.36	11.716
620.69	11.382
621.02	10.926
621.35	11.234
621.68	10.261
622.01	10.963
622.34	11.223
622.67	12.142
623.00	11.548
623.33	11.654
623.66	12.032
623.99	11.005
624.32	10.485
624.65	10.469
624.99	10.703
625.32	12.243
625.65	11.369
625.98	12.500
626.31	11.255
626.64	11.802
626.97	11.949
627.30	11.667
627.63	11.442
627.96	11.080
628.29	12.046
628.62	11.237
628.95	12.355
629.28	11.570
629.61	12.121
629.94	13.071
630.26	12.448
630.59	14.241
630.92	12.013
631.25	11.844
631.58	11.163
631.91	12.187
632.24	12.426
632.57	12.723
632.90	13.776
633.23	13.935
633.56	13.208
633.89	12.533
634.22	13.462
634.55	12.352
634.88	13.387
635.20	13.699
635.53	13.268
635.86	12.500
636.19	12.824
636.52	14.016
636.85	11.343
637.18	14.378
637.51	12.331
637.83	12.709
638.16	13.798
638.49	14.841
638.82	14.768
639.15	12.714
639.48	10.189
639.81	12.519
640.13	12.098
640.46	14.646
640.79	12.713
641.12	14.419
641.45	13.375
641.77	11.783
642.10	14.169
642.43	14.646
642.76	12.545
643.09	14.014
643.41	12.903
643.74	13.889
644.07	12.522
644.40	14.079
644.73	12.155
645.05	14.504
645.38	14.038
645.71	13.931
646.04	14.126
646.36	13.447
646.69	16.634
647.02	18.359
647.35	15.600
647.67	17.635
648.00	16.893
648.33	15.029
648.66	13.173
648.98	13.220
649.31	13.769
649.64	12.737
649.96	11.486
650.29	12.389
650.62	12.987
650.94	14.972
651.27	12.331
651.60	12.237
651.92	13.931
652.25	9.751
652.58	11.670
652.90	10.320
653.23	11.517
653.56	11.979
653.88	10.584
654.21	12.665
654.54	13.133
654.86	12.770
655.19	10.968
655.52	11.915
655.84	8.758
656.17	8.146
656.49	10.877
656.82	12.148
657.15	9.581
657.47	7.671
657.80	5.766
658.13	5.062
658.45	8.256
658.78	7.976
659.10	7.893
659.43	8.443
659.75	7.404
660.08	8.912
660.41	8.983
660.73	9.972
661.06	10.909
661.38	15.726
661.71	14.223
662.03	12.731
662.36	12.411
662.68	12.230
663.01	16.106
663.33	13.443
663.66	15.789
663.98	12.714
664.31	13.171
664.63	13.991
664.96	14.252
665.28	15.130
665.61	15.654
665.93	14.977
666.26	14.128
666.58	14.450
666.91	17.096
667.23	13.300
667.56	12.346
667.88	13.534
668.21	14.213
668.53	17.513
668.86	13.776
669.18	14.721
669.50	15.681
669.83	11.500
670.15	14.250
670.48	10.777
670.80	16.244
671.13	13.012
671.45	14.796
671.77	11.594
672.10	12.308
672.42	11.155
672.75	12.427
673.07	11.963
673.39	15.175
673.72	13.636
674.04	14.681
674.37	13.857
674.69	11.449
675.01	15.116
675.34	12.745
675.66	9.524
675.98	13.131
676.31	11.083
676.63	12.629
676.95	11.031
677.28	14.604
677.60	15.789
677.92	15.038
678.25	10.441
678.57	11.369
678.89	10.092
679.22	13.991
679.54	10.022
679.86	12.420
680.18	11.297
680.51	11.910
680.83	12.083
681.15	13.725
681.48	13.617
681.80	10.217
682.12	14.347
682.44	10.776
682.77	14.318
683.09	12.745
683.41	13.534
683.73	12.814
684.06	11.929
684.38	10.791
684.70	13.395
685.02	11.905
685.34	11.506
685.67	11.265
685.99	11.776
686.31	12.873
686.63	12.233
686.96	10.772
687.28	12.731
687.60	11.704
687.92	10.549
688.24	12.842
688.56	10.989
688.89	13.470
689.21	9.767
689.53	10.997
689.85	12.911
690.17	11.029
690.49	14.824
690.82	11.302
691.14	12.533
691.46	12.500
691.78	12.440
692.10	10.780
692.42	13.991
692.74	10.427
693.06	10.843
693.39	11.084
693.71	10.000
694.03	8.937
694.35	11.881
694.67	15.013
694.99	10.243
695.31	12.465
695.63	13.243
695.95	14.326
696.27	12.465
696.59	12.463
696.91	9.972
697.23	11.461
697.56	10.881
697.88	12.412
698.20	9.927
698.52	10.577
698.84	11.529
699.16	12.137
699.48	14.136
699.80	9.066
700.12	12.672
700.44	9.145
700.76	10.726
701.08	6.032
701.40	12.171
701.72	12.000
702.04	11.565
702.36	13.443
702.68	9.060
703.00	9.779
703.32	8.982
703.64	13.249
703.96	10.127
704.28	9.507
704.60	13.356
704.91	11.184
705.23	10.877
705.55	8.550
705.87	16.547
706.19	9.960
706.51	10.937
706.83	10.623
707.15	7.797
707.47	11.677
707.79	9.169
708.11	12.169
708.43	11.467
708.74	11.749
709.06	13.190
709.38	10.682
709.70	7.143
710.02	11.189
710.34	8.865
710.66	13.109
710.98	9.441
711.29	14.777
711.61	10.638
711.93	12.734
712.25	9.811
712.57	7.813
712.89	10.612
713.20	12.097
713.52	8.943
713.84	9.124
714.16	12.162
714.48	8.191
714.80	8.418
715.11	11.340
715.43	9.898
715.75	11.228
716.07	9.818
716.39	11.945
716.70	11.600
717.02	11.290
717.34	13.420
717.66	6.364
717.97	12.500
718.29	12.889
718.61	6.306
718.93	9.664
719.24	12.134
719.56	7.589
719.88	6.667
720.20	3.846
720.51	10.526
720.83	10.460
721.15	9.796
721.46	11.392
721.78	9.091
722.10	9.302
722.42	12.609
722.73	8.145
723.05	9.217
723.37	6.335
723.68	9.953
724.00	14.815
724.32	9.346
724.63	6.787
724.95	10.959
725.27	8.920
725.58	13.699
725.90	7.207
726.22	7.860
726.53	12.705
726.85	10.370
727.16	10.931
727.48	10.081
727.80	6.393
728.11	8.889
728.43	10.288
728.74	6.140
729.06	7.424
729.38	12.403
729.69	9.200
730.01	5.439
730.32	7.171
730.64	13.846
730.96	6.950
731.27	8.108
731.59	11.111
731.90	9.539
732.22	10.299
732.53	3.509
732.85	7.746
733.16	12.088
733.48	7.836
733.80	10.182
734.11	12.411
734.43	10.469
734.74	8.411
735.06	8.682
735.37	7.668
735.69	7.746
736.00	5.556
736.32	9.091
736.63	11.481
736.95	4.669
737.26	7.609
737.58	6.569
737.89	10.189
738.21	10.305
738.52	13.525
738.83	14.103
739.15	3.636
739.46	9.459
739.78	11.969
740.09	6.746
740.41	7.955
740.72	6.773
741.04	5.138
741.35	12.556
741.66	16.129
741.98	9.694
742.29	7.772
742.61	2.312
742.92	8.333
743.23	14.428
743.55	7.772
743.86	9.662
744.18	7.500
744.49	8.333
744.80	9.140
745.12	12.308
745.43	7.487
745.74	6.417
746.06	9.195
746.37	2.778
746.68	10.270
747.00	7.182
747.31	10.471
747.62	14.737
747.94	12.264
748.25	13.300
748.56	7.576
748.88	1.639
749.19	12.435
749.50	4.118
749.82	16.500
750.13	8.738
750.44	9.013
750.75	12.800
751.07	5.858
751.38	7.422
751.69	12.698
752.01	6.723
752.32	11.157
752.63	7.424
752.94	10.000
753.26	8.219
753.57	8.057
753.88	8.372
754.19	5.727
754.51	6.695
754.82	7.917
755.13	6.195
755.44	12.554
755.75	8.434
756.07	6.009
756.38	7.950
756.69	7.925
757.00	10.638
757.31	9.343
757.63	10.784
757.94	7.879
758.25	9.821
758.56	10.270
758.87	8.929
759.18	10.903
759.50	12.100
759.81	7.336
760.12	6.406
760.43	10.299
760.74	9.880
761.05	5.449
761.36	10.386
761.67	4.255
761.99	7.358
762.30	5.818
762.61	12.602
762.92	4.444
763.23	5.581
763.54	11.168
763.85	13.575
764.16	5.652
764.47	8.261
764.78	8.065
765.10	6.299
765.41	10.368
765.72	7.358
766.03	10.033
766.34	6.061
766.65	12.109
766.96	9.333
767.27	10.615
767.58	10.692
767.89	16.234
768.20	11.486
768.51	9.195
768.82	3.750
769.13	15.278
769.44	8.491
769.75	7.353
770.06	4.854
770.37	9.574
770.68	1.026
770.99	3.553
771.30	1.031
771.61	3.587
771.92	9.906
772.23	6.731
772.54	10.000
772.85	7.534
773.16	5.806
773.47	7.006
773.78	10.180
774.09	4.605
774.39	5.882
774.70	2.256
775.01	1.538
775.32	0.794
775.63	7.087
775.94	1.887
776.25	-0.741
776.56	1.818
776.87	4.274
777.18	11.000
777.48	-7.692
777.79	9.259
778.10	7.547
778.41	10.784
778.72	9.434
779.03	3.509
779.34	6.723
779.65	6.338
779.95	4.317
780.26	4.032
780.57	2.899
780.88	4.587
781.19	12.037
781.50	-4.098
781.80	3.650
782.11	5.769
782.42	0.690
782.73	13.986
783.04	-4.000
783.34	9.600
783.65	6.504
783.96	0.000
784.27	3.361
784.57	-3.738
784.88	2.679
785.19	8.247
785.50	5.263
785.81	-2.000
786.11	-1.980
786.42	-15.294
786.73	14.583
787.04	5.102
787.34	6.481
787.65	5.660
787.96	-5.155
788.26	3.960
788.57	2.609
788.88	-9.174
789.19	-5.785
789.49	4.348
789.80	9.483
790.11	-12.195
790.41	7.865
790.72	-2.326
791.03	10.465
791.33	-3.896
791.64	18.293
791.95	-1.220
792.25	-6.024
792.56	0.000
792.87	-4.225
793.17	14.458
793.48	2.353
793.79	3.750
794.09	-6.667
794.40	7.609
794.70	0.000
795.01	-2.752
795.32	10.236
795.62	5.882
795.93	6.863
796.23	5.051
796.54	6.977
796.85	-15.942
797.15	-4.687
797.46	-18.644
797.76	4.918
798.07	13.158
798.37	-4.839
798.68	-15.625
798.99	6.154
799.29	-6.061
799.60	-7.246
799.90	14.286
800.21	-10.526
800.51	0.000
800.82	-1.887
801.12	-1.961
801.43	12.903
801.73	-3.226
802.04	-4.000
802.34	1.887
802.65	-23.684
802.95	3.636
803.26	5.660
803.56	-3.279
803.87	-4.000
804.17	-11.111
804.48	9.615
804.78	-14.286
805.09	8.511
805.39	10.169
805.70	-22.917
806.00	-3.571
806.30	0.000
806.61	-15.385
806.91	-16.923
807.22	-10.526
807.52	4.286
807.83	-10.345
808.13	8.861
808.43	-14.754
808.74	6.557
809.04	14.865
809.35	-14.815
809.65	5.357
809.95	3.390
810.26	-4.082
810.56	1.887
810.86	-17.647
811.17	21.622
811.47	-51.852
811.77	-5.882
812.08	-9.091
812.38	-54.167
812.69	-23.077
812.99	-2.381
813.29	19.565
813.59	-11.429
813.90	-11.905
814.20	-12.727
814.50	-4.082
814.81	-13.725
815.11	-14.583
815.41	-2.439
815.72	-34.615
816.02	-2.128
816.32	-9.375
816.62	-3.030
816.93	-39.394
817.23	-10.811
817.53	-14.706
817.84	10.000
818.14	-29.412
818.44	-3.125
818.74	-71.429
819.04	-5.714
819.35	11.429
819.65	20.455
819.95	30.769
820.25	-55.556
820.56	-27.586
820.86	-28.571
821.16	-26.087
821.46	-9.524
821.76	-1.852
822.07	-13.043
822.37	-14.286
822.67	-16.279
822.97	-73.913
823.27	-57.692
823.57	-14.815
823.88	7.143
824.18	-43.590
824.48	-42.857
824.78	-15.152
825.08	-120.000
825.38	10.000
825.69	-100.000
825.99	29.630
826.29	15.556
826.59	-55.556
826.89	-22.222
827.19	-3.571
827.49	-59.091
827.79	-63.636
828.09	-40.909
828.39	-52.174
828.70	-40.741
829.00	-21.429
829.30	-16.667
829.60	-16.129
829.90	-46.154
830.20	-20.513
830.50	-45.455
830.80	-57.143
831.10	-22.222
831.40	-42.857
831.70	-7.407
832.00	-17.647
832.30	21.739
832.60	-16.667
832.90	-100.000
833.20	-33.333
833.50	-6.250
833.80	-23.077
834.10	-8.000
834.40	-33.333
834.70	-13.636
835.00	0.000
835.30	-35.000
835.60	-220.000
835.90	25.000
836.20	-71.429
836.50	-4.348
836.80	-11.111
837.10	-33.333
837.40	-90.000
837.70	13.043
838.00	-92.857
838.30	1100.000
838.60	24.000
838.90	-260.000
839.19	-144.444
839.49	-800.000
839.79	-41.176
840.09	-11.111
840.39	3.571
840.69	-55.556
840.99	-116.667
841.29	-3.448
841.59	-60.000
841.88	-54.545
842.18	-166.667
842.48	25.000
842.78	7.692
843.08	-29.412
843.38	-5.000
843.68	-38.462
843.97	-94.118
844.27	-110.000
844.57	-20.833
844.87	-63.636
845.17	-84.211
845.47	-94.444
845.76	19.444
846.06	-14.286
846.36	-21.429
846.66	-266.667
846.96	-40.000
847.25	-200.000
847.55	-125.000
847.85	-126.667
848.15	125.000
848.44	10.526
848.74	-6.667
849.04	-10.526
849.34	-233.333
849.63	-150.000
849.93	0.000
850.23	-81.818
850.53	-200.000
850.82	-40.000
851.12	-111.111
851.42	-42.857
851.71	-200.000
852.01	-50.000
852.31	-200.000
852.61	-53.846
852.90	-240.000
853.20	-166.667
853.50	-88.889
853.79	-30.000
854.09	-85.000
854.39	-78.947
854.68	-30.000
854.98	-425.000
855.28	16.667
855.57	-128.571
855.87	-84.211
856.17	-81.250
856.46	7.692
856.76	-53.333
857.05	0.000
857.35	12.500
857.65	-22.222
857.94	37.500
858.24	-43.478
858.53	-140.000
858.83	-233.333
859.13	-90.909
859.42	-120.000
859.72	183.333
860.01	15.385
860.31	-50.000
860.60	-287.500
860.90	-375.000
861.20	-233.333
861.49	-250.000
861.79	350.000
862.08	16.129
862.38	-15.789
862.67	-30.769
862.97	-160.000
863.26	-16.667
863.56	21.739
863.85	-83.333
864.15	-157.143
864.44	-31.250
864.74	-66.667
865.03	-122.222
865.33	-533.333
865.62	-1100.000
865.92	-750.000
866.21	-66.667
866.51	-63.636
866.80	-366.667
867.10	-142.857
867.39	-100.000
867.69	-58.333
867.98	280.000
868.27	-350.000
868.57	550.000
868.86	-40.000
869.16	-23.077
869.45	850.000
869.75	-116.667
870.04	-108.333
870.33	23.529
870.63	-85.714
870.92	34.783
871.22	-175.000
871.51	440.000
871.80	-12.500
872.10	-200.000
>>>>>End Processed Spectral Data<<<<<
