SpectraSuite Data File
++++++++++++++++++++++++++++++++++++
Date: Tue May 12 19:40:33 PDT 2015
User: schluterlab
Dark Spectrum Present: Yes
Reference Spectrum Present: Yes
Number of Sampled Component Spectra: 1
Spectrometers: USB2E3373
Integration Time (usec): 3000 (USB2E3373)
Spectra Averaged: 3 (USB2E3373)
Boxcar Smoothing: 0 (USB2E3373)
Correct for Electrical Dark: No (USB2E3373)
Strobe/Lamp Enabled: No (USB2E3373)
Correct for Detector Non-linearity: No (USB2E3373)
Correct for Stray Light: No (USB2E3373)
Number of Pixels in Processed Spectrum: 2048
>>>>>Begin Processed Spectral Data<<<<<
178.53	0.000
178.91	-100.000
179.29	-133.333
179.67	266.667
180.04	0.000
180.42	-240.000
180.80	-33.333
181.18	600.000
181.56	-50.000
181.94	116.667
182.31	1600.000
182.69	-28.571
183.07	0.000
183.45	208.333
183.83	20.000
184.20	66.667
184.58	200.000
184.96	133.333
185.34	-166.667
185.72	-35.714
186.09	-83.333
186.47	-1100.000
186.85	-200.000
187.23	141.667
187.61	0.000
187.98	60.000
188.36	600.000
188.74	-200.000
189.12	-33.333
189.49	-70.000
189.87	200.000
190.25	33.333
190.63	266.667
191.00	120.000
191.38	-433.333
191.76	260.000
192.14	-14.286
192.51	-70.000
192.89	20.000
193.27	20.000
193.65	-200.000
194.02	33.333
194.40	600.000
194.78	-137.500
195.15	-28.571
195.53	200.000
195.91	360.000
196.29	-250.000
196.66	-133.333
197.04	-128.571
197.42	20.000
197.79	-112.500
198.17	25.000
198.55	-100.000
198.92	0.000
199.30	550.000
199.68	-100.000
200.05	-600.000
200.43	-11.111
200.81	-8.333
201.18	366.667
201.56	-150.000
201.94	-1200.000
202.31	-50.000
202.69	-66.667
203.07	-116.667
203.44	-500.000
203.82	0.000
204.19	212.500
204.57	-433.333
204.95	100.000
205.32	120.000
205.70	500.000
206.08	-200.000
206.45	-180.000
206.83	2100.000
207.20	-22.222
207.58	0.000
207.96	333.333
208.33	533.333
208.71	533.333
209.08	300.000
209.46	-55.556
209.84	500.000
210.21	-133.333
210.59	100.000
210.96	188.889
211.34	-400.000
211.71	850.000
212.09	-100.000
212.46	-200.000
212.84	-37.500
213.22	14.286
213.59	-12.500
213.97	0.000
214.34	-550.000
214.72	-600.000
215.09	700.000
215.47	-60.000
215.84	-100.000
216.22	-900.000
216.59	1500.000
216.97	-8.333
217.34	-83.333
217.72	44.444
218.09	150.000
218.47	-31.579
218.84	-50.000
219.22	7.143
219.59	50.000
219.97	10.000
220.34	-33.333
220.72	54.545
221.09	-650.000
221.47	0.000
221.84	200.000
222.22	-150.000
222.59	-250.000
222.97	26.087
223.34	146.667
223.72	157.143
224.09	33.333
224.46	107.692
224.84	-80.000
225.21	-250.000
225.59	-375.000
225.96	10.000
226.34	316.667
226.71	80.000
227.08	-53.846
227.46	-42.857
227.83	-16.667
228.21	-450.000
228.58	50.000
228.95	-31.579
229.33	-50.000
229.70	-200.000
230.08	-166.667
230.45	-300.000
230.82	-1500.000
231.20	-23.810
231.57	-220.000
231.95	-266.667
232.32	77.778
232.69	-750.000
233.07	31.250
233.44	-37.500
233.81	19.355
234.19	-220.000
234.56	-16.667
234.93	-150.000
235.31	18.519
235.68	-25.926
236.05	-23.077
236.43	-47.368
236.80	-45.455
237.17	-157.143
237.55	-100.000
237.92	2.326
238.29	-29.032
238.67	3.571
239.04	8.571
239.41	7.843
239.79	-6.000
240.16	-5.000
240.53	-3.448
240.91	0.000
241.28	2.817
241.65	15.625
242.02	-28.070
242.40	1.333
242.77	12.632
243.14	10.588
243.51	4.301
243.89	-8.571
244.26	6.481
244.63	-3.061
245.00	-0.893
245.38	-3.361
245.75	-5.085
246.12	3.125
246.49	-1.600
246.87	-2.459
247.24	-5.634
247.61	3.311
247.98	5.056
248.36	-1.258
248.73	-1.136
249.10	-0.556
249.47	3.646
249.84	4.569
250.22	0.000
250.59	-2.809
250.96	5.455
251.33	6.132
251.70	5.963
252.08	6.061
252.45	2.857
252.82	0.000
253.19	5.837
253.56	5.098
253.94	5.691
254.31	10.072
254.68	4.514
255.05	5.629
255.42	5.091
255.79	6.623
256.16	1.389
256.54	4.242
256.91	4.167
257.28	2.922
257.65	0.656
258.02	7.508
258.39	6.647
258.76	5.505
259.14	2.941
259.51	8.169
259.88	5.476
260.25	1.136
260.62	3.090
260.99	5.850
261.36	7.184
261.73	6.667
262.10	6.540
262.47	4.132
262.85	6.427
263.22	5.376
263.59	6.702
263.96	6.005
264.33	2.695
264.70	4.177
265.07	4.926
265.44	7.260
265.81	6.506
266.18	5.855
266.55	3.810
266.92	7.589
267.29	5.111
267.66	3.636
268.03	5.376
268.40	2.288
268.77	6.904
269.14	5.252
269.51	4.525
269.88	7.479
270.25	3.586
270.62	4.832
270.99	7.579
271.36	5.519
271.73	3.542
272.10	4.772
272.47	5.600
272.84	4.246
273.21	4.802
273.58	3.469
273.95	6.375
274.32	5.609
274.69	6.262
275.06	7.692
275.43	1.400
275.80	6.119
276.17	4.348
276.54	6.464
276.91	5.374
277.28	6.963
277.65	3.781
278.02	3.977
278.39	7.260
278.76	5.587
279.13	6.619
279.50	5.596
279.87	6.226
280.23	5.464
280.60	5.124
280.97	5.975
281.34	4.576
281.71	3.730
282.08	5.546
282.45	5.291
282.82	6.397
283.19	4.545
283.56	5.119
283.92	5.529
284.29	4.907
284.66	6.195
285.03	1.201
285.40	7.667
285.77	4.269
286.14	5.230
286.51	5.145
286.87	3.890
287.24	2.083
287.61	3.549
287.98	5.321
288.35	5.426
288.72	4.281
289.08	4.403
289.45	7.020
289.82	3.727
290.19	3.333
290.56	5.065
290.93	4.874
291.29	5.390
291.66	6.461
292.03	7.030
292.40	5.612
292.77	3.207
293.13	5.140
293.50	4.270
293.87	6.241
294.24	5.618
294.60	6.421
294.97	3.878
295.34	5.068
295.71	2.913
296.08	4.781
296.44	5.665
296.81	3.752
297.18	5.433
297.55	4.899
297.91	5.711
298.28	3.325
298.65	4.787
299.02	4.562
299.38	3.699
299.75	3.990
300.12	5.276
300.48	4.930
300.85	3.545
301.22	5.288
301.59	4.258
301.95	4.512
302.32	2.916
302.69	3.924
303.05	4.014
303.42	5.314
303.79	4.157
304.15	5.549
304.52	3.352
304.89	3.608
305.25	4.014
305.62	4.432
305.99	2.912
306.35	3.579
306.72	4.466
307.09	5.441
307.45	5.502
307.82	5.016
308.19	4.950
308.55	4.114
308.92	4.661
309.29	4.812
309.65	4.747
310.02	4.507
310.38	4.584
310.75	5.533
311.12	4.069
311.48	5.242
311.85	5.066
312.22	5.269
312.58	5.337
312.95	4.107
313.31	3.835
313.68	5.263
314.05	5.958
314.41	5.796
314.78	4.523
315.14	6.366
315.51	5.065
315.87	5.469
316.24	4.847
316.61	6.214
316.97	5.490
317.34	5.742
317.70	4.015
318.07	4.629
318.43	3.686
318.80	5.373
319.16	3.728
319.53	4.906
319.89	6.155
320.26	5.506
320.62	6.008
320.99	5.000
321.35	5.731
321.72	7.273
322.08	6.436
322.45	5.819
322.81	6.010
323.18	6.040
323.54	7.014
323.91	5.408
324.27	5.014
324.64	5.623
325.00	4.914
325.37	7.284
325.73	5.383
326.10	7.093
326.46	5.349
326.83	5.541
327.19	6.376
327.56	6.543
327.92	4.688
328.29	6.362
328.65	6.497
329.01	6.606
329.38	6.152
329.74	6.778
330.11	5.405
330.47	6.890
330.84	6.391
331.20	6.839
331.56	4.811
331.93	6.313
332.29	6.753
332.66	7.143
333.02	6.685
333.38	5.790
333.75	6.038
334.11	6.510
334.48	5.277
334.84	6.385
335.20	5.819
335.57	7.266
335.93	5.860
336.29	6.490
336.66	5.920
337.02	7.253
337.38	5.755
337.75	6.545
338.11	7.566
338.47	7.428
338.84	6.077
339.20	7.149
339.56	6.710
339.93	6.667
340.29	7.888
340.65	6.484
341.02	7.440
341.38	6.973
341.74	7.384
342.11	7.604
342.47	6.993
342.83	7.372
343.20	8.753
343.56	6.906
343.92	8.136
344.28	6.175
344.65	7.877
345.01	7.840
345.37	7.949
345.73	6.718
346.10	8.470
346.46	7.075
346.82	6.712
347.19	7.065
347.55	9.184
347.91	7.617
348.27	7.329
348.63	8.557
349.00	9.098
349.36	8.904
349.72	7.882
350.08	8.756
350.45	8.381
350.81	8.258
351.17	6.590
351.53	8.615
351.89	9.240
352.26	8.130
352.62	8.994
352.98	8.954
353.34	8.605
353.70	8.313
354.07	9.308
354.43	7.930
354.79	8.607
355.15	8.636
355.51	9.780
355.87	8.909
356.24	10.458
356.60	8.180
356.96	8.926
357.32	9.218
357.68	9.706
358.04	9.157
358.40	10.393
358.77	10.040
359.13	8.996
359.49	8.160
359.85	9.592
360.21	9.516
360.57	8.533
360.93	9.739
361.29	9.969
361.66	9.306
362.02	8.791
362.38	10.412
362.74	9.839
363.10	8.824
363.46	9.180
363.82	9.495
364.18	9.235
364.54	10.000
364.90	10.074
365.26	9.762
365.62	9.387
365.98	11.019
366.35	10.061
366.71	10.456
367.07	10.258
367.43	9.531
367.79	9.884
368.15	9.266
368.51	10.262
368.87	9.765
369.23	10.901
369.59	11.029
369.95	10.209
370.31	10.076
370.67	9.925
371.03	9.830
371.39	11.027
371.75	9.733
372.11	10.000
372.47	10.393
372.83	10.665
373.19	10.693
373.55	10.554
373.91	9.848
374.27	11.479
374.63	10.236
374.99	10.835
375.35	10.015
375.71	10.689
376.07	10.813
376.42	10.858
376.78	10.732
377.14	10.894
377.50	10.807
377.86	11.072
378.22	11.625
378.58	11.053
378.94	11.788
379.30	10.811
379.66	11.588
380.02	10.807
380.38	11.641
380.74	11.436
381.09	10.737
381.45	11.175
381.81	11.097
382.17	11.922
382.53	10.782
382.89	11.097
383.25	11.351
383.61	10.617
383.97	11.436
384.32	10.581
384.68	11.814
385.04	10.821
385.40	11.118
385.76	11.638
386.12	11.155
386.48	11.807
386.83	11.389
387.19	11.814
387.55	11.205
387.91	11.153
388.27	11.644
388.62	11.464
388.98	11.578
389.34	11.256
389.70	11.474
390.06	12.409
390.42	11.832
390.77	12.408
391.13	11.711
391.49	11.792
391.85	11.776
392.20	11.683
392.56	11.198
392.92	11.812
393.28	11.550
393.64	11.716
393.99	11.948
394.35	11.811
394.71	12.053
395.07	12.135
395.42	12.571
395.78	12.164
396.14	12.458
396.50	13.454
396.85	12.029
397.21	11.902
397.57	12.311
397.92	12.341
398.28	12.170
398.64	12.381
399.00	12.420
399.35	12.485
399.71	12.695
400.07	12.353
400.42	12.756
400.78	12.476
401.14	12.563
401.49	12.180
401.85	12.190
402.21	12.817
402.57	11.526
402.92	12.284
403.28	13.199
403.63	12.821
403.99	11.757
404.35	12.420
404.70	11.780
405.06	12.647
405.42	12.362
405.77	11.296
406.13	12.127
406.49	11.609
406.84	12.640
407.20	12.639
407.55	12.091
407.91	12.448
408.27	13.497
408.62	12.219
408.98	13.256
409.34	12.356
409.69	12.375
410.05	12.759
410.40	12.139
410.76	11.146
411.11	12.864
411.47	12.993
411.83	11.912
412.18	13.089
412.54	13.001
412.89	12.241
413.25	13.793
413.60	12.054
413.96	13.333
414.31	12.237
414.67	12.221
415.03	12.310
415.38	12.396
415.74	13.365
416.09	12.543
416.45	12.880
416.80	12.517
417.16	13.893
417.51	12.769
417.87	13.269
418.22	12.968
418.58	14.167
418.93	13.604
419.29	12.415
419.64	14.011
420.00	13.294
420.35	13.999
420.71	13.380
421.06	13.628
421.42	14.053
421.77	14.129
422.12	13.526
422.48	14.049
422.83	13.556
423.19	14.118
423.54	13.989
423.90	14.277
424.25	14.381
424.61	14.774
424.96	14.619
425.31	14.674
425.67	14.061
426.02	14.161
426.38	13.835
426.73	14.019
427.09	14.051
427.44	15.000
427.79	14.666
428.15	14.141
428.50	15.641
428.85	14.817
429.21	15.481
429.56	14.862
429.92	14.927
430.27	14.720
430.62	15.143
430.98	15.261
431.33	14.739
431.68	14.934
432.04	14.845
432.39	15.389
432.74	14.168
433.10	15.039
433.45	15.199
433.80	15.774
434.16	15.420
434.51	16.165
434.86	15.347
435.22	15.367
435.57	15.699
435.92	14.675
436.28	15.255
436.63	16.100
436.98	15.988
437.34	16.507
437.69	15.494
438.04	15.024
438.39	16.841
438.75	15.692
439.10	17.083
439.45	16.881
439.81	15.810
440.16	17.130
440.51	15.799
440.86	17.551
441.22	16.319
441.57	16.923
441.92	17.228
442.27	17.200
442.63	18.002
442.98	18.521
443.33	18.096
443.68	17.582
444.03	17.474
444.39	17.179
444.74	17.401
445.09	17.828
445.44	16.851
445.79	18.501
446.15	17.609
446.50	17.640
446.85	17.712
447.20	17.396
447.55	17.394
447.91	17.813
448.26	18.694
448.61	17.644
448.96	17.800
449.31	18.385
449.66	17.312
450.02	17.041
450.37	18.287
450.72	17.175
451.07	17.996
451.42	18.775
451.77	17.087
452.12	18.296
452.47	17.886
452.83	18.742
453.18	18.974
453.53	19.203
453.88	19.081
454.23	19.233
454.58	18.995
454.93	18.392
455.28	19.416
455.63	18.583
455.98	18.401
456.34	18.352
456.69	18.077
457.04	18.898
457.39	18.851
457.74	19.469
458.09	18.606
458.44	19.620
458.79	18.021
459.14	18.187
459.49	19.236
459.84	18.966
460.19	19.762
460.54	17.992
460.89	19.059
461.24	18.961
461.59	18.927
461.94	18.803
462.29	18.358
462.64	19.081
462.99	19.869
463.34	18.828
463.69	20.096
464.04	19.436
464.39	19.035
464.74	19.014
465.09	18.457
465.44	19.856
465.79	19.254
466.14	18.317
466.49	19.512
466.84	18.980
467.19	19.363
467.54	18.833
467.89	20.052
468.24	19.318
468.59	19.830
468.94	19.435
469.29	20.900
469.64	20.715
469.99	19.178
470.34	19.802
470.68	19.923
471.03	19.416
471.38	19.970
471.73	20.930
472.08	21.281
472.43	20.332
472.78	20.160
473.13	20.211
473.48	20.539
473.83	21.268
474.17	19.947
474.52	20.831
474.87	20.770
475.22	20.267
475.57	20.564
475.92	21.092
476.27	20.494
476.61	21.040
476.96	20.451
477.31	20.662
477.66	21.034
478.01	19.894
478.36	21.318
478.70	21.746
479.05	20.546
479.40	19.790
479.75	21.761
480.10	21.104
480.45	20.524
480.79	20.861
481.14	21.191
481.49	21.542
481.84	21.414
482.19	20.683
482.53	21.373
482.88	20.895
483.23	20.854
483.58	21.040
483.92	21.407
484.27	21.152
484.62	21.264
484.97	20.870
485.31	20.147
485.66	20.858
486.01	19.844
486.36	20.087
486.70	20.483
487.05	20.527
487.40	20.668
487.75	20.756
488.09	20.238
488.44	20.403
488.79	20.910
489.13	20.698
489.48	21.334
489.83	21.267
490.17	21.472
490.52	20.650
490.87	21.711
491.22	22.091
491.56	21.887
491.91	21.436
492.26	21.775
492.60	22.245
492.95	22.228
493.30	22.112
493.64	21.755
493.99	22.331
494.34	21.896
494.68	22.101
495.03	21.095
495.37	21.946
495.72	21.466
496.07	21.400
496.41	20.998
496.76	21.394
497.11	21.812
497.45	23.305
497.80	22.222
498.14	22.334
498.49	22.477
498.84	22.484
499.18	21.796
499.53	22.949
499.87	22.734
500.22	22.909
500.56	23.182
500.91	24.017
501.26	23.045
501.60	22.630
501.95	23.388
502.29	23.448
502.64	23.096
502.98	22.867
503.33	23.315
503.67	22.767
504.02	23.340
504.36	23.677
504.71	23.085
505.06	23.246
505.40	23.432
505.75	22.907
506.09	23.348
506.44	24.034
506.78	23.126
507.13	24.213
507.47	24.321
507.82	24.163
508.16	24.944
508.51	24.726
508.85	24.670
509.19	24.465
509.54	24.419
509.88	24.914
510.23	24.326
510.57	24.361
510.92	25.340
511.26	25.158
511.61	24.829
511.95	25.853
512.30	24.986
512.64	25.865
512.98	25.871
513.33	25.029
513.67	25.030
514.02	25.421
514.36	26.216
514.70	26.958
515.05	26.524
515.39	27.039
515.74	25.313
516.08	25.424
516.42	27.098
516.77	28.137
517.11	26.361
517.46	28.545
517.80	27.951
518.14	28.210
518.49	28.137
518.83	27.497
519.17	28.342
519.52	27.983
519.86	28.626
520.20	28.535
520.55	28.329
520.89	28.745
521.23	29.459
521.58	29.563
521.92	28.905
522.26	30.378
522.61	30.375
522.95	29.041
523.29	28.273
523.64	27.815
523.98	30.444
524.32	30.101
524.66	30.048
525.01	29.485
525.35	30.164
525.69	30.557
526.04	31.078
526.38	29.472
526.72	29.722
527.06	29.958
527.41	30.262
527.75	29.648
528.09	29.066
528.43	29.979
528.78	31.097
529.12	29.932
529.46	29.302
529.80	29.816
530.15	31.272
530.49	29.847
530.83	30.513
531.17	30.508
531.51	30.407
531.86	30.812
532.20	30.447
532.54	31.079
532.88	30.764
533.22	30.460
533.57	31.241
533.91	30.764
534.25	30.007
534.59	30.605
534.93	30.356
535.27	30.572
535.62	30.722
535.96	29.867
536.30	30.898
536.64	29.971
536.98	30.752
537.32	31.696
537.66	31.232
538.01	30.118
538.35	31.055
538.69	29.512
539.03	31.002
539.37	29.576
539.71	31.232
540.05	31.404
540.39	30.065
540.73	31.209
541.07	31.176
541.42	30.862
541.76	30.935
542.10	30.416
542.44	31.358
542.78	29.839
543.12	30.108
543.46	32.116
543.80	30.522
544.14	32.043
544.48	30.526
544.82	30.376
545.16	31.522
545.50	31.295
545.84	31.748
546.18	31.311
546.52	32.437
546.86	30.069
547.20	32.273
547.54	30.705
547.88	31.054
548.22	29.887
548.56	31.712
548.90	29.474
549.24	31.360
549.58	31.371
549.92	30.376
550.26	31.506
550.60	31.721
550.94	30.714
551.28	30.650
551.62	31.368
551.96	30.831
552.30	31.318
552.64	30.503
552.98	30.386
553.32	30.076
553.66	31.108
554.00	31.274
554.34	31.406
554.68	30.861
555.02	30.635
555.36	30.421
555.69	30.976
556.03	31.116
556.37	31.808
556.71	30.468
557.05	29.844
557.39	31.888
557.73	30.975
558.07	31.299
558.41	30.726
558.75	31.618
559.08	32.000
559.42	31.187
559.76	30.750
560.10	32.518
560.44	30.325
560.78	31.405
561.12	30.879
561.45	31.622
561.79	30.250
562.13	30.615
562.47	29.205
562.81	30.099
563.15	30.570
563.48	30.562
563.82	30.568
564.16	29.536
564.50	31.232
564.84	30.687
565.17	31.187
565.51	30.542
565.85	30.493
566.19	30.619
566.52	30.968
566.86	31.421
567.20	29.474
567.54	30.377
567.88	29.976
568.21	29.132
568.55	29.428
568.89	28.736
569.23	28.313
569.56	29.379
569.90	27.966
570.24	29.078
570.57	28.179
570.91	28.275
571.25	29.029
571.59	28.131
571.92	27.597
572.26	26.628
572.60	27.806
572.93	27.832
573.27	26.574
573.61	27.236
573.95	26.874
574.28	26.455
574.62	26.343
574.96	26.780
575.29	26.407
575.63	26.288
575.97	26.278
576.30	26.605
576.64	26.378
576.98	26.167
577.31	26.264
577.65	26.456
577.98	26.358
578.32	26.046
578.66	25.865
578.99	26.272
579.33	26.362
579.67	26.474
580.00	26.713
580.34	26.741
580.67	26.577
581.01	25.928
581.35	26.189
581.68	26.049
582.02	25.890
582.35	26.115
582.69	25.909
583.02	25.939
583.36	26.084
583.70	26.046
584.03	26.238
584.37	26.691
584.70	26.979
585.04	26.218
585.37	26.553
585.71	26.737
586.04	26.256
586.38	26.587
586.72	26.994
587.05	26.797
587.39	26.471
587.72	27.091
588.06	26.661
588.39	26.614
588.73	26.327
589.06	26.392
589.40	27.209
589.73	26.963
590.07	26.636
590.40	27.165
590.73	27.572
591.07	27.100
591.40	27.684
591.74	27.192
592.07	27.459
592.41	27.366
592.74	27.652
593.08	26.747
593.41	26.500
593.75	27.300
594.08	26.922
594.41	27.280
594.75	26.938
595.08	27.074
595.42	26.399
595.75	26.856
596.09	26.421
596.42	27.484
596.75	27.818
597.09	26.539
597.42	26.466
597.75	26.782
598.09	27.434
598.42	26.266
598.76	26.730
599.09	26.765
599.42	25.728
599.76	26.677
600.09	26.849
600.42	25.234
600.76	25.905
601.09	26.392
601.42	26.449
601.76	27.029
602.09	25.974
602.42	26.400
602.76	26.571
603.09	26.632
603.42	27.300
603.76	26.983
604.09	27.235
604.42	26.921
604.76	26.518
605.09	26.216
605.42	26.588
605.75	25.720
606.09	26.267
606.42	26.159
606.75	26.465
607.09	26.493
607.42	26.067
607.75	25.803
608.08	27.081
608.42	26.431
608.75	26.413
609.08	25.846
609.41	26.542
609.75	26.540
610.08	26.150
610.41	26.616
610.74	27.250
611.07	26.230
611.41	25.910
611.74	27.040
612.07	26.674
612.40	26.908
612.73	26.562
613.07	26.248
613.40	26.970
613.73	25.200
614.06	26.112
614.39	27.475
614.72	25.915
615.06	26.980
615.39	25.231
615.72	25.588
616.05	26.319
616.38	26.928
616.71	25.746
617.05	25.754
617.38	25.935
617.71	26.584
618.04	27.135
618.37	26.357
618.70	26.359
619.03	26.613
619.36	26.804
619.69	25.739
620.03	26.316
620.36	27.513
620.69	26.386
621.02	26.207
621.35	27.064
621.68	27.273
622.01	26.916
622.34	25.377
622.67	26.476
623.00	26.536
623.33	26.929
623.66	26.693
623.99	26.635
624.32	25.814
624.65	25.703
624.99	25.391
625.32	26.935
625.65	26.501
625.98	27.333
626.31	26.494
626.64	26.577
626.97	27.482
627.30	27.315
627.63	26.698
627.96	26.536
628.29	26.482
628.62	26.907
628.95	27.455
629.28	26.860
629.61	27.377
629.94	28.423
630.26	27.301
630.59	28.168
630.92	26.344
631.25	26.257
631.58	27.442
631.91	27.335
632.24	28.402
632.57	28.537
632.90	28.659
633.23	28.258
633.56	27.673
633.89	27.045
634.22	27.564
634.55	26.938
634.88	28.246
635.20	27.671
635.53	27.654
635.86	29.755
636.19	25.921
636.52	28.032
636.85	27.119
637.18	27.979
637.51	27.236
637.83	27.374
638.16	27.027
638.49	28.818
638.82	28.129
639.15	26.429
639.48	26.055
639.81	27.124
640.13	28.484
640.46	30.236
640.79	24.341
641.12	28.837
641.45	26.750
641.77	26.911
642.10	29.316
642.43	28.956
642.76	30.645
643.09	27.509
643.41	27.599
643.74	28.993
644.07	28.571
644.40	29.964
644.73	26.703
645.05	26.336
645.38	27.500
645.71	30.344
646.04	29.182
646.36	26.515
646.69	28.046
647.02	32.812
647.35	28.600
647.67	32.866
648.00	29.903
648.33	26.782
648.66	27.829
648.98	28.644
649.31	29.260
649.64	27.539
649.96	27.365
650.29	25.310
650.62	28.386
650.94	26.987
651.27	28.131
651.60	26.386
651.92	25.954
652.25	25.430
652.58	26.750
652.90	25.801
653.23	25.777
653.56	26.563
653.88	26.642
654.21	27.032
654.54	27.580
654.86	28.417
655.19	25.806
655.52	25.835
655.84	21.633
656.17	21.344
656.49	29.171
656.82	33.887
657.15	27.321
657.47	20.424
657.80	15.219
658.13	12.298
658.45	21.059
658.78	20.416
659.10	20.727
659.43	21.123
659.75	20.887
660.08	21.298
660.41	22.211
660.73	24.238
661.06	24.909
661.38	27.218
661.71	24.289
662.03	27.083
662.36	27.446
662.68	26.619
663.01	28.125
663.33	29.953
663.66	27.033
663.98	28.117
664.31	29.268
664.63	23.624
664.96	27.553
665.28	25.296
665.61	25.701
665.93	27.880
666.26	26.490
666.58	27.294
666.91	26.698
667.23	24.384
667.56	28.148
667.88	25.313
668.21	27.411
668.53	24.873
668.86	27.041
669.18	23.096
669.50	26.992
669.83	23.750
670.15	26.250
670.48	26.817
670.80	27.919
671.13	27.470
671.45	23.724
671.77	28.261
672.10	24.396
672.42	25.100
672.75	23.301
673.07	26.168
673.39	24.903
673.72	25.826
674.04	27.021
674.37	26.328
674.69	26.402
675.01	26.047
675.34	25.000
675.66	25.476
675.98	22.475
676.31	25.693
676.63	23.454
676.95	24.221
677.28	24.257
677.60	26.065
677.92	24.311
678.25	22.042
678.57	23.202
678.89	25.229
679.22	23.624
679.54	24.944
679.86	22.912
680.18	24.059
680.51	22.998
680.83	24.583
681.15	23.747
681.48	23.404
681.80	25.000
682.12	26.124
682.44	21.336
682.77	26.364
683.09	21.814
683.41	26.566
683.73	23.367
684.06	22.843
684.38	24.221
684.70	25.404
685.02	23.160
685.34	19.874
685.67	21.937
685.99	23.553
686.31	23.507
686.63	20.777
686.96	22.561
687.28	24.435
687.60	22.587
687.92	22.574
688.24	23.789
688.56	23.077
688.89	22.603
689.21	20.000
689.53	23.274
689.85	22.025
690.17	23.529
690.49	25.412
690.82	24.079
691.14	24.021
691.46	21.000
691.78	22.967
692.10	24.541
692.42	22.248
692.74	22.986
693.06	24.096
693.39	21.182
693.71	22.558
694.03	22.222
694.35	20.545
694.67	23.919
694.99	22.642
695.31	22.663
695.63	21.892
695.95	22.472
696.27	24.646
696.59	23.442
696.91	22.222
697.23	22.350
697.56	20.207
697.88	20.375
698.20	23.245
698.52	21.635
698.84	23.058
699.16	22.427
699.48	22.513
699.80	21.703
700.12	22.590
700.44	18.879
700.76	22.397
701.08	17.143
701.40	25.658
701.72	23.000
702.04	25.510
702.36	19.016
702.68	22.819
703.00	21.767
703.32	20.359
703.64	19.558
703.96	23.418
704.28	21.127
704.60	22.603
704.91	19.408
705.23	20.351
705.55	21.190
705.87	24.101
706.19	21.912
706.51	22.266
706.83	26.007
707.15	20.678
707.47	20.659
707.79	20.917
708.11	20.899
708.43	20.533
708.74	19.672
709.06	22.393
709.38	19.288
709.70	20.130
710.02	22.378
710.34	17.376
710.66	22.097
710.98	19.580
711.29	19.931
711.61	23.404
711.93	25.094
712.25	16.981
712.57	20.313
712.89	20.816
713.20	22.984
713.52	17.073
713.84	20.803
714.16	20.946
714.48	23.549
714.80	19.192
715.11	20.275
715.43	19.795
715.75	19.298
716.07	22.545
716.39	23.891
716.70	20.800
717.02	21.371
717.34	26.407
717.66	20.000
717.97	19.444
718.29	21.778
718.61	19.369
718.93	23.950
719.24	21.339
719.56	18.304
719.88	16.078
720.20	20.085
720.51	19.737
720.83	21.339
721.15	19.592
721.46	18.987
721.78	19.481
722.10	18.992
722.42	18.696
722.73	14.027
723.05	21.198
723.37	19.457
723.68	19.905
724.00	24.537
724.32	20.093
724.63	19.910
724.95	19.635
725.27	23.474
725.58	21.005
725.90	12.613
726.22	15.721
726.53	23.770
726.85	18.148
727.16	21.053
727.48	20.968
727.80	15.982
728.11	17.778
728.43	20.576
728.74	19.298
729.06	26.201
729.38	17.829
729.69	16.400
730.01	19.247
730.32	16.733
730.64	24.615
730.96	18.533
731.27	13.900
731.59	16.162
731.90	16.118
732.22	21.595
732.53	18.246
732.85	13.028
733.16	23.077
733.48	14.552
733.80	19.636
734.11	20.213
734.43	16.606
734.74	19.003
735.06	18.971
735.37	15.016
735.69	12.324
736.00	18.889
736.32	17.483
736.63	17.778
736.95	14.008
737.26	16.304
737.58	17.518
737.89	18.868
738.21	18.702
738.52	23.770
738.83	14.103
739.15	20.000
739.46	15.766
739.78	17.761
740.09	17.063
740.41	21.970
740.72	15.139
741.04	16.996
741.35	18.834
741.66	22.581
741.98	14.286
742.29	19.171
742.61	9.249
742.92	18.137
743.23	23.881
743.55	24.352
743.86	21.739
744.18	17.500
744.49	18.333
744.80	22.043
745.12	14.872
745.43	17.647
745.74	12.299
746.06	18.966
746.37	17.778
746.68	18.378
747.00	5.525
747.31	17.801
747.62	15.263
747.94	22.642
748.25	21.182
748.56	24.242
748.88	19.672
749.19	23.834
749.50	21.765
749.82	20.500
750.13	16.019
750.44	16.309
750.75	20.800
751.07	18.828
751.38	14.453
751.69	19.048
752.01	15.126
752.32	15.702
752.63	13.974
752.94	17.200
753.26	16.895
753.57	15.640
753.88	7.442
754.19	12.335
754.51	14.644
754.82	16.250
755.13	11.947
755.44	16.883
755.75	14.859
756.07	18.455
756.38	19.247
756.69	23.019
757.00	15.603
757.31	17.993
757.63	15.686
757.94	14.545
758.25	15.179
758.56	16.216
758.87	16.667
759.18	22.741
759.50	15.658
759.81	17.375
760.12	17.082
760.43	16.279
760.74	15.269
761.05	15.705
761.36	16.914
761.67	18.237
761.99	17.391
762.30	18.182
762.61	19.919
762.92	15.111
763.23	15.814
763.54	18.274
763.85	18.100
764.16	13.913
764.47	15.217
764.78	14.919
765.10	17.323
765.41	17.391
765.72	16.388
766.03	15.385
766.34	18.561
766.65	16.797
766.96	16.889
767.27	20.670
767.58	20.755
767.89	22.727
768.20	17.568
768.51	20.115
768.82	14.375
769.13	18.981
769.44	12.736
769.75	11.275
770.06	12.621
770.37	16.489
770.68	11.282
770.99	16.751
771.30	17.526
771.61	9.865
771.92	15.094
772.23	16.346
772.54	19.412
772.85	12.329
773.16	12.903
773.47	12.739
773.78	20.359
774.09	17.105
774.39	13.971
774.70	19.549
775.01	10.769
775.32	8.730
775.63	18.898
775.94	12.264
776.25	17.037
776.56	17.273
776.87	20.513
777.18	17.000
777.48	5.769
777.79	6.481
778.10	9.434
778.41	17.647
778.72	14.151
779.03	12.281
779.34	10.084
779.65	9.155
779.95	16.547
780.26	3.226
780.57	10.870
780.88	13.761
781.19	5.556
781.50	0.820
781.80	16.058
782.11	9.615
782.42	7.586
782.73	17.483
783.04	8.000
783.34	8.800
783.65	19.512
783.96	12.295
784.27	10.924
784.57	11.215
784.88	16.071
785.19	20.619
785.50	20.000
785.81	12.000
786.11	10.891
786.42	-5.882
786.73	26.042
787.04	6.122
787.34	20.370
787.65	25.472
787.96	-3.093
788.26	2.970
788.57	11.304
788.88	-5.505
789.19	0.000
789.49	7.826
789.80	14.655
790.11	3.659
790.41	10.112
790.72	-5.814
791.03	9.302
791.33	-3.896
791.64	15.854
791.95	12.195
792.25	7.229
792.56	11.111
792.87	-1.408
793.17	24.096
793.48	10.588
793.79	18.750
794.09	0.000
794.40	10.870
794.70	8.696
795.01	5.505
795.32	11.811
795.62	5.882
795.93	13.725
796.23	6.061
796.54	1.163
796.85	5.797
797.15	10.938
797.46	-1.695
797.76	1.639
798.07	6.579
798.37	4.839
798.68	0.000
798.99	13.846
799.29	1.515
799.60	18.841
799.90	7.143
800.21	-19.298
800.51	0.000
800.82	15.094
801.12	13.725
801.43	19.355
801.73	24.194
802.04	6.000
802.34	1.887
802.65	10.526
802.95	14.545
803.26	-1.887
803.56	4.918
803.87	-8.000
804.17	0.000
804.48	15.385
804.78	-8.163
805.09	19.149
805.39	18.644
805.70	-16.667
806.00	-7.143
806.30	11.864
806.61	9.231
806.91	-6.154
807.22	6.579
807.52	15.714
807.83	5.172
808.13	11.392
808.43	0.000
808.74	16.393
809.04	4.054
809.35	24.074
809.65	0.000
809.95	22.034
810.26	6.122
810.56	7.547
810.86	15.686
811.17	35.135
811.47	-37.037
811.77	-1.961
812.08	-11.364
812.38	-8.333
812.69	-28.205
812.99	7.143
813.29	39.130
813.59	14.286
813.90	21.429
814.20	14.545
814.50	8.163
814.81	1.961
815.11	16.667
815.41	-7.317
815.72	-23.077
816.02	36.170
816.32	25.000
816.62	6.061
816.93	-3.030
817.23	-10.811
817.53	-2.941
817.84	40.000
818.14	-5.882
818.44	21.875
818.74	-14.286
819.04	-17.143
819.35	2.857
819.65	13.636
819.95	7.692
820.25	-27.778
820.56	-37.931
820.86	-7.143
821.16	-73.913
821.46	16.667
821.76	5.556
822.07	8.696
822.37	-2.041
822.67	-18.605
822.97	13.043
823.27	-19.231
823.57	-48.148
823.88	-17.857
824.18	0.000
824.48	-17.857
824.78	9.091
825.08	-13.333
825.38	22.500
825.69	-111.111
825.99	-7.407
826.29	28.889
826.59	-29.630
826.89	3.704
827.19	-21.429
827.49	-18.182
827.79	-68.182
828.09	31.818
828.39	-8.696
828.70	-18.519
829.00	-25.000
829.30	11.905
829.60	16.129
829.90	42.308
830.20	-23.077
830.50	-36.364
830.80	-23.810
831.10	-61.111
831.40	-64.286
831.70	-22.222
832.00	17.647
832.30	47.826
832.60	29.167
832.90	-63.636
833.20	-77.778
833.50	25.000
833.80	15.385
834.10	8.000
834.40	-8.333
834.70	9.091
835.00	3.846
835.30	15.000
835.60	-110.000
835.90	-10.000
836.20	-42.857
836.50	4.348
836.80	-27.778
837.10	20.000
837.40	-180.000
837.70	-4.348
838.00	14.286
838.30	1400.000
838.60	36.000
838.90	-300.000
839.19	-100.000
839.49	-400.000
839.79	0.000
840.09	-133.333
840.39	21.429
840.69	-100.000
840.99	-50.000
841.29	-44.828
841.59	-33.333
841.88	-27.273
842.18	-250.000
842.48	31.250
842.78	34.615
843.08	-5.882
843.38	-30.000
843.68	-7.692
843.97	-41.176
844.27	-40.000
844.57	-25.000
844.87	-18.182
845.17	-42.105
845.47	-11.111
845.76	0.000
846.06	-61.905
846.36	-57.143
846.66	-66.667
846.96	-15.000
847.25	-20.000
847.55	-62.500
847.85	-26.667
848.15	-250.000
848.44	42.105
848.74	13.333
849.04	10.526
849.34	-233.333
849.63	-100.000
849.93	23.529
850.23	-54.545
850.53	166.667
850.82	-20.000
851.12	-44.444
851.42	14.286
851.71	20.000
852.01	7.143
852.31	-200.000
852.61	7.692
852.90	-120.000
853.20	-77.778
853.50	-44.444
853.79	-20.000
854.09	-40.000
854.39	-36.842
854.68	0.000
854.98	-275.000
855.28	-22.222
855.57	-92.857
855.87	5.263
856.17	-31.250
856.46	-7.692
856.76	13.333
857.05	-93.750
857.35	29.167
857.65	33.333
857.94	-137.500
858.24	-39.130
858.53	-90.000
858.83	-66.667
859.13	-172.727
859.42	-170.000
859.72	150.000
860.01	38.462
860.31	-170.000
860.60	-300.000
860.90	-325.000
861.20	16.667
861.49	75.000
861.79	250.000
862.08	22.581
862.38	10.526
862.67	0.000
862.97	-30.000
863.26	-8.333
863.56	-26.087
863.85	-233.333
864.15	-78.571
864.44	0.000
864.74	-116.667
865.03	-77.778
865.33	-33.333
865.62	-2100.000
865.92	-500.000
866.21	-250.000
866.51	-54.545
866.80	-566.667
867.10	-28.571
867.39	-66.667
867.69	-66.667
867.98	40.000
868.27	-400.000
868.57	325.000
868.86	-33.333
869.16	7.692
869.45	1050.000
869.75	-166.667
870.04	-108.333
870.33	41.176
870.63	-85.714
870.92	65.217
871.22	-37.500
871.51	600.000
871.80	-6.250
872.10	-500.000
>>>>>End Processed Spectral Data<<<<<
