SpectraSuite Data File
++++++++++++++++++++++++++++++++++++
Date: Tue May 12 19:40:40 PDT 2015
User: schluterlab
Dark Spectrum Present: Yes
Reference Spectrum Present: Yes
Number of Sampled Component Spectra: 1
Spectrometers: USB2E3373
Integration Time (usec): 3000 (USB2E3373)
Spectra Averaged: 3 (USB2E3373)
Boxcar Smoothing: 0 (USB2E3373)
Correct for Electrical Dark: No (USB2E3373)
Strobe/Lamp Enabled: No (USB2E3373)
Correct for Detector Non-linearity: No (USB2E3373)
Correct for Stray Light: No (USB2E3373)
Number of Pixels in Processed Spectrum: 2048
>>>>>Begin Processed Spectral Data<<<<<
178.53	0.000
178.91	10.000
179.29	-33.333
179.67	233.333
180.04	0.000
180.42	-40.000
180.80	-400.000
181.18	1100.000
181.56	-200.000
181.94	183.333
182.31	600.000
182.69	28.571
183.07	0.000
183.45	208.333
183.83	180.000
184.20	150.000
184.58	650.000
184.96	133.333
185.34	-400.000
185.72	14.286
186.09	-50.000
186.47	-900.000
186.85	140.000
187.23	158.333
187.61	-128.571
187.98	-340.000
188.36	200.000
188.74	-350.000
189.12	-122.222
189.49	-50.000
189.87	225.000
190.25	77.778
190.63	133.333
191.00	60.000
191.38	-166.667
191.76	320.000
192.14	-85.714
192.51	-60.000
192.89	20.000
193.27	-100.000
193.65	-366.667
194.02	-50.000
194.40	200.000
194.78	-112.500
195.15	-114.286
195.53	300.000
195.91	60.000
196.29	-200.000
196.66	-300.000
197.04	-142.857
197.42	100.000
197.79	-87.500
198.17	0.000
198.55	-100.000
198.92	-200.000
199.30	450.000
199.68	-150.000
200.05	-650.000
200.43	-11.111
200.81	-133.333
201.18	216.667
201.56	0.000
201.94	-1900.000
202.31	-25.000
202.69	-22.222
203.07	-83.333
203.44	-350.000
203.82	0.000
204.19	162.500
204.57	-300.000
204.95	72.727
205.32	120.000
205.70	325.000
206.08	0.000
206.45	20.000
206.83	1400.000
207.20	-200.000
207.58	-30.769
207.96	133.333
208.33	700.000
208.71	400.000
209.08	1000.000
209.46	-55.556
209.84	466.667
210.21	-300.000
210.59	-100.000
210.96	155.556
211.34	-225.000
211.71	1000.000
212.09	120.000
212.46	-100.000
212.84	-100.000
213.22	114.286
213.59	-62.500
213.97	0.000
214.34	-500.000
214.72	-700.000
215.09	450.000
215.47	33.333
215.84	-12.500
216.22	-1300.000
216.59	900.000
216.97	-41.667
217.34	16.667
217.72	61.111
218.09	100.000
218.47	31.579
218.84	-187.500
219.22	-21.429
219.59	-90.000
219.97	-20.000
220.34	16.667
220.72	109.091
221.09	-300.000
221.47	0.000
221.84	550.000
222.22	-300.000
222.59	-175.000
222.97	17.391
223.34	86.667
223.72	314.286
224.09	-66.667
224.46	115.385
224.84	-33.333
225.21	50.000
225.59	-375.000
225.96	55.000
226.34	266.667
226.71	250.000
227.08	-53.846
227.46	-114.286
227.83	-41.667
228.21	-750.000
228.58	216.667
228.95	5.263
229.33	-37.500
229.70	-100.000
230.08	0.000
230.45	-500.000
230.82	-900.000
231.20	33.333
231.57	-160.000
231.95	-433.333
232.32	177.778
232.69	-500.000
233.07	-43.750
233.44	-62.500
233.81	6.452
234.19	-120.000
234.56	-5.556
234.93	-266.667
235.31	33.333
235.68	-25.926
236.05	-11.538
236.43	-5.263
236.80	-27.273
237.17	-114.286
237.55	-40.000
237.92	4.651
238.29	-9.677
238.67	-17.857
239.04	-8.571
239.41	-15.686
239.79	2.000
240.16	7.500
240.53	-13.793
240.91	-13.699
241.28	-25.352
241.65	3.125
242.02	-24.561
242.40	-12.000
242.77	-1.053
243.14	9.412
243.51	-8.602
243.89	-13.333
244.26	-2.778
244.63	-17.347
245.00	-9.821
245.38	-7.563
245.75	-14.407
246.12	8.594
246.49	-8.800
246.87	-8.197
247.24	-16.197
247.61	-5.960
247.98	-0.562
248.36	-6.918
248.73	-4.545
249.10	-2.222
249.47	0.521
249.84	-9.645
250.22	-6.771
250.59	-6.742
250.96	-1.364
251.33	3.774
251.70	-2.294
252.08	1.732
252.45	0.000
252.82	-5.485
253.19	-2.335
253.56	0.784
253.94	-1.626
254.31	2.878
254.68	-4.861
255.05	-1.656
255.42	-2.909
255.79	1.325
256.16	-6.250
256.54	2.121
256.91	2.564
257.28	2.273
257.65	-4.590
258.02	0.000
258.39	3.021
258.76	-2.752
259.14	-4.118
259.51	5.352
259.88	1.153
260.25	-3.409
260.62	-1.404
260.99	1.671
261.36	-3.161
261.73	1.067
262.10	-0.272
262.47	0.551
262.85	1.285
263.22	-3.226
263.59	1.609
263.96	-1.828
264.33	-5.391
264.70	-2.457
265.07	-0.739
265.44	0.000
265.81	1.205
266.18	-0.703
266.55	-1.905
266.92	3.125
267.29	-2.222
267.66	-4.773
268.03	0.860
268.40	0.229
268.77	-2.004
269.14	-0.630
269.51	-3.394
269.88	-1.282
270.25	-0.844
270.62	-0.420
270.99	-0.211
271.36	-3.091
271.73	1.250
272.10	1.867
272.47	-1.400
272.84	-3.822
273.21	-1.879
273.58	-1.224
273.95	1.195
274.32	0.967
274.69	-0.587
275.06	-1.126
275.43	-3.000
275.80	-0.382
276.17	-2.767
276.54	1.521
276.91	0.384
277.28	-0.387
277.65	-0.378
278.02	0.189
278.39	-0.363
278.76	1.304
279.13	0.179
279.50	0.181
279.87	-0.755
280.23	-1.275
280.60	-0.177
280.97	0.351
281.34	0.169
281.71	-1.776
282.08	-0.894
282.45	-1.411
282.82	-1.010
283.19	0.337
283.56	0.341
283.92	-0.474
284.29	-0.169
284.66	-1.770
285.03	-3.087
285.40	0.500
285.77	1.314
286.14	-0.317
286.51	-0.161
286.87	0.324
287.24	-3.365
287.61	-0.154
287.98	1.878
288.35	-0.465
288.72	2.446
289.08	-2.201
289.45	-0.156
289.82	-0.311
290.19	1.061
290.56	0.579
290.93	1.329
291.29	0.426
291.66	0.281
292.03	1.435
292.40	0.863
292.77	0.146
293.13	-0.294
293.50	-0.138
293.87	-0.277
294.24	0.562
294.60	0.820
294.97	0.000
295.34	-0.137
295.71	-0.555
296.08	0.273
296.44	0.395
296.81	-0.647
297.18	0.259
297.55	-1.256
297.91	-1.396
298.28	-0.128
298.65	0.129
299.02	0.740
299.38	-1.403
299.75	0.000
300.12	-0.120
300.48	1.056
300.85	-0.489
301.22	0.361
301.59	1.095
301.95	1.220
302.32	-1.580
302.69	-1.308
303.05	0.472
303.42	-0.604
303.79	-1.011
304.15	0.566
304.52	-0.782
304.89	-0.676
305.25	0.917
305.62	-0.114
305.99	-1.120
306.35	-0.783
306.72	1.198
307.09	0.326
307.45	-0.216
307.82	1.067
308.19	0.330
308.55	1.371
308.92	0.636
309.29	-0.314
309.65	-0.619
310.02	0.105
310.38	0.426
310.75	-0.307
311.12	0.509
311.48	1.439
311.85	0.811
312.22	0.103
312.58	0.201
312.95	0.924
313.31	0.492
313.68	0.099
314.05	1.192
314.41	-0.196
314.78	-1.106
315.14	0.588
315.51	1.291
315.87	1.465
316.24	1.385
316.61	1.165
316.97	0.490
317.34	0.287
317.70	0.373
318.07	0.675
318.43	1.229
318.80	0.638
319.16	-0.186
319.53	0.660
319.89	1.042
320.26	0.885
320.62	1.938
320.99	2.959
321.35	1.779
321.72	1.616
322.08	1.881
322.45	1.479
322.81	1.182
323.18	1.534
323.54	1.991
323.91	2.087
324.27	0.771
324.64	0.750
325.00	0.637
325.37	1.619
325.73	0.456
326.10	0.350
326.46	0.725
326.83	1.319
327.19	1.310
327.56	2.299
327.92	1.128
328.29	1.613
328.65	1.789
329.01	1.835
329.38	2.479
329.74	1.393
330.11	1.025
330.47	1.955
330.84	1.410
331.20	1.386
331.56	1.132
331.93	0.549
332.29	0.833
332.66	1.627
333.02	1.764
333.38	1.562
333.75	0.640
334.11	0.904
334.48	1.342
334.84	0.563
335.20	0.179
335.57	1.272
335.93	1.674
336.29	1.188
336.66	2.368
337.02	1.904
337.38	1.321
337.75	0.818
338.11	2.552
338.47	1.393
338.84	0.921
339.20	2.383
339.56	0.373
339.93	2.162
340.29	1.541
340.65	1.370
341.02	0.974
341.38	1.853
341.74	2.135
342.11	1.326
342.47	1.311
342.83	1.301
343.20	2.034
343.56	0.787
343.92	1.575
344.28	0.772
344.65	1.284
345.01	1.394
345.37	2.051
345.73	1.378
346.10	2.247
346.46	1.294
346.82	2.124
347.19	2.691
347.55	2.296
347.91	1.147
348.27	2.612
348.63	2.161
349.00	2.588
349.36	3.050
349.72	2.709
350.08	2.700
350.45	2.766
350.81	2.230
351.17	2.636
351.53	3.623
351.89	1.468
352.26	1.301
352.62	2.371
352.98	2.510
353.34	2.757
353.70	0.988
354.07	2.883
354.43	1.669
354.79	2.049
355.15	1.856
355.51	2.608
355.87	3.247
356.24	3.676
356.60	3.255
356.96	2.370
357.32	3.457
357.68	3.341
358.04	1.945
358.40	2.373
358.77	2.490
359.13	2.972
359.49	2.400
359.85	3.197
360.21	2.696
360.57	1.834
360.93	2.454
361.29	2.570
361.66	1.814
362.02	2.512
362.38	3.186
362.74	2.306
363.10	3.167
363.46	2.784
363.82	2.603
364.18	3.028
364.54	2.901
364.90	2.444
365.26	3.130
365.62	2.044
365.98	3.298
366.35	3.177
366.71	3.585
367.07	3.616
367.43	2.455
367.79	2.398
368.15	2.817
368.51	2.846
368.87	2.570
369.23	2.422
369.59	3.235
369.95	1.863
370.31	2.879
370.67	3.609
371.03	2.632
371.39	3.852
371.75	3.343
372.11	2.519
372.47	2.747
372.83	3.433
373.19	3.539
373.55	2.695
373.91	2.576
374.27	2.870
374.63	3.461
374.99	1.537
375.35	2.830
375.71	3.013
376.07	3.180
376.42	2.835
376.78	2.300
377.14	3.631
377.50	3.078
377.86	3.412
378.22	3.633
378.58	3.553
378.94	3.209
379.30	3.218
379.66	3.137
380.02	2.988
380.38	2.926
380.74	4.475
381.09	3.113
381.45	2.984
381.81	3.253
382.17	3.779
382.53	4.011
382.89	2.694
383.25	3.551
383.61	2.352
383.97	3.899
384.32	3.290
384.68	3.768
385.04	2.546
385.40	3.770
385.76	3.985
386.12	3.036
386.48	3.653
386.83	4.147
387.19	3.640
387.55	2.526
387.91	3.551
388.27	3.455
388.62	3.174
388.98	3.817
389.34	3.448
389.70	3.333
390.06	3.498
390.42	3.516
390.77	4.158
391.13	4.034
391.49	3.841
391.85	3.327
392.20	3.894
392.56	3.078
392.92	3.649
393.28	4.608
393.64	3.167
393.99	3.247
394.35	3.569
394.71	4.238
395.07	4.576
395.42	3.873
395.78	3.159
396.14	3.398
396.50	4.528
396.85	3.900
397.21	3.816
397.57	4.147
397.92	4.071
398.28	4.017
398.64	3.746
399.00	4.411
399.35	4.279
399.71	4.251
400.07	4.694
400.42	4.872
400.78	4.543
401.14	4.924
401.49	3.998
401.85	4.317
402.21	4.886
402.57	3.863
402.92	4.449
403.28	4.291
403.63	4.872
403.99	3.699
404.35	4.968
404.70	4.370
405.06	4.402
405.42	4.684
405.77	4.697
406.13	4.182
406.49	4.101
406.84	5.293
407.20	4.709
407.55	5.010
407.91	4.545
408.27	5.519
408.62	4.373
408.98	5.727
409.34	5.186
409.69	4.749
410.05	4.987
410.40	4.110
410.76	5.542
411.11	4.977
411.47	5.374
411.83	5.538
412.18	5.366
412.54	5.369
412.89	4.922
413.25	5.329
413.60	6.059
413.96	5.566
414.31	5.099
414.67	7.022
415.03	5.809
415.38	6.058
415.74	5.910
416.09	5.582
416.45	5.662
416.80	4.729
417.16	5.571
417.51	6.662
417.87	6.703
418.22	6.684
418.58	6.220
418.93	6.125
419.29	5.767
419.64	5.701
420.00	6.942
420.35	6.591
420.71	6.146
421.06	6.360
421.42	6.085
421.77	7.065
422.12	6.438
422.48	6.910
422.83	6.869
423.19	7.706
423.54	6.414
423.90	6.428
424.25	6.888
424.61	6.839
424.96	7.371
425.31	7.246
425.67	7.515
426.02	6.273
426.38	6.371
426.73	7.040
427.09	6.632
427.44	7.531
427.79	7.921
428.15	6.595
428.50	7.977
428.85	7.184
429.21	8.548
429.56	7.459
429.92	6.977
430.27	6.773
430.62	7.247
430.98	8.060
431.33	7.898
431.68	7.385
432.04	7.825
432.39	8.021
432.74	8.096
433.10	7.762
433.45	7.410
433.80	8.393
434.16	8.458
434.51	8.528
434.86	7.492
435.22	7.916
435.57	8.773
435.92	6.687
436.28	7.285
436.63	8.289
436.98	8.333
437.34	8.317
437.69	7.778
438.04	7.812
438.39	8.094
438.75	8.492
439.10	8.988
439.45	9.820
439.81	8.063
440.16	8.287
440.51	8.364
440.86	8.460
441.22	8.874
441.57	9.117
441.92	9.056
442.27	8.743
442.63	8.239
442.98	9.046
443.33	9.166
443.68	8.486
444.03	8.557
444.39	8.589
444.74	8.014
445.09	8.914
445.44	9.096
445.79	9.655
446.15	9.096
446.50	8.907
446.85	9.351
447.20	9.464
447.55	9.017
447.91	9.935
448.26	9.199
448.61	9.305
448.96	8.575
449.31	9.584
449.66	8.838
450.02	8.462
450.37	9.113
450.72	8.977
451.07	9.624
451.42	10.211
451.77	8.890
452.12	9.148
452.47	9.688
452.83	9.838
453.18	9.858
453.53	9.471
453.88	10.019
454.23	10.160
454.58	10.117
454.93	8.787
455.28	9.165
455.63	9.682
455.98	9.708
456.34	9.712
456.69	9.817
457.04	9.777
457.39	9.488
457.74	9.861
458.09	10.579
458.44	9.933
458.79	8.834
459.14	10.793
459.49	9.745
459.84	10.404
460.19	9.381
460.54	10.227
460.89	10.059
461.24	10.584
461.59	10.789
461.94	9.599
462.29	10.150
462.64	9.819
462.99	8.774
463.34	10.183
463.69	10.562
464.04	10.071
464.39	9.518
464.74	10.188
465.09	10.997
465.44	10.438
465.79	9.868
466.14	9.905
466.49	9.816
466.84	10.135
467.19	10.396
467.54	10.279
467.89	10.647
468.24	10.038
468.59	10.537
468.94	9.953
469.29	10.519
469.64	10.941
469.99	9.589
470.34	10.679
470.68	10.692
471.03	10.219
471.38	9.873
471.73	10.828
472.08	10.249
472.43	11.203
472.78	10.080
473.13	11.439
473.48	10.443
473.83	11.096
474.17	10.340
474.52	10.717
474.87	10.859
475.22	10.991
475.57	10.811
475.92	10.574
476.27	11.151
476.61	11.584
476.96	10.729
477.31	11.187
477.66	10.750
478.01	10.065
478.36	10.946
478.70	11.662
479.05	10.795
479.40	11.111
479.75	12.227
480.10	11.472
480.45	11.571
480.79	11.780
481.14	10.754
481.49	11.517
481.84	10.404
482.19	11.220
482.53	11.225
482.88	10.625
483.23	11.055
483.58	11.089
483.92	11.508
484.27	11.762
484.62	11.975
484.97	11.292
485.31	11.330
485.66	11.154
486.01	10.560
486.36	10.653
486.70	10.888
487.05	11.035
487.40	11.367
487.75	10.965
488.09	11.310
488.44	10.785
488.79	12.041
489.13	11.222
489.48	11.440
489.83	11.512
490.17	11.580
490.52	11.329
490.87	12.315
491.22	11.538
491.56	11.413
491.91	10.843
492.26	11.831
492.60	12.092
492.95	11.345
493.30	11.709
493.64	11.714
493.99	11.858
494.34	11.860
494.68	11.001
495.03	10.953
495.37	11.860
495.72	11.920
496.07	12.120
496.41	10.573
496.76	11.414
497.11	11.521
497.45	12.104
497.80	11.734
498.14	11.563
498.49	11.692
498.84	11.164
499.18	12.299
499.53	12.928
499.87	11.623
500.22	12.052
500.56	12.297
500.91	12.218
501.26	11.759
501.60	12.589
501.95	12.180
502.29	12.673
502.64	12.344
502.98	11.762
503.33	12.282
503.67	12.251
504.02	11.798
504.36	12.224
504.71	12.553
505.06	12.159
505.40	13.083
505.75	12.796
506.09	12.568
506.44	12.661
506.78	11.991
507.13	13.029
507.47	13.296
507.82	12.891
508.16	12.528
508.51	13.293
508.85	12.692
509.19	12.397
509.54	12.408
509.88	12.601
510.23	12.809
510.57	12.209
510.92	13.379
511.26	12.694
511.61	13.299
511.95	13.707
512.30	13.391
512.64	13.607
512.98	13.467
513.33	12.778
513.67	12.335
514.02	13.341
514.36	13.879
514.70	14.511
515.05	14.268
515.39	15.056
515.74	14.286
516.08	13.936
516.42	14.730
516.77	14.410
517.11	14.557
517.46	14.678
517.80	13.976
518.14	14.801
518.49	15.201
518.83	15.240
519.17	14.332
519.52	14.866
519.86	15.199
520.20	14.331
520.55	15.796
520.89	16.464
521.23	15.498
521.58	15.675
521.92	15.087
522.26	15.395
522.61	16.246
522.95	15.959
523.29	15.452
523.64	16.011
523.98	15.927
524.32	17.172
524.66	16.044
525.01	16.564
525.35	15.595
525.69	16.999
526.04	16.913
526.38	15.764
526.72	16.458
527.06	17.229
527.41	15.946
527.75	17.444
528.09	16.407
528.43	17.151
528.78	17.051
529.12	16.644
529.46	17.076
529.80	16.542
530.15	17.582
530.49	16.597
530.83	16.992
531.17	17.020
531.51	17.416
531.86	18.137
532.20	16.739
532.54	17.626
532.88	16.800
533.22	16.810
533.57	17.448
533.91	16.999
534.25	16.904
534.59	16.850
534.93	17.529
535.27	17.104
535.62	17.286
535.96	17.306
536.30	17.189
536.64	17.525
536.98	18.289
537.32	17.560
537.66	18.109
538.01	18.115
538.35	18.691
538.69	17.268
539.03	18.241
539.37	17.444
539.71	17.754
540.05	17.656
540.39	17.938
540.73	18.901
541.07	18.456
541.42	18.674
541.76	18.058
542.10	18.795
542.44	18.714
542.78	17.815
543.12	16.895
543.46	18.033
543.80	18.156
544.14	17.993
544.48	18.246
544.82	17.388
545.16	18.768
545.50	18.705
545.84	19.093
546.18	18.502
546.52	17.909
546.86	18.210
547.20	18.409
547.54	18.044
547.88	18.661
548.22	17.581
548.56	18.252
548.90	17.825
549.24	17.836
549.58	18.852
549.92	19.173
550.26	19.614
550.60	18.953
550.94	19.206
551.28	18.537
551.62	19.247
551.96	19.808
552.30	19.147
552.64	18.407
552.98	18.053
553.32	18.106
553.66	18.816
554.00	19.073
554.34	19.453
554.68	18.182
555.02	18.571
555.36	17.871
555.69	18.063
556.03	19.290
556.37	18.455
556.71	19.005
557.05	18.906
557.39	18.233
557.73	18.003
558.07	18.701
558.41	19.473
558.75	17.925
559.08	19.489
559.42	18.144
559.76	18.197
560.10	19.723
560.44	17.894
560.78	17.806
561.12	18.482
561.45	19.122
561.79	17.254
562.13	17.939
562.47	17.049
562.81	16.755
563.15	18.023
563.48	18.127
563.82	17.249
564.16	17.054
564.50	17.550
564.84	17.931
565.17	17.883
565.51	17.452
565.85	18.662
566.19	18.511
566.52	18.351
566.86	18.101
567.20	17.631
567.54	16.975
567.88	16.869
568.21	17.175
568.55	16.978
568.89	16.703
569.23	16.365
569.56	17.103
569.90	16.274
570.24	16.273
570.57	15.764
570.91	16.412
571.25	15.978
571.59	16.197
571.92	15.380
572.26	15.304
572.60	15.715
572.93	15.259
573.27	15.217
573.61	15.785
573.95	15.248
574.28	15.310
574.62	14.710
574.96	14.602
575.29	14.610
575.63	14.572
575.97	14.424
576.30	14.922
576.64	14.416
576.98	14.244
577.31	14.707
577.65	15.097
577.98	14.270
578.32	14.396
578.66	14.531
578.99	14.827
579.33	14.625
579.67	14.763
580.00	14.564
580.34	14.413
580.67	14.725
581.01	14.670
581.35	14.318
581.68	14.609
582.02	14.053
582.35	14.437
582.69	14.427
583.02	13.919
583.36	14.373
583.70	14.854
584.03	14.997
584.37	15.101
584.70	14.270
585.04	14.374
585.37	14.056
585.71	14.527
586.04	14.448
586.38	14.301
586.72	14.160
587.05	14.729
587.39	14.700
587.72	14.476
588.06	14.186
588.39	14.373
588.73	14.397
589.06	14.333
589.40	14.643
589.73	14.847
590.07	14.673
590.40	14.670
590.73	14.827
591.07	14.805
591.40	14.801
591.74	14.832
592.07	14.947
592.41	15.089
592.74	14.487
593.08	13.899
593.41	14.330
593.75	14.628
594.08	14.516
594.41	14.393
594.75	14.683
595.08	14.297
595.42	14.495
595.75	14.470
596.09	14.171
596.42	14.503
596.75	14.727
597.09	14.646
597.42	14.172
597.75	14.634
598.09	14.279
598.42	14.718
598.76	14.936
599.09	14.328
599.42	13.769
599.76	13.770
600.09	14.077
600.42	13.320
600.76	13.895
601.09	13.922
601.42	14.372
601.76	13.555
602.09	13.909
602.42	14.590
602.76	14.180
603.09	14.143
603.42	13.969
603.76	13.764
604.09	14.244
604.42	14.126
604.76	13.510
605.09	13.604
605.42	14.265
605.75	13.659
606.09	13.689
606.42	13.692
606.75	14.032
607.09	13.526
607.42	13.538
607.75	13.545
608.08	13.985
608.42	13.967
608.75	13.307
609.08	13.125
609.41	14.308
609.75	14.060
610.08	13.540
610.41	13.740
610.74	13.094
611.07	13.802
611.41	13.062
611.74	13.928
612.07	13.449
612.40	13.593
612.73	14.062
613.07	14.093
613.40	12.996
613.73	12.371
614.06	13.232
614.39	13.767
614.72	13.046
615.06	14.696
615.39	14.203
615.72	13.326
616.05	12.986
616.38	13.108
616.71	13.433
617.05	13.631
617.38	14.645
617.71	13.586
618.04	13.601
618.37	13.407
618.70	13.315
619.03	13.633
619.36	14.801
619.69	12.908
620.03	14.416
620.36	13.454
620.69	13.378
621.02	12.985
621.35	13.787
621.68	13.771
622.01	15.152
622.34	14.657
622.67	14.081
623.00	13.350
623.33	14.016
623.66	14.422
623.99	13.477
624.32	13.185
624.65	13.203
624.99	12.734
625.32	13.428
625.65	13.371
625.98	14.500
626.31	13.593
626.64	12.973
626.97	15.074
627.30	14.815
627.63	13.581
627.96	14.991
628.29	14.340
628.62	14.227
628.95	13.622
629.28	15.393
629.61	14.525
629.94	13.485
630.26	14.121
630.59	14.764
630.92	12.856
631.25	13.966
631.58	12.442
631.91	14.009
632.24	15.148
632.57	14.863
632.90	15.498
633.23	16.387
633.56	14.465
633.89	14.776
634.22	14.103
634.55	13.929
634.88	14.859
635.20	14.247
635.53	13.408
635.86	15.217
636.19	13.643
636.52	13.612
636.85	13.429
637.18	16.580
637.51	15.312
637.83	14.106
638.16	15.647
638.49	15.274
638.82	12.236
639.15	13.857
639.48	12.664
639.81	13.860
640.13	14.242
640.46	16.063
640.79	15.349
641.12	13.488
641.45	13.530
641.77	14.490
642.10	14.984
642.43	14.815
642.76	14.158
643.09	15.398
643.41	15.412
643.74	15.278
644.07	13.933
644.40	14.079
644.73	14.365
645.05	13.168
645.38	14.615
645.71	13.359
646.04	14.126
646.36	12.311
646.69	17.602
647.02	16.211
647.35	13.200
647.67	18.236
648.00	18.641
648.33	13.873
648.66	13.544
648.98	16.102
649.31	13.253
649.64	12.737
649.96	11.824
650.29	10.973
650.62	15.028
650.94	14.972
651.27	12.909
651.60	15.105
651.92	13.931
652.25	11.281
652.58	12.926
652.90	12.633
653.23	9.324
653.56	13.021
653.88	13.504
654.21	13.611
654.54	10.694
654.86	14.209
655.19	12.742
655.52	13.140
655.84	10.016
656.17	9.824
656.49	13.179
656.82	15.504
657.15	12.468
657.47	9.433
657.80	7.026
658.13	5.701
658.45	9.784
658.78	9.861
659.10	9.932
659.43	10.360
659.75	9.826
660.08	10.157
660.41	9.970
660.73	11.357
661.06	10.000
661.38	14.113
661.71	11.816
662.03	13.889
662.36	12.649
662.68	11.990
663.01	14.663
663.33	14.387
663.66	15.789
663.98	11.002
664.31	11.707
664.63	13.073
664.96	13.064
665.28	13.712
665.61	12.617
665.93	15.207
666.26	13.245
666.58	12.844
666.91	14.052
667.23	13.547
667.56	15.309
667.88	13.534
668.21	11.929
668.53	13.959
668.86	12.245
669.18	10.406
669.50	12.082
669.83	13.500
670.15	13.000
670.48	10.025
670.80	13.706
671.13	15.181
671.45	10.714
671.77	14.493
672.10	11.209
672.42	9.562
672.75	11.262
673.07	12.150
673.39	12.451
673.72	13.636
674.04	11.277
674.37	11.778
674.69	10.514
675.01	15.116
675.34	10.784
675.66	11.667
675.98	12.374
676.31	11.587
676.63	12.113
676.95	13.189
677.28	10.891
677.60	14.536
677.92	12.281
678.25	9.513
678.57	9.977
678.89	7.110
679.22	12.385
679.54	11.136
679.86	13.919
680.18	9.205
680.51	9.035
680.83	9.583
681.15	11.547
681.48	10.213
681.80	10.217
682.12	10.707
682.44	8.405
682.77	12.500
683.09	10.539
683.41	11.529
683.73	11.307
684.06	9.137
684.38	11.271
684.70	14.088
685.02	10.606
685.34	9.623
685.67	8.696
685.99	8.383
686.31	13.060
686.63	10.485
686.96	10.366
687.28	11.294
687.60	11.499
687.92	10.338
688.24	12.211
688.56	7.912
688.89	12.557
689.21	7.674
689.53	12.020
689.85	11.392
690.17	10.784
690.49	11.529
690.82	9.582
691.14	10.705
691.46	11.500
691.78	9.569
692.10	13.073
692.42	8.486
692.74	11.137
693.06	8.916
693.39	8.621
693.71	7.442
694.03	8.937
694.35	8.168
694.67	8.906
694.99	11.590
695.31	9.065
695.63	9.459
695.95	13.202
696.27	13.031
696.59	8.605
696.91	8.547
697.23	12.607
697.56	12.176
697.88	10.539
698.20	10.654
698.52	10.577
698.84	12.030
699.16	10.290
699.48	9.948
699.80	8.242
700.12	11.846
700.44	5.900
700.76	7.886
701.08	6.032
701.40	8.882
701.72	11.333
702.04	9.184
702.36	9.180
702.68	10.067
703.00	7.571
703.32	4.790
703.64	7.256
703.96	5.696
704.28	7.394
704.60	12.671
704.91	11.513
705.23	8.070
705.55	7.807
705.87	9.712
706.19	11.155
706.51	5.469
706.83	6.960
707.15	8.475
707.47	6.287
707.79	8.596
708.11	10.053
708.43	9.333
708.74	9.290
709.06	9.202
709.38	8.309
709.70	7.468
710.02	9.091
710.34	4.610
710.66	8.614
710.98	7.692
711.29	13.402
711.61	7.447
711.93	13.483
712.25	5.660
712.57	8.203
712.89	8.571
713.20	9.274
713.52	3.659
713.84	8.759
714.16	10.811
714.48	8.532
714.80	5.387
715.11	12.371
715.43	9.215
715.75	7.719
716.07	7.636
716.39	6.485
716.70	9.200
717.02	6.855
717.34	6.494
717.66	4.545
717.97	4.167
718.29	8.444
718.61	8.108
718.93	7.563
719.24	11.297
719.56	9.821
719.88	8.235
720.20	6.410
720.51	8.772
720.83	9.623
721.15	11.837
721.46	6.751
721.78	7.792
722.10	11.628
722.42	10.870
722.73	6.335
723.05	14.286
723.37	9.050
723.68	3.791
724.00	8.796
724.32	9.813
724.63	6.335
724.95	5.023
725.27	8.920
725.58	10.959
725.90	1.351
726.22	7.860
726.53	7.377
726.85	8.519
727.16	10.931
727.48	11.694
727.80	5.023
728.11	8.444
728.43	9.465
728.74	4.825
729.06	6.550
729.38	11.240
729.69	10.800
730.01	3.766
730.32	5.578
730.64	6.923
730.96	10.425
731.27	5.405
731.59	6.734
731.90	6.579
732.22	7.641
732.53	8.070
732.85	6.338
733.16	9.158
733.48	9.328
733.80	6.909
734.11	3.546
734.43	6.137
734.74	5.919
735.06	7.395
735.37	7.987
735.69	1.408
736.00	2.593
736.32	8.741
736.63	10.370
736.95	7.004
737.26	7.246
737.58	4.380
737.89	7.547
738.21	7.252
738.52	11.066
738.83	4.701
739.15	6.364
739.46	3.153
739.78	8.494
740.09	3.571
740.41	7.576
740.72	2.390
741.04	6.324
741.35	9.417
741.66	11.828
741.98	3.061
742.29	4.145
742.61	-1.734
742.92	7.353
743.23	6.468
743.55	3.627
743.86	8.213
744.18	6.500
744.49	5.000
744.80	8.065
745.12	6.667
745.43	9.091
745.74	9.091
746.06	8.046
746.37	9.444
746.68	6.486
747.00	2.762
747.31	3.665
747.62	7.368
747.94	5.660
748.25	9.852
748.56	5.556
748.88	4.918
749.19	10.881
749.50	7.059
749.82	11.000
750.13	2.913
750.44	2.575
750.75	10.000
751.07	5.021
751.38	2.344
751.69	6.349
752.01	7.983
752.32	6.198
752.63	2.183
752.94	4.800
753.26	4.110
753.57	2.844
753.88	3.256
754.19	0.441
754.51	2.929
754.82	5.000
755.13	4.425
755.44	2.597
755.75	7.631
756.07	7.725
756.38	8.368
756.69	1.509
757.00	5.674
757.31	8.651
757.63	6.536
757.94	3.939
758.25	6.548
758.56	5.135
758.87	6.250
759.18	7.788
759.50	4.626
759.81	4.247
760.12	3.915
760.43	7.641
760.74	6.886
761.05	5.449
761.36	7.418
761.67	7.295
761.99	6.689
762.30	5.091
762.61	9.756
762.92	5.778
763.23	7.907
763.54	9.645
763.85	9.955
764.16	5.652
764.47	9.565
764.78	7.258
765.10	2.756
765.41	5.686
765.72	6.355
766.03	8.027
766.34	6.061
766.65	10.156
766.96	7.111
767.27	12.849
767.58	8.805
767.89	9.740
768.20	-6.757
768.51	-0.575
768.82	0.000
769.13	11.111
769.44	1.887
769.75	2.941
770.06	1.456
770.37	0.000
770.68	6.667
770.99	6.091
771.30	0.000
771.61	4.036
771.92	4.717
772.23	6.250
772.54	-1.176
772.85	-2.055
773.16	-2.581
773.47	0.000
773.78	7.784
774.09	4.605
774.39	-0.735
774.70	5.263
775.01	4.615
775.32	3.175
775.63	3.150
775.94	-4.717
776.25	11.111
776.56	0.000
776.87	17.094
777.18	1.000
777.48	0.000
777.79	-7.407
778.10	4.717
778.41	6.863
778.72	5.660
779.03	5.263
779.34	-1.681
779.65	5.634
779.95	6.475
780.26	-2.419
780.57	10.870
780.88	0.000
781.19	-2.778
781.50	-9.836
781.80	-2.920
782.11	3.205
782.42	-3.448
782.73	11.189
783.04	-6.400
783.34	-7.200
783.65	11.382
783.96	0.820
784.27	1.681
784.57	2.804
784.88	3.571
785.19	16.495
785.50	-3.158
785.81	1.000
786.11	-4.950
786.42	-23.529
786.73	5.208
787.04	1.020
787.34	10.185
787.65	18.868
787.96	3.093
788.26	-6.931
788.57	12.174
788.88	-9.174
789.19	-5.785
789.49	1.739
789.80	6.034
790.11	-7.317
790.41	12.360
790.72	2.326
791.03	0.000
791.33	-11.688
791.64	3.659
791.95	-6.098
792.25	-9.639
792.56	-14.815
792.87	-12.676
793.17	14.458
793.48	-5.882
793.79	-5.000
794.09	-20.000
794.40	3.261
794.70	-9.565
795.01	-0.917
795.32	12.598
795.62	2.941
795.93	-4.902
796.23	-5.051
796.54	-5.814
796.85	-8.696
797.15	-3.125
797.46	-15.254
797.76	-9.836
798.07	-1.316
798.37	-11.290
798.68	-7.812
798.99	10.769
799.29	-7.576
799.60	-10.145
799.90	8.571
800.21	-17.544
800.51	6.897
800.82	-32.075
801.12	-1.961
801.43	-11.290
801.73	1.613
802.04	-2.000
802.34	-7.547
802.65	-18.421
802.95	12.727
803.26	-13.208
803.56	-4.918
803.87	-8.000
804.17	-27.778
804.48	5.769
804.78	-32.653
805.09	14.894
805.39	11.864
805.70	-4.167
806.00	-1.786
806.30	16.949
806.61	7.692
806.91	-4.615
807.22	-6.579
807.52	7.143
807.83	-3.448
808.13	5.063
808.43	-11.475
808.74	1.639
809.04	8.108
809.35	3.704
809.65	-7.143
809.95	-5.085
810.26	-8.163
810.56	3.774
810.86	-9.804
811.17	-10.811
811.47	-44.444
811.77	-17.647
812.08	-15.909
812.38	-41.667
812.69	-20.513
812.99	-2.381
813.29	-10.870
813.59	-20.000
813.90	-7.143
814.20	1.818
814.50	-8.163
814.81	-17.647
815.11	-39.583
815.41	-17.073
815.72	-3.846
816.02	21.277
816.32	6.250
816.62	6.061
816.93	-57.576
817.23	-18.919
817.53	-35.294
817.84	10.000
818.14	-38.235
818.44	-3.125
818.74	-42.857
819.04	-14.286
819.35	-8.571
819.65	-6.818
819.95	12.821
820.25	-55.556
820.56	-55.172
820.86	-32.143
821.16	-69.565
821.46	9.524
821.76	20.370
822.07	-43.478
822.37	10.204
822.67	-25.581
822.97	-47.826
823.27	-23.077
823.57	-14.815
823.88	-10.714
824.18	5.128
824.48	-25.000
824.78	6.061
825.08	-140.000
825.38	-2.500
825.69	-111.111
825.99	0.000
826.29	24.444
826.59	-33.333
826.89	-22.222
827.19	-53.571
827.49	-27.273
827.79	-72.727
828.09	9.091
828.39	-65.217
828.70	18.519
829.00	-14.286
829.30	19.048
829.60	-35.484
829.90	-34.615
830.20	-5.128
830.50	-36.364
830.80	-57.143
831.10	-94.444
831.40	-164.286
831.70	-18.519
832.00	-41.176
832.30	-21.739
832.60	-29.167
832.90	-145.455
833.20	-100.000
833.50	-3.125
833.80	-19.231
834.10	56.000
834.40	-50.000
834.70	-54.545
835.00	0.000
835.30	-60.000
835.60	-140.000
835.90	-20.000
836.20	-100.000
836.50	0.000
836.80	-33.333
837.10	-13.333
837.40	-200.000
837.70	-47.826
838.00	-21.429
838.30	1200.000
838.60	24.000
838.90	-160.000
839.19	-88.889
839.49	-950.000
839.79	-76.471
840.09	-100.000
840.39	0.000
840.69	-105.556
840.99	-41.667
841.29	13.793
841.59	-40.000
841.88	-9.091
842.18	-100.000
842.48	0.000
842.78	0.000
843.08	-47.059
843.38	-50.000
843.68	-130.769
843.97	-76.471
844.27	-110.000
844.57	0.000
844.87	-45.455
845.17	-84.211
845.47	-88.889
845.76	11.111
846.06	-14.286
846.36	14.286
846.66	-100.000
846.96	-50.000
847.25	-60.000
847.55	0.000
847.85	-86.667
848.15	-175.000
848.44	-5.263
848.74	-13.333
849.04	5.263
849.34	-333.333
849.63	-83.333
849.93	-82.353
850.23	-100.000
850.53	0.000
850.82	-40.000
851.12	-300.000
851.42	-100.000
851.71	20.000
852.01	-28.571
852.31	-166.667
852.61	-38.462
852.90	-300.000
853.20	-144.444
853.50	-211.111
853.79	30.000
854.09	-70.000
854.39	-52.632
854.68	-10.000
854.98	-275.000
855.28	-16.667
855.57	-114.286
855.87	-21.053
856.17	-6.250
856.46	19.231
856.76	-13.333
857.05	-93.750
857.35	37.500
857.65	-16.667
857.94	0.000
858.24	0.000
858.53	-120.000
858.83	-366.667
859.13	-127.273
859.42	-150.000
859.72	-0.000
860.01	-15.385
860.31	-50.000
860.60	-112.500
860.90	-150.000
861.20	-283.333
861.49	-175.000
861.79	700.000
862.08	25.806
862.38	-31.579
862.67	100.000
862.97	-150.000
863.26	-75.000
863.56	8.696
863.85	-383.333
864.15	-21.429
864.44	6.250
864.74	-116.667
865.03	-55.556
865.33	-66.667
865.62	-500.000
865.92	-250.000
866.21	-283.333
866.51	-27.273
866.80	-33.333
867.10	-214.286
867.39	-22.222
867.69	-75.000
867.98	80.000
868.27	-475.000
868.57	425.000
868.86	-80.000
869.16	46.154
869.45	500.000
869.75	-216.667
870.04	-83.333
870.33	17.647
870.63	-214.286
870.92	34.783
871.22	-162.500
871.51	340.000
871.80	-25.000
872.10	-200.000
>>>>>End Processed Spectral Data<<<<<
