SpectraSuite Data File
++++++++++++++++++++++++++++++++++++
Date: Tue May 12 19:36:06 PDT 2015
User: schluterlab
Dark Spectrum Present: Yes
Reference Spectrum Present: Yes
Number of Sampled Component Spectra: 1
Spectrometers: USB2E3373
Integration Time (usec): 3000 (USB2E3373)
Spectra Averaged: 3 (USB2E3373)
Boxcar Smoothing: 0 (USB2E3373)
Correct for Electrical Dark: No (USB2E3373)
Strobe/Lamp Enabled: No (USB2E3373)
Correct for Detector Non-linearity: No (USB2E3373)
Correct for Stray Light: No (USB2E3373)
Number of Pixels in Processed Spectrum: 2048
>>>>>Begin Processed Spectral Data<<<<<
178.53	0.000
178.91	10.000
179.29	-133.333
179.67	300.000
180.04	0.000
180.42	-20.000
180.80	-333.333
181.18	350.000
181.56	-150.000
181.94	116.667
182.31	1200.000
182.69	-157.143
183.07	0.000
183.45	233.333
183.83	140.000
184.20	316.667
184.58	1050.000
184.96	333.333
185.34	-166.667
185.72	-14.286
186.09	66.667
186.47	-1000.000
186.85	-120.000
187.23	100.000
187.61	-228.571
187.98	-240.000
188.36	600.000
188.74	0.000
189.12	22.222
189.49	-70.000
189.87	175.000
190.25	177.778
190.63	133.333
191.00	100.000
191.38	166.667
191.76	320.000
192.14	-142.857
192.51	10.000
192.89	40.000
193.27	-60.000
193.65	-33.333
194.02	50.000
194.40	1500.000
194.78	-12.500
195.15	-242.857
195.53	366.667
195.91	240.000
196.29	-450.000
196.66	200.000
197.04	-228.571
197.42	-120.000
197.79	-75.000
198.17	8.333
198.55	-100.000
198.92	-66.667
199.30	500.000
199.68	-225.000
200.05	-700.000
200.43	-27.778
200.81	-66.667
201.18	266.667
201.56	-350.000
201.94	200.000
202.31	-33.333
202.69	-55.556
203.07	-108.333
203.44	-250.000
203.82	0.000
204.19	112.500
204.57	66.667
204.95	100.000
205.32	240.000
205.70	200.000
206.08	500.000
206.45	-40.000
206.83	2200.000
207.20	-22.222
207.58	61.538
207.96	100.000
208.33	333.333
208.71	166.667
209.08	700.000
209.46	-11.111
209.84	233.333
210.21	-233.333
210.59	-250.000
210.96	233.333
211.34	-175.000
211.71	600.000
212.09	0.000
212.46	-100.000
212.84	-87.500
213.22	128.571
213.59	-25.000
213.97	0.000
214.34	-200.000
214.72	-400.000
215.09	500.000
215.47	-33.333
215.84	-50.000
216.22	-900.000
216.59	1100.000
216.97	-50.000
217.34	-50.000
217.72	11.111
218.09	325.000
218.47	-26.316
218.84	-100.000
219.22	14.286
219.59	-50.000
219.97	-60.000
220.34	200.000
220.72	81.818
221.09	-450.000
221.47	0.000
221.84	450.000
222.22	0.000
222.59	-200.000
222.97	30.435
223.34	126.667
223.72	285.714
224.09	-150.000
224.46	200.000
224.84	-33.333
225.21	-200.000
225.59	-75.000
225.96	50.000
226.34	200.000
226.71	240.000
227.08	-15.385
227.46	-85.714
227.83	16.667
228.21	-200.000
228.58	133.333
228.95	21.053
229.33	18.750
229.70	116.667
230.08	-33.333
230.45	233.333
230.82	-100.000
231.20	52.381
231.57	-40.000
231.95	-200.000
232.32	33.333
232.69	-650.000
233.07	18.750
233.44	-125.000
233.81	64.516
234.19	-80.000
234.56	11.111
234.93	-66.667
235.31	7.407
235.68	33.333
236.05	-11.538
236.43	26.316
236.80	54.545
237.17	50.000
237.55	15.000
237.92	46.512
238.29	22.581
238.67	35.714
239.04	71.429
239.41	31.373
239.79	56.000
240.16	25.000
240.53	32.759
240.91	38.356
241.28	16.901
241.65	48.438
242.02	50.877
242.40	41.333
242.77	54.737
243.14	54.118
243.51	39.785
243.89	33.333
244.26	37.963
244.63	47.959
245.00	38.393
245.38	36.975
245.75	45.763
246.12	48.437
246.49	46.400
246.87	38.525
247.24	42.254
247.61	39.073
247.98	36.517
248.36	45.283
248.73	40.341
249.10	46.667
249.47	47.396
249.84	43.147
250.22	43.750
250.59	42.697
250.96	44.091
251.33	48.585
251.70	43.119
252.08	43.723
252.45	42.857
252.82	45.992
253.19	45.525
253.56	44.314
253.94	45.528
254.31	46.763
254.68	44.444
255.05	46.689
255.42	42.545
255.79	49.669
256.16	44.097
256.54	43.030
256.91	43.910
257.28	40.909
257.65	45.574
258.02	47.748
258.39	45.619
258.76	41.590
259.14	40.882
259.51	45.070
259.88	48.991
260.25	46.591
260.62	47.191
260.99	46.240
261.36	43.966
261.73	48.533
262.10	46.049
262.47	52.893
262.85	45.758
263.22	45.968
263.59	44.772
263.96	48.042
264.33	44.205
264.70	44.717
265.07	47.044
265.44	45.199
265.81	47.470
266.18	45.433
266.55	45.476
266.92	48.661
267.29	45.778
267.66	44.545
268.03	45.161
268.40	46.911
268.77	40.535
269.14	41.807
269.51	45.701
269.88	48.504
270.25	43.671
270.62	47.479
270.99	43.579
271.36	47.682
271.73	46.042
272.10	46.058
272.47	43.600
272.84	43.524
273.21	44.676
273.58	40.612
273.95	45.020
274.32	44.874
274.69	45.010
275.06	45.966
275.43	44.600
275.80	42.065
276.17	46.443
276.54	47.148
276.91	48.944
277.28	47.389
277.65	44.991
278.02	46.023
278.39	46.279
278.76	46.182
279.13	45.081
279.50	45.126
279.87	42.264
280.23	44.809
280.60	42.756
280.97	44.640
281.34	42.034
281.71	44.050
282.08	43.470
282.45	44.974
282.82	43.434
283.19	42.088
283.56	46.075
283.92	40.916
284.29	42.470
284.66	45.133
285.03	41.681
285.40	43.000
285.77	42.857
286.14	40.412
286.51	41.318
286.87	41.329
287.24	41.987
287.61	41.667
287.98	43.349
288.35	40.930
288.72	42.813
289.08	40.252
289.45	40.562
289.82	38.665
290.19	40.455
290.56	41.389
290.93	41.064
291.29	40.709
291.66	38.202
292.03	39.311
292.40	38.561
292.77	38.630
293.13	39.648
293.50	39.532
293.87	37.587
294.24	37.921
294.60	38.525
294.97	35.457
295.34	35.205
295.71	34.951
296.08	35.792
296.44	35.837
296.81	35.317
297.18	34.929
297.55	34.548
297.91	34.518
298.28	35.678
298.65	33.765
299.02	35.635
299.38	36.480
299.75	34.878
300.12	33.573
300.48	33.803
300.85	33.130
301.22	33.173
301.59	33.090
301.95	33.659
302.32	32.199
302.69	32.105
303.05	31.995
303.42	34.783
303.79	31.573
304.15	32.050
304.52	31.061
304.89	31.229
305.25	33.601
305.62	32.273
305.99	30.907
306.35	33.669
306.72	32.353
307.09	31.991
307.45	30.960
307.82	29.669
308.19	33.003
308.55	33.017
308.92	31.886
309.29	29.916
309.65	32.301
310.02	33.019
310.38	30.917
310.75	31.865
311.12	31.333
311.48	32.682
311.85	31.003
312.22	32.645
312.58	30.111
312.95	31.622
313.31	32.547
313.68	30.884
314.05	33.267
314.41	32.122
314.78	31.859
315.14	30.167
315.51	32.175
315.87	32.715
316.24	32.047
316.61	32.718
316.97	32.941
317.34	32.632
317.70	32.493
318.07	32.883
318.43	32.987
318.80	32.605
319.16	32.712
319.53	34.340
319.89	33.523
320.26	32.842
320.62	33.140
320.99	34.490
321.35	32.806
321.72	34.444
322.08	34.653
322.45	34.813
322.81	36.355
323.18	35.187
323.54	36.019
323.91	36.812
324.27	35.873
324.64	35.895
325.00	36.215
325.37	38.040
325.73	36.405
326.10	36.778
326.46	37.262
326.83	38.434
327.19	38.079
327.56	39.965
327.92	38.628
328.29	39.247
328.65	40.772
329.01	39.541
329.38	39.945
329.74	40.854
330.11	38.583
330.47	40.782
330.84	39.286
331.20	41.405
331.56	39.057
331.93	39.524
332.29	40.611
332.66	41.230
333.02	41.876
333.38	42.188
333.75	40.988
334.11	41.230
334.48	40.250
334.84	40.563
335.20	41.271
335.57	42.598
335.93	42.698
336.29	41.590
336.66	41.985
337.02	42.339
337.38	41.415
337.75	42.182
338.11	42.571
338.47	41.318
338.84	42.726
339.20	44.088
339.56	43.896
339.93	43.243
340.29	43.790
340.65	42.283
341.02	42.161
341.38	43.248
341.74	43.772
342.11	43.855
342.47	42.045
342.83	41.977
343.20	43.148
343.56	42.133
343.92	43.570
344.28	41.509
344.65	42.723
345.01	43.380
345.37	42.564
345.73	42.291
346.10	43.993
346.46	43.486
346.82	43.246
347.19	42.725
347.55	43.622
347.91	43.079
348.27	42.713
348.63	43.907
349.00	44.407
349.36	44.600
349.72	43.350
350.08	44.190
350.45	43.613
350.81	44.096
351.17	43.163
351.53	42.754
351.89	44.646
352.26	43.821
352.62	43.827
352.98	46.192
353.34	45.948
353.70	43.951
354.07	45.058
354.43	44.491
354.79	44.918
355.15	44.068
355.51	44.825
355.87	46.211
356.24	45.752
356.60	45.492
356.96	45.419
357.32	45.350
357.68	44.869
358.04	45.138
358.40	46.563
358.77	45.060
359.13	46.265
359.49	45.680
359.85	46.523
360.21	44.964
360.57	47.528
360.93	46.714
361.29	46.573
361.66	45.662
362.02	48.509
362.38	46.775
362.74	47.271
363.10	44.872
363.46	46.275
363.82	46.554
364.18	46.480
364.54	45.878
364.90	48.148
365.26	48.137
365.62	48.145
365.98	48.726
366.35	47.882
366.71	48.768
367.07	47.085
367.43	47.220
367.79	47.238
368.15	47.739
368.51	47.041
368.87	47.430
369.23	48.827
369.59	47.941
369.95	48.137
370.31	48.106
370.67	48.797
371.03	48.762
371.39	50.151
371.75	49.331
372.11	48.741
372.47	49.072
372.83	49.014
373.19	49.398
373.55	49.626
373.91	49.242
374.27	50.331
374.63	50.368
374.99	48.755
375.35	49.492
375.71	48.565
376.07	49.965
376.42	48.548
376.78	48.920
377.14	49.930
377.50	49.111
377.86	49.930
378.22	49.339
378.58	50.789
378.94	49.967
379.30	48.198
379.66	49.872
380.02	50.095
380.38	50.382
380.74	49.782
381.09	49.682
381.45	50.159
381.81	50.510
382.17	50.293
382.53	50.493
382.89	49.391
383.25	50.349
383.61	50.668
383.97	50.617
384.32	49.871
384.68	51.596
385.04	48.504
385.40	49.840
385.76	50.980
386.12	49.901
386.48	49.641
386.83	49.045
387.19	50.575
387.55	52.979
387.91	49.720
388.27	50.032
388.62	49.935
388.98	51.209
389.34	49.642
389.70	50.192
390.06	50.429
390.42	50.169
390.77	50.704
391.13	50.748
391.49	51.415
391.85	50.566
392.20	51.683
392.56	49.574
392.92	50.402
393.28	50.209
393.64	51.678
393.99	50.260
394.35	50.422
394.71	50.000
395.07	50.597
395.42	50.476
395.78	50.806
396.14	50.300
396.50	50.453
396.85	51.091
397.21	49.030
397.57	50.494
397.92	49.936
398.28	51.439
398.64	49.143
399.00	49.449
399.35	50.996
399.71	48.503
400.07	49.969
400.42	49.744
400.78	49.840
401.14	48.927
401.49	49.469
401.85	49.714
402.21	50.317
402.57	48.551
402.92	50.066
403.28	49.155
403.63	48.590
403.99	48.481
404.35	48.917
404.70	49.335
405.06	48.295
405.42	48.536
405.77	48.930
406.13	48.746
406.49	48.517
406.84	48.879
407.20	48.203
407.55	49.365
407.91	48.182
408.27	49.535
408.62	48.103
408.98	48.649
409.34	48.207
409.69	47.425
410.05	46.956
410.40	48.298
410.76	48.257
411.11	47.447
411.47	48.844
411.83	47.714
412.18	47.644
412.54	48.060
412.89	47.021
413.25	48.652
413.60	47.577
413.96	47.702
414.31	46.845
414.67	50.101
415.03	47.994
415.38	47.841
415.74	48.019
416.09	48.243
416.45	48.408
416.80	47.983
417.16	47.743
417.51	48.508
417.87	48.153
418.22	47.861
418.58	47.823
418.93	48.098
419.29	48.168
419.64	50.000
420.00	47.675
420.35	46.704
420.71	47.503
421.06	49.059
421.42	47.742
421.77	50.122
422.12	47.076
422.48	48.030
422.83	48.571
423.19	47.941
423.54	47.954
423.90	48.455
424.25	48.640
424.61	48.000
424.96	48.403
425.31	48.370
425.67	47.394
426.02	48.758
426.38	47.362
426.73	48.037
427.09	48.851
427.44	48.148
427.79	49.010
428.15	48.256
428.50	47.802
428.85	48.942
429.21	48.715
429.56	48.177
429.92	48.080
430.27	47.200
430.62	48.134
430.98	46.265
431.33	48.443
431.68	48.578
432.04	49.194
432.39	48.663
432.74	48.134
433.10	48.514
433.45	49.335
433.80	48.690
434.16	47.986
434.51	48.885
434.86	48.822
435.22	48.370
435.57	49.604
435.92	47.430
436.28	47.634
436.63	49.851
436.98	48.704
437.34	49.776
437.69	48.272
438.04	49.099
438.39	49.021
438.75	48.862
439.10	48.452
439.45	49.743
439.81	50.349
440.16	48.732
440.51	48.513
440.86	49.937
441.22	48.303
441.57	49.345
441.92	49.034
442.27	48.514
442.63	47.743
442.98	50.306
443.33	49.530
443.68	49.307
444.03	48.041
444.39	48.829
444.74	48.483
445.09	49.292
445.44	47.813
445.79	49.299
446.15	49.271
446.50	48.872
446.85	47.910
447.20	48.195
447.55	48.051
447.91	48.383
448.26	50.148
448.61	48.640
448.96	47.842
449.31	49.488
449.66	48.608
450.02	48.343
450.37	48.603
450.72	48.055
451.07	49.374
451.42	49.144
451.77	47.478
452.12	47.619
452.47	50.407
452.83	49.564
453.18	48.616
453.53	48.726
453.88	49.011
454.23	48.179
454.58	49.608
454.93	48.229
455.28	48.201
455.63	48.668
455.98	48.604
456.34	48.895
456.69	48.477
457.04	47.113
457.39	48.127
457.74	47.977
458.09	48.164
458.44	48.804
458.79	47.291
459.14	47.346
459.49	49.172
459.84	47.325
460.19	47.467
460.54	47.348
460.89	47.412
461.24	47.727
461.59	48.454
461.94	46.811
462.29	47.932
462.64	48.189
462.99	47.861
463.34	47.179
463.69	48.560
464.04	48.749
464.39	47.267
464.74	47.826
465.09	48.039
465.44	47.031
465.79	45.427
466.14	46.838
466.49	47.055
466.84	46.622
467.19	47.303
467.54	45.292
467.89	46.114
468.24	46.970
468.59	45.550
468.94	47.276
469.29	46.851
469.64	47.338
469.99	46.359
470.34	46.110
470.68	46.692
471.03	45.985
471.38	46.821
471.73	47.238
472.08	47.117
472.43	47.165
472.78	47.861
473.13	45.965
473.48	46.611
473.83	46.697
474.17	45.297
474.52	47.287
474.87	46.402
475.22	46.125
475.57	45.417
475.92	45.821
476.27	46.233
476.61	44.622
476.96	46.354
477.31	46.005
477.66	45.904
478.01	46.086
478.36	44.470
478.70	46.479
479.05	44.631
479.40	45.716
479.75	45.373
480.10	45.184
480.45	44.921
480.79	45.823
481.14	45.177
481.49	44.936
481.84	45.000
482.19	44.537
482.53	44.510
482.88	45.196
483.23	44.724
483.58	44.010
483.92	43.668
484.27	44.869
484.62	43.894
484.97	44.244
485.31	42.846
485.66	40.888
486.01	41.499
486.36	40.836
486.70	41.594
487.05	42.121
487.40	42.024
487.75	42.141
488.09	41.855
488.44	42.397
488.79	42.125
489.13	43.267
489.48	43.154
489.83	42.349
490.17	43.272
490.52	43.977
490.87	43.966
491.22	44.724
491.56	43.132
491.91	43.173
492.26	45.589
492.60	44.133
492.95	44.405
493.30	44.276
493.64	43.915
493.99	43.737
494.34	43.943
494.68	43.558
495.03	42.901
495.37	42.676
495.72	44.198
496.07	43.864
496.41	44.071
496.76	43.410
497.11	43.378
497.45	43.395
497.80	44.133
498.14	43.031
498.49	44.367
498.84	42.977
499.18	42.916
499.53	43.406
499.87	43.164
500.22	43.896
500.56	43.642
500.91	43.786
501.26	43.097
501.60	42.915
501.95	43.501
502.29	42.637
502.64	41.961
502.98	41.898
503.33	42.237
503.67	42.726
504.02	42.850
504.36	42.270
504.71	43.191
505.06	42.421
505.40	43.217
505.75	41.180
506.09	42.470
506.44	43.509
506.78	43.522
507.13	42.291
507.47	43.380
507.82	42.969
508.16	43.430
508.51	43.873
508.85	43.132
509.19	42.512
509.54	42.720
509.88	42.635
510.23	43.989
510.57	43.441
510.92	43.537
511.26	43.883
511.61	43.094
511.95	42.799
512.30	44.116
512.64	42.874
512.98	43.001
513.33	42.028
513.67	41.976
514.02	43.990
514.36	43.832
514.70	43.109
515.05	43.415
515.39	43.350
515.74	43.797
516.08	44.444
516.42	44.127
516.77	44.037
517.11	43.058
517.46	44.222
517.80	45.820
518.14	44.023
518.49	43.920
518.83	45.136
519.17	43.252
519.52	44.097
519.86	43.952
520.20	44.904
520.55	44.386
520.89	46.019
521.23	46.293
521.58	43.519
521.92	44.393
522.26	44.192
522.61	44.710
522.95	44.658
523.29	43.995
523.64	44.166
523.98	43.817
524.32	44.714
524.66	45.071
525.01	45.636
525.35	44.186
525.69	44.873
526.04	44.891
526.38	44.414
526.72	44.583
527.06	44.444
527.41	44.366
527.75	45.226
528.09	43.989
528.43	44.366
528.78	43.746
529.12	44.384
529.46	42.990
529.80	43.295
530.15	44.962
530.49	45.955
530.83	44.902
531.17	43.715
531.51	44.397
531.86	43.908
532.20	42.713
532.54	43.453
532.88	43.418
533.22	43.319
533.57	41.724
533.91	43.703
534.25	44.399
534.59	45.598
534.93	42.848
535.27	43.098
535.62	42.336
535.96	43.126
536.30	42.658
536.64	42.990
536.98	43.215
537.32	44.271
537.66	42.082
538.01	43.004
538.35	43.636
538.69	42.180
539.03	44.196
539.37	43.575
539.71	42.899
540.05	44.573
540.39	41.903
540.73	43.663
541.07	43.676
541.42	42.837
541.76	42.806
542.10	42.755
542.44	43.280
542.78	41.569
543.12	41.011
543.46	43.964
543.80	42.959
544.14	42.796
544.48	41.754
544.82	42.725
545.16	41.522
545.50	42.649
545.84	43.307
546.18	42.697
546.52	43.659
546.86	43.535
547.20	43.485
547.54	43.215
547.88	40.883
548.22	40.999
548.56	42.213
548.90	41.965
549.24	42.325
549.58	42.548
549.92	43.008
550.26	43.089
550.60	43.695
550.94	43.492
551.28	44.472
551.62	42.998
551.96	42.332
552.30	43.101
552.64	42.224
552.98	41.679
553.32	41.288
553.66	43.020
554.00	42.703
554.34	42.422
554.68	43.222
555.02	42.698
555.36	41.461
555.69	41.814
556.03	41.020
556.37	41.110
556.71	42.383
557.05	42.422
557.39	42.249
557.73	42.453
558.07	42.645
558.41	40.942
558.75	41.577
559.08	42.979
559.42	42.809
559.76	42.460
560.10	42.461
560.44	41.647
560.78	42.299
561.12	42.149
561.45	41.443
561.79	40.822
562.13	40.549
562.47	40.443
562.81	40.940
563.15	41.065
563.48	40.449
563.82	41.339
564.16	40.856
564.50	40.043
564.84	41.247
565.17	41.130
565.51	42.224
565.85	40.845
566.19	41.406
566.52	41.075
566.86	40.847
567.20	40.719
567.54	40.204
567.88	38.835
568.21	40.504
568.55	38.879
568.89	39.231
569.23	37.902
569.56	38.299
569.90	38.415
570.24	37.155
570.57	36.832
570.91	36.245
571.25	36.570
571.59	36.459
571.92	35.504
572.26	35.668
572.60	35.600
572.93	36.248
573.27	35.918
573.61	35.655
573.95	34.795
574.28	35.228
574.62	34.246
574.96	34.707
575.29	34.615
575.63	34.107
575.97	35.065
576.30	34.673
576.64	34.647
576.98	34.676
577.31	34.620
577.65	34.939
577.98	34.192
578.32	34.306
578.66	33.804
578.99	34.933
579.33	33.904
579.67	34.794
580.00	34.320
580.34	34.647
580.67	33.850
581.01	33.898
581.35	34.066
581.68	33.416
582.02	33.428
582.35	34.108
582.69	33.992
583.02	34.268
583.36	34.543
583.70	34.231
584.03	34.919
584.37	35.313
584.70	34.525
585.04	34.293
585.37	34.296
585.71	34.240
586.04	34.956
586.38	35.031
586.72	34.795
587.05	34.576
587.39	34.482
587.72	34.482
588.06	34.567
588.39	35.115
588.73	34.229
589.06	34.267
589.40	35.727
589.73	36.275
590.07	34.921
590.40	35.864
590.73	36.318
591.07	36.017
591.40	36.135
591.74	36.567
592.07	36.724
592.41	35.848
592.74	36.515
593.08	35.199
593.41	34.385
593.75	35.288
594.08	35.967
594.41	35.494
594.75	35.552
595.08	35.528
595.42	35.561
595.75	35.227
596.09	35.188
596.42	35.814
596.75	36.727
597.09	36.054
597.42	35.054
597.75	36.023
598.09	35.768
598.42	35.873
598.76	35.701
599.09	35.462
599.42	34.264
599.76	34.719
600.09	35.587
600.42	34.531
600.76	35.104
601.09	34.510
601.42	34.581
601.76	34.943
602.09	35.610
602.42	35.519
602.76	35.777
603.09	35.553
603.42	35.903
603.76	35.124
604.09	36.132
604.42	36.410
604.76	36.102
605.09	35.853
605.42	36.019
605.75	35.496
606.09	35.778
606.42	34.821
606.75	35.968
607.09	36.287
607.42	36.026
607.75	35.170
608.08	35.828
608.42	34.918
608.75	36.018
609.08	35.336
609.41	36.703
609.75	35.703
610.08	34.987
610.41	35.471
610.74	35.592
611.07	35.167
611.41	34.904
611.74	36.072
612.07	36.719
612.40	35.543
612.73	36.690
613.07	36.935
613.40	34.905
613.73	34.880
614.06	36.183
614.39	37.551
614.72	37.131
615.06	36.051
615.39	36.085
615.72	36.506
616.05	34.551
616.38	35.587
616.71	35.323
617.05	35.930
617.38	36.323
617.71	36.904
618.04	37.845
618.37	36.887
618.70	36.549
619.03	38.289
619.36	38.439
619.69	37.014
620.03	38.291
620.36	38.020
620.69	37.694
621.02	38.005
621.35	38.638
621.68	38.794
622.01	39.840
622.34	38.275
622.67	38.196
623.00	38.411
623.33	37.480
623.66	38.725
623.99	37.799
624.32	37.728
624.65	37.813
624.99	38.359
625.32	38.626
625.65	36.349
625.98	37.583
626.31	38.874
626.64	40.360
626.97	40.165
627.30	38.611
627.63	40.093
627.96	39.013
628.29	39.388
628.62	39.794
628.95	40.866
629.28	39.463
629.61	40.857
629.94	40.249
630.26	40.900
630.59	41.152
630.92	37.935
631.25	40.000
631.58	41.047
631.91	39.863
632.24	38.935
632.57	39.001
632.90	44.403
633.23	41.419
633.56	41.006
633.89	40.897
634.22	42.308
634.55	42.576
634.88	41.365
635.20	42.192
635.53	44.693
635.86	43.886
636.19	42.838
636.52	43.261
636.85	39.244
637.18	43.005
637.51	41.870
637.83	42.737
638.16	43.954
638.49	41.643
638.82	41.772
639.15	41.857
639.48	42.067
639.81	41.431
640.13	42.726
640.46	43.622
640.79	42.946
641.12	41.860
641.45	42.924
641.77	41.083
642.10	44.137
642.43	44.613
642.76	43.907
643.09	42.388
643.41	41.398
643.74	42.014
644.07	42.152
644.40	44.404
644.73	43.831
645.05	46.565
645.38	45.769
645.71	45.611
646.04	42.193
646.36	43.939
646.69	46.809
647.02	45.312
647.35	46.400
647.67	46.293
648.00	47.961
648.33	43.931
648.66	45.083
648.98	43.051
649.31	43.546
649.64	41.652
649.96	38.345
650.29	40.177
650.62	43.228
650.94	44.547
651.27	45.665
651.60	41.683
651.92	40.649
652.25	41.109
652.58	40.575
652.90	37.011
653.23	41.499
653.56	39.410
653.88	43.248
654.21	44.423
654.54	41.088
654.86	43.705
655.19	41.290
655.52	37.528
655.84	32.060
656.17	31.450
656.49	42.042
656.82	48.258
657.15	38.980
657.47	29.440
657.80	22.160
658.13	18.584
658.45	31.811
658.78	30.798
659.10	29.979
659.43	30.642
659.75	31.033
660.08	32.634
660.41	34.946
660.73	35.180
661.06	38.727
661.38	41.331
661.71	41.357
662.03	46.296
662.36	42.005
662.68	40.048
663.01	46.154
663.33	43.868
663.66	44.737
663.98	46.210
664.31	45.122
664.63	43.807
664.96	43.230
665.28	42.553
665.61	44.860
665.93	41.014
666.26	44.150
666.58	44.954
666.91	43.794
667.23	43.103
667.56	42.222
667.88	43.860
668.21	44.924
668.53	46.193
668.86	44.133
669.18	40.355
669.50	46.272
669.83	44.000
670.15	43.500
670.48	43.358
670.80	44.416
671.13	40.241
671.45	43.622
671.77	44.203
672.10	39.560
672.42	38.446
672.75	38.447
673.07	39.626
673.39	41.051
673.72	41.529
674.04	40.851
674.37	42.956
674.69	39.019
675.01	44.651
675.34	42.402
675.66	38.810
675.98	40.909
676.31	43.325
676.63	42.010
676.95	42.686
677.28	38.614
677.60	40.852
677.92	41.353
678.25	37.819
678.57	41.763
678.89	41.743
679.22	42.202
679.54	38.753
679.86	39.400
680.18	38.285
680.51	40.657
680.83	40.833
681.15	41.612
681.48	36.809
681.80	39.783
682.12	43.255
682.44	39.009
682.77	41.591
683.09	40.686
683.41	40.100
683.73	40.955
684.06	39.340
684.38	45.803
684.70	40.185
685.02	39.394
685.34	36.402
685.67	38.735
685.99	36.327
686.31	38.993
686.63	39.029
686.96	37.602
687.28	39.220
687.60	38.398
687.92	38.608
688.24	39.579
688.56	39.560
688.89	39.498
689.21	40.233
689.53	39.386
689.85	43.038
690.17	39.216
690.49	40.941
690.82	41.769
691.14	43.603
691.46	37.500
691.78	39.234
692.10	40.138
692.42	38.303
692.74	44.550
693.06	40.482
693.39	39.901
693.71	36.977
694.03	37.923
694.35	35.396
694.67	41.476
694.99	42.318
695.31	43.626
695.63	40.811
695.95	42.135
696.27	43.626
696.59	41.246
696.91	40.456
697.23	42.120
697.56	41.192
697.88	39.344
698.20	36.320
698.52	40.625
698.84	38.346
699.16	38.522
699.48	42.932
699.80	39.560
700.12	38.843
700.44	37.758
700.76	43.849
701.08	36.825
701.40	43.421
701.72	43.000
702.04	42.857
702.36	43.279
702.68	44.966
703.00	40.694
703.32	35.928
703.64	38.486
703.96	40.823
704.28	36.972
704.60	42.123
704.91	38.158
705.23	38.596
705.55	38.290
705.87	42.086
706.19	39.841
706.51	36.719
706.83	41.758
707.15	42.034
707.47	41.018
707.79	38.109
708.11	39.683
708.43	38.400
708.74	36.612
709.06	35.583
709.38	36.795
709.70	33.442
710.02	40.909
710.34	41.135
710.66	44.195
710.98	38.462
711.29	37.457
711.61	37.589
711.93	43.446
712.25	40.000
712.57	37.891
712.89	39.592
713.20	41.935
713.52	38.618
713.84	39.051
714.16	42.230
714.48	40.273
714.80	40.741
715.11	38.488
715.43	35.836
715.75	40.351
716.07	35.273
716.39	41.980
716.70	39.600
717.02	37.903
717.34	38.961
717.66	45.455
717.97	37.963
718.29	45.778
718.61	37.387
718.93	45.798
719.24	39.331
719.56	42.857
719.88	38.039
720.20	36.752
720.51	40.789
720.83	36.402
721.15	37.143
721.46	45.570
721.78	38.095
722.10	38.372
722.42	42.609
722.73	33.032
723.05	38.249
723.37	38.009
723.68	39.810
724.00	36.574
724.32	38.318
724.63	41.176
724.95	39.269
725.27	41.784
725.58	39.726
725.90	34.685
726.22	37.555
726.53	38.115
726.85	35.556
727.16	40.081
727.48	35.081
727.80	36.530
728.11	38.222
728.43	39.506
728.74	37.719
729.06	38.428
729.38	39.535
729.69	38.400
730.01	35.146
730.32	33.068
730.64	36.538
730.96	34.363
731.27	37.838
731.59	35.690
731.90	32.237
732.22	33.555
732.53	32.982
732.85	26.408
733.16	38.462
733.48	33.955
733.80	35.273
734.11	36.879
734.43	35.379
734.74	34.579
735.06	33.762
735.37	35.144
735.69	29.930
736.00	34.444
736.32	39.161
736.63	37.407
736.95	31.518
737.26	36.594
737.58	32.482
737.89	35.094
738.21	34.733
738.52	41.393
738.83	32.906
739.15	38.182
739.46	30.631
739.78	36.293
740.09	34.127
740.41	35.985
740.72	35.060
741.04	32.016
741.35	38.565
741.66	40.860
741.98	33.163
742.29	33.679
742.61	35.838
742.92	42.647
743.23	42.786
743.55	34.715
743.86	39.614
744.18	33.000
744.49	37.778
744.80	33.871
745.12	34.359
745.43	40.107
745.74	36.364
746.06	44.253
746.37	34.444
746.68	37.297
747.00	30.939
747.31	38.743
747.62	42.105
747.94	34.906
748.25	41.872
748.56	43.434
748.88	37.158
749.19	37.306
749.50	39.412
749.82	39.500
750.13	42.718
750.44	35.193
750.75	37.600
751.07	33.473
751.38	33.203
751.69	40.079
752.01	33.613
752.32	35.950
752.63	32.751
752.94	34.800
753.26	35.616
753.57	36.493
753.88	34.419
754.19	37.885
754.51	37.657
754.82	34.167
755.13	36.283
755.44	38.528
755.75	36.145
756.07	34.764
756.38	35.565
756.69	36.981
757.00	36.879
757.31	35.640
757.63	34.967
757.94	33.030
758.25	32.440
758.56	31.081
758.87	28.869
759.18	38.941
759.50	35.587
759.81	35.521
760.12	36.655
760.43	35.548
760.74	32.934
761.05	33.974
761.36	35.905
761.67	31.611
761.99	35.117
762.30	33.455
762.61	35.772
762.92	32.000
763.23	38.605
763.54	35.025
763.85	37.557
764.16	30.435
764.47	36.087
764.78	34.677
765.10	32.677
765.41	29.431
765.72	36.120
766.03	35.452
766.34	38.258
766.65	35.156
766.96	36.444
767.27	40.782
767.58	40.252
767.89	39.610
768.20	37.838
768.51	38.506
768.82	35.000
769.13	39.352
769.44	35.377
769.75	27.941
770.06	29.126
770.37	35.638
770.68	35.385
770.99	34.518
771.30	38.660
771.61	30.493
771.92	35.377
772.23	34.135
772.54	33.529
772.85	39.726
773.16	40.000
773.47	34.395
773.78	38.922
774.09	36.842
774.39	32.353
774.70	37.594
775.01	31.538
775.32	37.302
775.63	26.772
775.94	34.906
776.25	37.778
776.56	30.909
776.87	34.188
777.18	51.000
777.48	37.500
777.79	34.259
778.10	28.302
778.41	48.039
778.72	43.396
779.03	35.965
779.34	33.613
779.65	37.324
779.95	40.288
780.26	35.484
780.57	34.058
780.88	33.028
781.19	40.741
781.50	35.246
781.80	39.416
782.11	26.282
782.42	17.931
782.73	32.168
783.04	29.600
783.34	30.400
783.65	36.585
783.96	24.590
784.27	34.454
784.57	27.103
784.88	25.893
785.19	38.144
785.50	31.579
785.81	37.000
786.11	26.733
786.42	16.471
786.73	32.292
787.04	35.714
787.34	35.185
787.65	40.566
787.96	19.588
788.26	28.713
788.57	33.043
788.88	30.275
789.19	29.752
789.49	23.478
789.80	18.966
790.11	19.512
790.41	35.955
790.72	19.767
791.03	31.395
791.33	15.584
791.64	35.366
791.95	24.390
792.25	21.687
792.56	20.988
792.87	35.211
793.17	45.783
793.48	28.235
793.79	25.000
794.09	50.000
794.40	41.304
794.70	24.348
795.01	26.606
795.32	32.283
795.62	30.392
795.93	25.490
796.23	28.283
796.54	31.395
796.85	26.087
797.15	26.563
797.46	28.814
797.76	24.590
798.07	28.947
798.37	25.806
798.68	31.250
798.99	50.769
799.29	33.333
799.60	33.333
799.90	37.143
800.21	22.807
800.51	13.793
800.82	18.868
801.12	13.725
801.43	11.290
801.73	38.710
802.04	48.000
802.34	28.302
802.65	13.158
802.95	36.364
803.26	32.075
803.56	29.508
803.87	24.000
804.17	16.667
804.48	40.385
804.78	8.163
805.09	48.936
805.39	40.678
805.70	18.750
806.00	32.143
806.30	33.898
806.61	16.923
806.91	10.769
807.22	27.632
807.52	42.857
807.83	32.759
808.13	37.975
808.43	19.672
808.74	31.148
809.04	33.784
809.35	16.667
809.65	41.071
809.95	22.034
810.26	16.327
810.56	13.208
810.86	54.902
811.17	37.838
811.47	3.704
811.77	43.137
812.08	34.091
812.38	66.667
812.69	28.205
812.99	38.095
813.29	32.609
813.59	31.429
813.90	42.857
814.20	38.182
814.50	14.286
814.81	5.882
815.11	33.333
815.41	14.634
815.72	19.231
816.02	31.915
816.32	46.875
816.62	48.485
816.93	-15.152
817.23	27.027
817.53	38.235
817.84	57.500
818.14	38.235
818.44	25.000
818.74	-33.333
819.04	2.857
819.35	37.143
819.65	36.364
819.95	20.513
820.25	27.778
820.56	-10.345
820.86	0.000
821.16	17.391
821.46	40.476
821.76	37.037
822.07	52.174
822.37	16.327
822.67	25.581
822.97	-8.696
823.27	3.846
823.57	37.037
823.88	14.286
824.18	5.128
824.48	53.571
824.78	72.727
825.08	-26.667
825.38	12.500
825.69	-38.889
825.99	37.037
826.29	62.222
826.59	-3.704
826.89	25.926
827.19	42.857
827.49	-18.182
827.79	-40.909
828.09	50.000
828.39	-26.087
828.70	59.259
829.00	28.571
829.30	26.190
829.60	51.613
829.90	26.923
830.20	25.641
830.50	-18.182
830.80	4.762
831.10	-27.778
831.40	-7.143
831.70	-7.407
832.00	5.882
832.30	78.261
832.60	37.500
832.90	-100.000
833.20	-38.889
833.50	6.250
833.80	30.769
834.10	52.000
834.40	37.500
834.70	40.909
835.00	38.462
835.30	40.000
835.60	20.000
835.90	45.000
836.20	21.429
836.50	69.565
836.80	55.556
837.10	53.333
837.40	-60.000
837.70	8.696
838.00	21.429
838.30	1300.000
838.60	48.000
838.90	-200.000
839.19	-66.667
839.49	-300.000
839.79	-23.529
840.09	0.000
840.39	14.286
840.69	-55.556
840.99	50.000
841.29	6.897
841.59	-80.000
841.88	-9.091
842.18	-316.667
842.48	62.500
842.78	73.077
843.08	-17.647
843.38	-15.000
843.68	15.385
843.97	0.000
844.27	-30.000
844.57	33.333
844.87	-100.000
845.17	5.263
845.47	5.556
845.76	33.333
846.06	4.762
846.36	50.000
846.66	-166.667
846.96	-5.000
847.25	60.000
847.55	-75.000
847.85	26.667
848.15	-100.000
848.44	15.789
848.74	40.000
849.04	31.579
849.34	-66.667
849.63	-50.000
849.93	23.529
850.23	-27.273
850.53	-266.667
850.82	-40.000
851.12	11.111
851.42	128.571
851.71	-120.000
852.01	14.286
852.31	200.000
852.61	61.538
852.90	0.000
853.20	-66.667
853.50	-122.222
853.79	-50.000
854.09	-20.000
854.39	47.368
854.68	40.000
854.98	-50.000
855.28	61.111
855.57	-121.429
855.87	0.000
856.17	-62.500
856.46	57.692
856.76	-6.667
857.05	-31.250
857.35	20.833
857.65	-11.111
857.94	-100.000
858.24	-43.478
858.53	-100.000
858.83	-233.333
859.13	-9.091
859.42	-60.000
859.72	-33.333
860.01	38.462
860.31	10.000
860.60	-200.000
860.90	-175.000
861.20	-183.333
861.49	-100.000
861.79	600.000
862.08	22.581
862.38	36.842
862.67	69.231
862.97	-150.000
863.26	33.333
863.56	21.739
863.85	-150.000
864.15	-42.857
864.44	31.250
864.74	-125.000
865.03	-55.556
865.33	-266.667
865.62	-1000.000
865.92	-250.000
866.21	-266.667
866.51	-36.364
866.80	-133.333
867.10	-42.857
867.39	55.556
867.69	-83.333
867.98	-20.000
868.27	-25.000
868.57	275.000
868.86	-40.000
869.16	-53.846
869.45	650.000
869.75	-66.667
870.04	-100.000
870.33	17.647
870.63	0.000
870.92	78.261
871.22	-100.000
871.51	320.000
871.80	-12.500
872.10	-33.333
>>>>>End Processed Spectral Data<<<<<
