SpectraSuite Data File
++++++++++++++++++++++++++++++++++++
Date: Tue May 12 19:59:35 PDT 2015
User: schluterlab
Dark Spectrum Present: Yes
Reference Spectrum Present: Yes
Number of Sampled Component Spectra: 1
Spectrometers: USB2E3373
Integration Time (usec): 3000 (USB2E3373)
Spectra Averaged: 3 (USB2E3373)
Boxcar Smoothing: 0 (USB2E3373)
Correct for Electrical Dark: No (USB2E3373)
Strobe/Lamp Enabled: No (USB2E3373)
Correct for Detector Non-linearity: No (USB2E3373)
Correct for Stray Light: No (USB2E3373)
Number of Pixels in Processed Spectrum: 2048
>>>>>Begin Processed Spectral Data<<<<<
178.53	0.000
178.91	-160.000
179.29	-150.000
179.67	866.667
180.04	0.000
180.42	-320.000
180.80	-566.667
181.18	1100.000
181.56	-900.000
181.94	200.000
182.31	2500.000
182.69	-157.143
183.07	0.000
183.45	258.333
183.83	420.000
184.20	400.000
184.58	1150.000
184.96	516.667
185.34	-733.333
185.72	-114.286
186.09	-200.000
186.47	-2200.000
186.85	-240.000
187.23	300.000
187.61	-371.429
187.98	-480.000
188.36	1200.000
188.74	-225.000
189.12	-233.333
189.49	-250.000
189.87	525.000
190.25	322.222
190.63	500.000
191.00	400.000
191.38	-800.000
191.76	480.000
192.14	-214.286
192.51	-180.000
192.89	-240.000
193.27	-300.000
193.65	-466.667
194.02	-250.000
194.40	2400.000
194.78	-287.500
195.15	-328.571
195.53	666.667
195.91	100.000
196.29	-900.000
196.66	-366.667
197.04	-414.286
197.42	220.000
197.79	-112.500
198.17	-91.667
198.55	-800.000
198.92	-277.778
199.30	1100.000
199.68	-400.000
200.05	-1050.000
200.43	-83.333
200.81	-250.000
201.18	466.667
201.56	-1000.000
201.94	-2500.000
202.31	-83.333
202.69	-111.111
203.07	-83.333
203.44	-225.000
203.82	0.000
204.19	300.000
204.57	-833.333
204.95	254.545
205.32	540.000
205.70	500.000
206.08	-1500.000
206.45	-280.000
206.83	2700.000
207.20	-233.333
207.58	-69.231
207.96	766.667
208.33	733.333
208.71	900.000
209.08	1300.000
209.46	-188.889
209.84	1100.000
210.21	-1000.000
210.59	1250.000
210.96	300.000
211.34	-625.000
211.71	1750.000
212.09	-400.000
212.46	-250.000
212.84	-175.000
213.22	200.000
213.59	-187.500
213.97	0.000
214.34	-850.000
214.72	-1900.000
215.09	950.000
215.47	-66.667
215.84	-175.000
216.22	-2700.000
216.59	2400.000
216.97	-75.000
217.34	-433.333
217.72	-44.444
218.09	700.000
218.47	-89.474
218.84	-312.500
219.22	-64.286
219.59	-170.000
219.97	-180.000
220.34	333.333
220.72	236.364
221.09	-1100.000
221.47	0.000
221.84	500.000
222.22	-400.000
222.59	-575.000
222.97	8.696
223.34	173.333
223.72	442.857
224.09	-183.333
224.46	230.769
224.84	-80.000
225.21	-600.000
225.59	-500.000
225.96	-20.000
226.34	383.333
226.71	350.000
227.08	-146.154
227.46	-300.000
227.83	-158.333
228.21	-1250.000
228.58	300.000
228.95	-110.526
229.33	-50.000
229.70	-500.000
230.08	-244.444
230.45	-666.667
230.82	-2000.000
231.20	-33.333
231.57	-380.000
231.95	-733.333
232.32	255.556
232.69	-1350.000
233.07	-25.000
233.44	-200.000
233.81	-12.903
234.19	-520.000
234.56	-72.222
234.93	-400.000
235.31	-25.926
235.68	-14.815
236.05	-23.077
236.43	-63.158
236.80	-4.545
237.17	-128.571
237.55	-90.000
237.92	-2.326
238.29	-9.677
238.67	10.714
239.04	11.429
239.41	3.922
239.79	8.000
240.16	10.000
240.53	1.724
240.91	-6.849
241.28	11.268
241.65	12.500
242.02	14.035
242.40	13.333
242.77	16.842
243.14	22.353
243.51	29.032
243.89	16.190
244.26	19.444
244.63	20.408
245.00	18.750
245.38	17.647
245.75	14.407
246.12	28.906
246.49	20.800
246.87	20.492
247.24	15.493
247.61	25.166
247.98	24.719
248.36	30.189
248.73	24.432
249.10	31.111
249.47	30.729
249.84	31.472
250.22	33.333
250.59	33.708
250.96	27.273
251.33	37.736
251.70	31.193
252.08	37.662
252.45	29.388
252.82	29.536
253.19	35.019
253.56	37.255
253.94	32.927
254.31	33.453
254.68	31.944
255.05	35.430
255.42	31.636
255.79	36.424
256.16	34.028
256.54	34.545
256.91	34.295
257.28	38.312
257.65	33.770
258.02	34.535
258.39	32.326
258.76	36.086
259.14	32.941
259.51	38.310
259.88	37.176
260.25	32.955
260.62	31.742
260.99	32.312
261.36	34.770
261.73	36.533
262.10	38.420
262.47	40.496
262.85	34.447
263.22	36.022
263.59	35.925
263.96	33.943
264.33	34.501
264.70	31.941
265.07	35.468
265.44	37.237
265.81	38.072
266.18	37.237
266.55	36.429
266.92	37.054
267.29	35.778
267.66	34.773
268.03	36.129
268.40	35.011
268.77	34.076
269.14	35.084
269.51	36.652
269.88	36.966
270.25	35.232
270.62	38.655
270.99	36.421
271.36	34.216
271.73	36.875
272.10	36.515
272.47	36.400
272.84	33.546
273.21	35.491
273.58	33.673
273.95	34.661
274.32	37.331
274.69	37.769
275.06	36.773
275.43	33.400
275.80	34.799
276.17	35.771
276.54	36.882
276.91	40.307
277.28	35.977
277.65	32.514
278.02	36.364
278.39	35.753
278.76	39.479
279.13	37.209
279.50	38.989
279.87	37.170
280.23	37.887
280.60	33.216
280.97	36.204
281.34	33.898
281.71	34.458
282.08	35.242
282.45	34.039
282.82	36.364
283.19	35.185
283.56	36.689
283.92	34.439
284.29	34.687
284.66	33.982
285.03	30.532
285.40	34.500
285.77	37.438
286.14	32.330
286.51	34.244
286.87	33.549
287.24	34.936
287.61	34.414
287.98	36.620
288.35	32.558
288.72	32.416
289.08	31.447
289.45	31.669
289.82	29.969
290.19	31.818
290.56	31.259
290.93	31.758
291.29	31.631
291.66	32.725
292.03	31.564
292.40	30.216
292.77	31.924
293.13	31.278
293.50	30.303
293.87	29.265
294.24	30.337
294.60	29.508
294.97	28.809
295.34	29.452
295.71	28.710
296.08	28.142
296.44	30.171
296.81	26.649
297.18	30.142
297.55	28.643
297.91	29.442
298.28	28.900
298.65	29.754
299.02	27.004
299.38	26.276
299.75	27.156
300.12	27.458
300.48	27.465
300.85	25.795
301.22	27.163
301.59	27.494
301.95	27.805
302.32	26.002
302.69	25.565
303.05	26.092
303.42	26.570
303.79	24.719
304.15	27.633
304.52	27.263
304.89	25.930
305.25	27.064
305.62	25.227
305.99	25.756
306.35	25.168
306.72	27.669
307.09	24.266
307.45	24.164
307.82	25.507
308.19	25.963
308.55	25.844
308.92	26.589
309.29	23.640
309.65	24.355
310.02	25.262
310.38	25.586
310.75	24.283
311.12	26.043
311.48	26.002
311.85	24.316
312.22	26.033
312.58	25.176
312.95	24.435
313.31	23.500
313.68	23.734
314.05	25.919
314.41	24.361
314.78	24.623
315.14	25.269
315.51	25.422
315.87	26.563
316.24	25.420
316.61	25.340
316.97	23.529
317.34	24.593
317.70	23.996
318.07	23.722
318.43	25.614
318.80	24.681
319.16	24.045
319.53	24.906
319.89	23.958
320.26	24.975
320.62	25.097
320.99	25.306
321.35	24.704
321.72	25.960
322.08	26.436
322.45	24.852
322.81	24.729
323.18	25.503
323.54	26.445
323.91	25.522
324.27	25.169
324.64	24.742
325.00	24.841
325.37	27.068
325.73	25.730
326.10	26.270
326.46	26.564
326.83	26.385
327.19	27.249
327.56	27.851
327.92	25.781
328.29	27.061
328.65	27.778
329.01	27.890
329.38	28.007
329.74	27.762
330.11	26.934
330.47	27.840
330.84	27.632
331.20	27.357
331.56	26.415
331.93	25.892
332.29	28.030
332.66	27.215
333.02	27.019
333.38	28.493
333.75	26.624
334.11	27.396
334.48	25.939
334.84	27.324
335.20	26.768
335.57	26.340
335.93	26.977
336.29	26.874
336.66	27.322
337.02	27.652
337.38	27.075
337.75	27.273
338.11	27.530
338.47	27.112
338.84	27.993
339.20	26.398
339.56	26.468
339.93	26.486
340.29	27.471
340.65	27.215
341.02	25.952
341.38	27.273
341.74	27.402
342.11	27.851
342.47	27.010
342.83	26.453
343.20	26.790
343.56	27.098
343.92	27.034
344.28	25.129
344.65	25.257
345.01	25.784
345.37	27.350
345.73	25.840
346.10	26.448
346.46	26.920
346.82	25.573
347.19	26.072
347.55	25.850
347.91	25.471
348.27	26.285
348.63	24.892
349.00	26.043
349.36	25.969
349.72	26.765
350.08	26.268
350.45	24.329
350.81	25.268
351.17	23.970
351.53	24.316
351.89	24.611
352.26	24.309
352.62	26.410
352.98	25.607
353.34	25.397
353.70	24.198
354.07	25.700
354.43	23.539
354.79	24.508
355.15	24.536
355.51	25.428
355.87	24.313
356.24	26.062
356.60	25.710
356.96	24.250
357.32	25.514
357.68	24.423
358.04	24.716
358.40	24.059
358.77	24.418
359.13	25.863
359.49	23.760
359.85	25.580
360.21	24.822
360.57	24.322
360.93	22.644
361.29	25.312
361.66	24.763
362.02	24.804
362.38	24.631
362.74	24.596
363.10	24.736
363.46	25.583
363.82	23.277
364.18	23.089
364.54	23.969
364.90	24.222
365.26	24.367
365.62	23.997
365.98	24.213
366.35	24.811
366.71	24.122
367.07	24.945
367.43	24.260
367.79	22.602
368.15	23.795
368.51	23.820
368.87	24.743
369.23	23.467
369.59	23.824
369.95	23.621
370.31	24.015
370.67	24.962
371.03	23.452
371.39	23.867
371.75	22.660
372.11	22.000
372.47	23.534
372.83	23.959
373.19	23.946
373.55	23.428
373.91	24.242
374.27	25.239
374.63	23.638
374.99	22.182
375.35	23.222
375.71	23.888
376.07	22.827
376.42	23.375
376.78	22.369
377.14	23.184
377.50	23.461
377.86	24.025
378.22	23.778
378.58	24.079
378.94	22.724
379.30	22.651
379.66	24.136
380.02	23.268
380.38	23.155
380.74	23.866
381.09	21.919
381.45	23.556
381.81	22.704
382.17	23.062
382.53	22.880
382.89	22.065
383.25	22.828
383.61	23.204
383.97	23.002
384.32	22.452
384.68	23.563
385.04	23.361
385.40	22.364
385.76	22.581
386.12	23.564
386.48	23.027
386.83	22.712
387.19	23.052
387.55	21.956
387.91	22.492
388.27	22.393
388.62	22.085
388.98	23.410
389.34	22.251
389.70	22.436
390.06	23.168
390.42	22.583
390.77	22.871
391.13	23.097
391.49	22.911
391.85	21.756
392.20	23.498
392.56	22.069
392.92	22.882
393.28	22.980
393.64	21.976
393.99	21.948
394.35	22.064
394.71	22.517
395.07	22.613
395.42	21.841
395.78	22.177
396.14	21.985
396.50	22.380
396.85	22.538
397.21	22.704
397.57	21.527
397.92	22.455
398.28	22.662
398.64	21.778
399.00	22.403
399.35	21.981
399.71	22.575
400.07	22.607
400.42	22.885
400.78	21.945
401.14	22.475
401.49	22.798
401.85	22.540
402.21	22.462
402.57	22.022
402.92	23.307
403.28	22.692
403.63	22.564
403.99	21.532
404.35	22.102
404.70	22.103
405.06	22.629
405.42	23.162
405.77	21.463
406.13	22.162
406.49	22.334
406.84	22.790
407.20	22.491
407.55	22.512
407.91	22.028
408.27	22.606
408.62	21.672
408.98	22.136
409.34	21.895
409.69	21.405
410.05	21.373
410.40	21.323
410.76	22.167
411.11	22.043
411.47	22.517
411.83	21.958
412.18	22.513
412.54	22.639
412.89	22.215
413.25	22.633
413.60	23.087
413.96	22.071
414.31	21.861
414.67	22.080
415.03	22.822
415.38	22.284
415.74	22.968
416.09	21.847
416.45	22.505
416.80	21.558
417.16	22.073
417.51	22.346
417.87	22.572
418.22	22.059
418.58	22.460
418.93	22.566
419.29	22.456
419.64	23.283
420.00	22.724
420.35	22.536
420.71	22.343
421.06	22.842
421.42	22.898
421.77	22.960
422.12	21.855
422.48	22.616
422.83	21.884
423.19	21.941
423.54	22.114
423.90	22.126
424.25	22.538
424.61	22.516
424.96	22.604
425.31	22.766
425.67	22.182
426.02	23.043
426.38	21.943
426.73	22.991
427.09	21.930
427.44	22.901
427.79	23.886
428.15	22.828
428.50	22.802
428.85	22.130
429.21	23.252
429.56	21.436
429.92	22.228
430.27	21.280
430.62	22.823
430.98	21.977
431.33	22.024
431.68	22.210
432.04	23.360
432.39	22.519
432.74	21.695
433.10	22.680
433.45	23.179
433.80	22.560
434.16	22.267
434.51	21.906
434.86	22.477
435.22	23.341
435.57	23.219
435.92	21.796
436.28	22.603
436.63	22.719
436.98	22.901
437.34	23.097
437.69	22.901
438.04	22.596
438.39	22.650
438.75	22.769
439.10	23.512
439.45	23.492
439.81	22.286
440.16	22.449
440.51	22.305
440.86	22.917
441.22	21.799
441.57	21.823
441.92	22.805
442.27	22.629
442.63	23.025
442.98	22.738
443.33	23.325
443.68	21.631
444.03	22.062
444.39	22.384
444.74	22.553
445.09	23.967
445.44	22.157
445.79	23.301
446.15	22.332
446.50	22.846
446.85	23.267
447.20	22.319
447.55	21.873
447.91	22.928
448.26	22.611
448.61	21.813
448.96	22.827
449.31	22.363
449.66	22.700
450.02	22.426
450.37	22.600
450.72	22.262
451.07	22.347
451.42	23.057
451.77	22.131
452.12	22.306
452.47	22.764
452.83	23.039
453.18	22.890
453.53	24.494
453.88	22.974
454.23	23.003
454.58	23.956
454.93	22.684
455.28	22.743
455.63	22.807
455.98	23.287
456.34	23.376
456.69	22.817
457.04	23.031
457.39	24.032
457.74	23.198
458.09	22.278
458.44	23.053
458.79	21.967
459.14	23.554
459.49	23.439
459.84	23.484
460.19	23.640
460.54	22.348
460.89	23.118
461.24	22.662
461.59	24.038
461.94	23.537
462.29	22.556
462.64	23.607
462.99	23.713
463.34	22.564
463.69	23.663
464.04	22.579
464.39	23.923
464.74	23.037
465.09	23.666
465.44	23.635
465.79	23.045
466.14	22.971
466.49	23.736
466.84	23.403
467.19	23.067
467.54	23.011
467.89	22.861
468.24	22.854
468.59	24.084
468.94	24.681
469.29	23.253
469.64	23.997
469.99	23.071
470.34	22.419
470.68	22.846
471.03	23.577
471.38	23.934
471.73	23.910
472.08	24.769
472.43	25.035
472.78	23.205
473.13	24.211
473.48	23.721
473.83	23.844
474.17	23.149
474.52	23.644
474.87	23.295
475.22	23.380
475.57	23.208
475.92	23.479
476.27	23.448
476.61	23.463
476.96	23.651
477.31	23.973
477.66	23.881
478.01	22.072
478.36	23.840
478.70	24.225
479.05	23.389
479.40	24.599
479.75	23.444
480.10	24.513
480.45	24.084
480.79	24.390
481.14	22.720
481.49	23.856
481.84	23.687
482.19	22.878
482.53	23.529
482.88	23.996
483.23	24.271
483.58	23.614
483.92	23.920
484.27	24.056
484.62	23.668
484.97	23.814
485.31	23.627
485.66	23.047
486.01	22.458
486.36	22.855
486.70	23.399
487.05	23.751
487.40	23.026
487.75	23.304
488.09	22.713
488.44	23.762
488.79	23.547
489.13	23.940
489.48	23.675
489.83	24.503
490.17	24.098
490.52	24.140
490.87	25.173
491.22	25.000
491.56	24.259
491.91	24.548
492.26	25.548
492.60	25.153
492.95	24.179
493.30	25.562
493.64	24.391
493.99	25.616
494.34	25.849
494.68	25.025
495.03	23.732
495.37	24.531
495.72	24.842
496.07	24.138
496.41	23.864
496.76	25.167
497.11	24.569
497.45	24.761
497.80	24.455
498.14	24.868
498.49	25.307
498.84	24.633
499.18	23.716
499.53	24.818
499.87	24.782
500.22	25.195
500.56	25.746
500.91	25.957
501.26	24.672
501.60	25.025
501.95	25.179
502.29	24.833
502.64	24.440
502.98	24.432
503.33	24.314
503.67	24.094
504.02	24.719
504.36	25.321
504.71	25.426
505.06	24.264
505.40	25.362
505.75	24.697
506.09	24.648
506.44	25.215
506.78	24.839
507.13	25.027
507.47	25.208
507.82	25.056
508.16	24.722
508.51	26.204
508.85	24.945
509.19	24.410
509.54	25.892
509.88	24.626
510.23	25.562
510.57	25.610
510.92	26.134
511.26	25.330
511.61	25.628
511.95	25.622
512.30	26.261
512.64	25.513
512.98	25.812
513.33	24.795
513.67	25.269
514.02	25.481
514.36	25.741
514.70	26.169
515.05	26.341
515.39	25.533
515.74	25.689
516.08	25.424
516.42	26.663
516.77	26.025
517.11	25.382
517.46	25.859
517.80	25.654
518.14	26.439
518.49	26.843
518.83	26.329
519.17	26.928
519.52	25.921
519.86	26.346
520.20	25.669
520.55	27.676
520.89	27.665
521.23	27.188
521.58	27.249
521.92	26.235
522.26	26.942
522.61	27.031
522.95	27.466
523.29	27.665
523.64	26.187
523.98	26.747
524.32	26.936
524.66	27.260
525.01	27.423
525.35	27.291
525.69	27.254
526.04	26.638
526.38	27.553
526.72	27.500
527.06	27.496
527.41	26.364
527.75	26.777
528.09	27.086
528.43	26.860
528.78	26.695
529.12	26.849
529.46	26.645
529.80	27.161
530.15	27.728
530.49	27.197
530.83	26.609
531.17	27.825
531.51	26.767
531.86	27.311
532.20	27.273
532.54	26.619
532.88	27.709
533.22	27.514
533.57	26.552
533.91	26.359
534.25	27.359
534.59	26.891
534.93	27.535
535.27	26.195
535.62	26.536
535.96	26.797
536.30	27.070
536.64	27.253
536.98	26.696
537.32	27.604
537.66	27.053
538.01	27.541
538.35	26.182
538.69	25.832
539.03	26.748
539.37	26.777
539.71	27.971
540.05	26.918
540.39	27.378
540.73	28.059
541.07	26.544
541.42	26.301
541.76	25.827
542.10	26.829
542.44	27.312
542.78	26.026
543.12	25.199
543.46	27.049
543.80	26.948
544.14	27.384
544.48	27.228
544.82	26.544
545.16	27.609
545.50	27.584
545.84	28.091
546.18	26.966
546.52	27.440
546.86	27.161
547.20	28.333
547.54	26.611
547.88	25.570
548.22	26.301
548.56	27.273
548.90	27.579
549.24	27.412
549.58	27.124
549.92	26.466
550.26	27.413
550.60	27.756
550.94	27.778
551.28	27.236
551.62	28.993
551.96	28.275
552.30	27.442
552.64	27.273
552.98	26.077
553.32	26.894
553.66	27.162
554.00	27.645
554.34	28.125
554.68	26.236
555.02	27.937
555.36	27.164
555.69	26.134
556.03	27.864
556.37	26.707
556.71	26.848
557.05	26.797
557.39	26.667
557.73	26.651
558.07	27.700
558.41	25.858
558.75	27.137
559.08	29.021
559.42	28.344
559.76	26.959
560.10	28.606
560.44	26.683
560.78	26.597
561.12	27.799
561.45	26.637
561.79	26.138
562.13	27.205
562.47	27.446
562.81	26.914
563.15	25.171
563.48	25.918
563.82	27.584
564.16	26.996
564.50	27.436
564.84	27.144
565.17	27.110
565.51	27.797
565.85	26.761
566.19	26.862
566.52	27.240
566.86	27.391
567.20	26.813
567.54	26.356
567.88	26.517
568.21	26.671
568.55	25.693
568.89	25.549
569.23	24.950
569.56	25.609
569.90	25.482
570.24	24.941
570.57	24.417
570.91	25.036
571.25	24.793
571.59	24.525
571.92	23.442
572.26	23.542
572.60	24.214
572.93	23.870
573.27	23.653
573.61	23.801
573.95	23.479
574.28	23.614
574.62	23.213
574.96	23.259
575.29	23.490
575.63	23.299
575.97	23.321
576.30	23.395
576.64	23.401
576.98	23.153
577.31	23.724
577.65	23.293
577.98	23.129
578.32	22.763
578.66	23.043
578.99	23.608
579.33	22.807
579.67	22.874
580.00	23.209
580.34	23.132
580.67	22.330
581.01	23.437
581.35	22.509
581.68	23.107
582.02	22.746
582.35	22.789
582.69	23.182
583.02	22.723
583.36	22.691
583.70	23.091
584.03	23.484
584.37	24.094
584.70	23.092
585.04	22.799
585.37	22.540
585.71	22.608
586.04	23.382
586.38	23.127
586.72	23.962
587.05	23.159
587.39	23.859
587.72	23.256
588.06	23.353
588.39	23.693
588.73	23.485
589.06	23.558
589.40	23.618
589.73	24.121
590.07	23.422
590.40	24.595
590.73	23.698
591.07	24.242
591.40	23.938
591.74	23.834
592.07	24.594
592.41	23.946
592.74	23.945
593.08	24.305
593.41	23.620
593.75	24.334
594.08	24.097
594.41	23.964
594.75	24.041
595.08	23.997
595.42	23.808
595.75	24.280
596.09	23.819
596.42	23.679
596.75	24.136
597.09	23.274
597.42	24.214
597.75	23.546
598.09	24.251
598.42	24.089
598.76	24.818
599.09	23.908
599.42	23.092
599.76	23.578
600.09	24.239
600.42	23.633
600.76	23.249
601.09	23.647
601.42	24.034
601.76	23.214
602.09	23.921
602.42	24.663
602.76	23.386
603.09	24.238
603.42	23.935
603.76	24.171
604.09	24.394
604.42	23.486
604.76	23.779
605.09	23.760
605.42	24.787
605.75	23.892
606.09	24.489
606.42	24.059
606.75	24.245
607.09	24.067
607.42	23.635
607.75	24.472
608.08	24.322
608.42	24.394
608.75	23.812
609.08	23.170
609.41	24.987
609.75	24.645
610.08	23.928
610.41	24.835
610.74	24.671
611.07	25.119
611.41	22.859
611.74	24.102
612.07	25.112
612.40	24.735
612.73	24.479
613.07	24.486
613.40	24.784
613.73	24.685
614.06	24.297
614.39	25.835
614.72	23.672
615.06	24.110
615.39	25.173
615.72	23.852
616.05	24.870
616.38	24.852
616.71	24.689
617.05	24.623
617.38	25.097
617.71	25.931
618.04	25.099
618.37	25.768
618.70	24.796
619.03	26.468
619.36	25.184
619.69	24.650
620.03	26.163
620.36	25.321
620.69	25.351
621.02	25.653
621.35	25.872
621.68	26.373
622.01	24.421
622.34	25.796
622.67	26.391
623.00	26.454
623.33	25.197
623.66	27.092
623.99	26.156
624.32	25.576
624.65	25.703
624.99	25.312
625.32	25.671
625.65	25.781
625.98	27.417
626.31	25.281
626.64	27.387
626.97	27.757
627.30	26.111
627.63	26.140
627.96	26.164
628.29	28.107
628.62	27.010
628.95	28.194
629.28	26.446
629.61	27.168
629.94	28.631
630.26	28.033
630.59	27.435
630.92	26.449
631.25	27.933
631.58	27.674
631.91	27.677
632.24	28.994
632.57	30.083
632.90	30.627
633.23	29.032
633.56	28.931
633.89	27.704
634.22	28.590
634.55	28.121
634.88	27.577
635.20	30.000
635.53	31.564
635.86	30.707
636.19	27.558
636.52	29.515
636.85	25.033
637.18	30.440
637.51	28.455
637.83	29.749
638.16	30.014
638.49	30.403
638.82	28.411
639.15	26.714
639.48	28.384
639.81	30.104
640.13	28.025
640.46	28.189
640.79	28.837
641.12	28.527
641.45	27.994
641.77	28.662
642.10	30.293
642.43	30.303
642.76	30.287
643.09	31.661
643.41	30.108
643.74	30.208
644.07	28.924
644.40	29.964
644.73	29.098
645.05	29.771
645.38	30.000
645.71	30.153
646.04	28.810
646.36	28.598
646.69	29.787
647.02	33.203
647.35	32.000
647.67	33.868
648.00	33.204
648.33	30.443
648.66	30.427
648.98	27.966
649.31	29.088
649.64	29.432
649.96	27.027
650.29	27.257
650.62	29.870
650.94	29.945
651.27	29.480
651.60	27.151
651.92	28.244
652.25	26.386
652.58	29.982
652.90	25.623
653.23	28.154
653.56	29.514
653.88	26.825
654.21	29.112
654.54	28.143
654.86	29.676
655.19	25.968
655.52	28.396
655.84	24.514
656.17	23.022
656.49	31.268
656.82	35.003
657.15	28.172
657.47	21.216
657.80	15.594
658.13	12.965
658.45	21.599
658.78	21.196
659.10	20.883
659.43	20.182
659.75	20.293
660.08	20.839
660.41	21.718
660.73	26.593
661.06	25.455
661.38	30.645
661.71	27.790
662.03	29.630
662.36	26.969
662.68	26.619
663.01	32.933
663.33	29.953
663.66	30.861
663.98	29.340
664.31	32.195
664.63	28.899
664.96	30.404
665.28	29.078
665.61	32.477
665.93	29.032
666.26	31.347
666.58	27.064
666.91	29.977
667.23	28.571
667.56	31.111
667.88	30.075
668.21	30.711
668.53	30.203
668.86	29.592
669.18	29.442
669.50	31.620
669.83	26.000
670.15	29.750
670.48	27.569
670.80	28.426
671.13	27.952
671.45	27.551
671.77	27.536
672.10	29.231
672.42	26.892
672.75	25.437
673.07	28.972
673.39	28.405
673.72	28.099
674.04	30.426
674.37	29.330
674.69	28.271
675.01	26.744
675.34	29.167
675.66	28.333
675.98	28.283
676.31	30.227
676.63	29.381
676.95	29.736
677.28	26.980
677.60	30.827
677.92	24.561
678.25	26.914
678.57	28.770
678.89	26.147
679.22	29.358
679.54	26.281
679.86	28.694
680.18	25.523
680.51	25.873
680.83	26.042
681.15	28.105
681.48	27.660
681.80	27.391
682.12	28.694
682.44	25.647
682.77	28.182
683.09	26.716
683.41	30.326
683.73	29.397
684.06	28.173
684.38	27.338
684.70	30.485
685.02	24.675
685.34	24.268
685.67	27.075
685.99	28.543
686.31	26.493
686.63	25.631
686.96	25.000
687.28	29.158
687.60	25.462
687.92	23.840
688.24	25.263
688.56	23.956
688.89	28.082
689.21	24.651
689.53	26.854
689.85	27.595
690.17	24.755
690.49	24.941
690.82	23.587
691.14	28.721
691.46	26.000
691.78	25.359
692.10	26.606
692.42	26.835
692.74	28.199
693.06	25.301
693.39	25.123
693.71	25.581
694.03	25.121
694.35	26.980
694.67	27.226
694.99	24.528
695.31	24.646
695.63	23.784
695.95	29.213
696.27	27.762
696.59	25.223
696.91	24.217
697.23	27.507
697.56	26.943
697.88	24.356
698.20	23.729
698.52	25.481
698.84	24.561
699.16	25.330
699.48	30.105
699.80	24.176
700.12	25.620
700.44	23.009
700.76	25.868
701.08	23.810
701.40	25.000
701.72	31.000
702.04	28.571
702.36	25.574
702.68	27.852
703.00	25.868
703.32	23.653
703.64	25.868
703.96	22.152
704.28	24.648
704.60	24.315
704.91	25.987
705.23	28.421
705.55	23.420
705.87	23.381
706.19	22.709
706.51	24.609
706.83	27.106
707.15	23.390
707.47	24.850
707.79	25.215
708.11	22.751
708.43	26.933
708.74	23.770
709.06	23.620
709.38	23.442
709.70	21.104
710.02	22.727
710.34	24.823
710.66	27.341
710.98	23.776
711.29	25.773
711.61	22.340
711.93	23.221
712.25	29.057
712.57	22.266
712.89	24.490
713.20	22.177
713.52	26.423
713.84	22.993
714.16	21.622
714.48	27.645
714.80	24.579
715.11	29.553
715.43	23.208
715.75	21.754
716.07	22.909
716.39	20.478
716.70	22.800
717.02	25.806
717.34	33.333
717.66	25.909
717.97	19.907
718.29	29.778
718.61	22.072
718.93	25.210
719.24	26.778
719.56	23.214
719.88	26.275
720.20	19.658
720.51	27.193
720.83	26.778
721.15	23.673
721.46	28.270
721.78	20.346
722.10	22.093
722.42	27.826
722.73	18.552
723.05	27.189
723.37	23.982
723.68	26.066
724.00	23.148
724.32	26.636
724.63	25.792
724.95	21.918
725.27	23.944
725.58	22.831
725.90	20.270
726.22	20.524
726.53	24.180
726.85	21.481
727.16	24.291
727.48	18.952
727.80	21.461
728.11	20.444
728.43	25.514
728.74	20.614
729.06	23.581
729.38	23.256
729.69	24.400
730.01	16.736
730.32	19.920
730.64	19.615
730.96	19.691
731.27	18.533
731.59	20.539
731.90	22.368
732.22	23.256
732.53	21.053
732.85	17.958
733.16	22.711
733.48	18.657
733.80	25.091
734.11	21.986
734.43	24.910
734.74	20.872
735.06	23.473
735.37	25.240
735.69	20.070
736.00	20.000
736.32	24.126
736.63	23.333
736.95	19.455
737.26	22.826
737.58	15.328
737.89	22.264
738.21	16.412
738.52	25.820
738.83	20.085
739.15	25.000
739.46	16.216
739.78	22.008
740.09	20.635
740.41	18.939
740.72	15.936
741.04	21.344
741.35	20.628
741.66	23.118
741.98	20.408
742.29	19.689
742.61	13.295
742.92	24.020
743.23	22.388
743.55	21.244
743.86	21.256
744.18	20.000
744.49	21.667
744.80	20.430
745.12	14.872
745.43	20.321
745.74	22.460
746.06	24.138
746.37	19.444
746.68	28.108
747.00	12.707
747.31	18.325
747.62	23.684
747.94	25.943
748.25	25.123
748.56	25.758
748.88	22.951
749.19	20.725
749.50	25.882
749.82	22.000
750.13	15.534
750.44	20.172
750.75	25.200
751.07	18.828
751.38	19.141
751.69	23.413
752.01	26.050
752.32	20.248
752.63	21.397
752.94	19.600
753.26	15.525
753.57	18.009
753.88	16.744
754.19	17.621
754.51	19.665
754.82	20.833
755.13	19.469
755.44	22.078
755.75	22.088
756.07	22.747
756.38	21.339
756.69	20.377
757.00	23.050
757.31	19.723
757.63	24.510
757.94	18.182
758.25	20.238
758.56	20.541
758.87	20.833
759.18	22.430
759.50	18.861
759.81	18.919
760.12	19.929
760.43	23.920
760.74	22.156
761.05	19.872
761.36	25.816
761.67	17.021
761.99	19.732
762.30	17.818
762.61	23.171
762.92	18.222
763.23	31.163
763.54	23.350
763.85	30.317
764.16	20.000
764.47	18.261
764.78	22.984
765.10	14.961
765.41	18.729
765.72	22.074
766.03	20.401
766.34	21.212
766.65	20.703
766.96	19.556
767.27	22.346
767.58	18.239
767.89	18.831
768.20	16.216
768.51	18.391
768.82	19.375
769.13	27.778
769.44	18.396
769.75	21.569
770.06	14.563
770.37	21.277
770.68	12.821
770.99	18.782
771.30	13.402
771.61	12.108
771.92	16.509
772.23	18.750
772.54	12.941
772.85	11.644
773.16	21.935
773.47	14.650
773.78	16.168
774.09	17.763
774.39	8.824
774.70	9.023
775.01	23.077
775.32	12.698
775.63	21.260
775.94	10.377
776.25	12.593
776.56	15.455
776.87	14.530
777.18	11.000
777.48	3.846
777.79	9.259
778.10	8.491
778.41	13.725
778.72	17.925
779.03	11.404
779.34	11.765
779.65	12.676
779.95	21.583
780.26	4.839
780.57	11.594
780.88	11.009
781.19	12.037
781.50	2.459
781.80	10.219
782.11	17.308
782.42	5.517
782.73	15.385
783.04	12.000
783.34	13.600
783.65	14.634
783.96	12.295
784.27	6.723
784.57	5.607
784.88	16.071
785.19	14.433
785.50	-5.263
785.81	11.000
786.11	6.931
786.42	-12.941
786.73	14.583
787.04	7.143
787.34	17.593
787.65	24.528
787.96	11.340
788.26	1.980
788.57	14.783
788.88	7.339
789.19	-1.653
789.49	2.609
789.80	24.138
790.11	0.000
790.41	13.483
790.72	8.140
791.03	11.628
791.33	-12.987
791.64	10.976
791.95	2.439
792.25	8.434
792.56	-2.469
792.87	-4.225
793.17	9.639
793.48	9.412
793.79	-6.250
794.09	-1.667
794.40	10.870
794.70	2.609
795.01	9.174
795.32	8.661
795.62	4.902
795.93	9.804
796.23	7.071
796.54	-3.488
796.85	-11.594
797.15	-12.500
797.46	3.390
797.76	14.754
798.07	1.316
798.37	-3.226
798.68	-18.750
798.99	6.154
799.29	9.091
799.60	2.899
799.90	-1.429
800.21	1.754
800.51	-8.621
800.82	-7.547
801.12	-21.569
801.43	8.065
801.73	11.290
802.04	32.000
802.34	-28.302
802.65	-28.947
802.95	18.182
803.26	-3.774
803.56	-9.836
803.87	0.000
804.17	-3.704
804.48	-7.692
804.78	-40.816
805.09	6.383
805.39	10.169
805.70	-18.750
806.00	-23.214
806.30	-15.254
806.61	-4.615
806.91	-18.462
807.22	-11.842
807.52	-8.571
807.83	-13.793
808.13	6.329
808.43	-8.197
808.74	9.836
809.04	8.108
809.35	-5.556
809.65	-3.571
809.95	8.475
810.26	-26.531
810.56	3.774
810.86	-11.765
811.17	5.405
811.47	-59.259
811.77	-3.922
812.08	-13.636
812.38	-58.333
812.69	-10.256
812.99	0.000
813.29	8.696
813.59	-17.143
813.90	-9.524
814.20	-3.636
814.50	4.082
814.81	-13.725
815.11	-18.750
815.41	-36.585
815.72	-46.154
816.02	14.894
816.32	-6.250
816.62	-27.273
816.93	-63.636
817.23	-35.135
817.53	-26.471
817.84	-2.500
818.14	-52.941
818.44	-28.125
818.74	-66.667
819.04	-40.000
819.35	-5.714
819.65	-6.818
819.95	-7.692
820.25	-16.667
820.56	-51.724
820.86	-75.000
821.16	-104.348
821.46	-16.667
821.76	0.000
822.07	0.000
822.37	-8.163
822.67	-37.209
822.97	-60.870
823.27	-92.308
823.57	-55.556
823.88	-21.429
824.18	-20.513
824.48	-25.000
824.78	-33.333
825.08	-120.000
825.38	-22.500
825.69	-144.444
825.99	-37.037
826.29	0.000
826.59	-51.852
826.89	-77.778
827.19	-60.714
827.49	-86.364
827.79	-140.909
828.09	-100.000
828.39	-56.522
828.70	-37.037
829.00	-46.429
829.30	-16.667
829.60	-64.516
829.90	-65.385
830.20	5.128
830.50	-81.818
830.80	-76.190
831.10	-105.556
831.40	-128.571
831.70	-44.444
832.00	-41.176
832.30	-26.087
832.60	-37.500
832.90	-127.273
833.20	-77.778
833.50	-12.500
833.80	-23.077
834.10	-36.000
834.40	-66.667
834.70	-45.455
835.00	-46.154
835.30	-35.000
835.60	-210.000
835.90	-65.000
836.20	-21.429
836.50	-21.739
836.80	-55.556
837.10	-93.333
837.40	-210.000
837.70	-95.652
838.00	-114.286
838.30	2400.000
838.60	40.000
838.90	-340.000
839.19	-11.111
839.49	-600.000
839.79	-41.176
840.09	-133.333
840.39	-7.143
840.69	-150.000
840.99	-50.000
841.29	-34.483
841.59	-106.667
841.88	-90.909
842.18	-283.333
842.48	-25.000
842.78	-34.615
843.08	-94.118
843.38	-60.000
843.68	-123.077
843.97	-111.765
844.27	-160.000
844.57	-29.167
844.87	-72.727
845.17	-110.526
845.47	-83.333
845.76	-5.556
846.06	-138.095
846.36	-121.429
846.66	-444.444
846.96	-125.000
847.25	-280.000
847.55	-237.500
847.85	-106.667
848.15	-450.000
848.44	-89.474
848.74	-66.667
849.04	-15.789
849.34	-333.333
849.63	-283.333
849.93	-64.706
850.23	-100.000
850.53	-466.667
850.82	-180.000
851.12	-266.667
851.42	-214.286
851.71	-260.000
852.01	-121.429
852.31	-200.000
852.61	-176.923
852.90	-320.000
853.20	-244.444
853.50	-266.667
853.79	-110.000
854.09	-130.000
854.39	-100.000
854.68	-70.000
854.98	-375.000
855.28	-66.667
855.57	-135.714
855.87	-100.000
856.17	-62.500
856.46	-3.846
856.76	-160.000
857.05	-118.750
857.35	-20.833
857.65	-127.778
857.94	-162.500
858.24	-47.826
858.53	-240.000
858.83	-766.667
859.13	-209.091
859.42	-300.000
859.72	200.000
860.01	-100.000
860.31	-180.000
860.60	-250.000
860.90	-425.000
861.20	-316.667
861.49	-325.000
861.79	850.000
862.08	9.677
862.38	-94.737
862.67	-138.462
862.97	-170.000
863.26	-116.667
863.56	-65.217
863.85	-383.333
864.15	-114.286
864.44	-87.500
864.74	-116.667
865.03	-200.000
865.33	-733.333
865.62	-2000.000
865.92	-750.000
866.21	-333.333
866.51	-100.000
866.80	-566.667
867.10	-242.857
867.39	-144.444
867.69	-116.667
867.98	240.000
868.27	-700.000
868.57	725.000
868.86	-126.667
869.16	-61.538
869.45	1200.000
869.75	-200.000
870.04	-216.667
870.33	5.882
870.63	-300.000
870.92	34.783
871.22	-275.000
871.51	620.000
871.80	-131.250
872.10	-600.000
>>>>>End Processed Spectral Data<<<<<
