SpectraSuite Data File
++++++++++++++++++++++++++++++++++++
Date: Tue May 12 19:56:02 PDT 2015
User: schluterlab
Dark Spectrum Present: Yes
Reference Spectrum Present: Yes
Number of Sampled Component Spectra: 1
Spectrometers: USB2E3373
Integration Time (usec): 3000 (USB2E3373)
Spectra Averaged: 3 (USB2E3373)
Boxcar Smoothing: 0 (USB2E3373)
Correct for Electrical Dark: No (USB2E3373)
Strobe/Lamp Enabled: No (USB2E3373)
Correct for Detector Non-linearity: No (USB2E3373)
Correct for Stray Light: No (USB2E3373)
Number of Pixels in Processed Spectrum: 2048
>>>>>Begin Processed Spectral Data<<<<<
178.53	0.000
178.91	-120.000
179.29	-200.000
179.67	600.000
180.04	0.000
180.42	-260.000
180.80	-600.000
181.18	1000.000
181.56	-400.000
181.94	300.000
182.31	2500.000
182.69	-185.714
183.07	0.000
183.45	291.667
183.83	320.000
184.20	100.000
184.58	1300.000
184.96	533.333
185.34	-433.333
185.72	-114.286
186.09	-333.333
186.47	-2200.000
186.85	-220.000
187.23	266.667
187.61	-357.143
187.98	-440.000
188.36	500.000
188.74	-350.000
189.12	-255.556
189.49	-120.000
189.87	325.000
190.25	222.222
190.63	600.000
191.00	360.000
191.38	-466.667
191.76	460.000
192.14	-242.857
192.51	-170.000
192.89	-240.000
193.27	-400.000
193.65	-533.333
194.02	-350.000
194.40	900.000
194.78	-175.000
195.15	-328.571
195.53	666.667
195.91	500.000
196.29	-500.000
196.66	-300.000
197.04	-300.000
197.42	100.000
197.79	-225.000
198.17	-58.333
198.55	-1500.000
198.92	-177.778
199.30	900.000
199.68	-500.000
200.05	-1200.000
200.43	-66.667
200.81	-141.667
201.18	433.333
201.56	-700.000
201.94	-1700.000
202.31	-125.000
202.69	11.111
203.07	-158.333
203.44	-425.000
203.82	0.000
204.19	362.500
204.57	-366.667
204.95	190.909
205.32	560.000
205.70	550.000
206.08	-1200.000
206.45	-500.000
206.83	2500.000
207.20	-188.889
207.58	-61.538
207.96	433.333
208.33	900.000
208.71	733.333
209.08	1200.000
209.46	-66.667
209.84	733.333
210.21	-800.000
210.59	1100.000
210.96	277.778
211.34	-425.000
211.71	1250.000
212.09	-260.000
212.46	-337.500
212.84	-162.500
213.22	114.286
213.59	-187.500
213.97	0.000
214.34	-1000.000
214.72	-1700.000
215.09	1100.000
215.47	-133.333
215.84	-175.000
216.22	-2300.000
216.59	1100.000
216.97	-108.333
217.34	-150.000
217.72	-50.000
218.09	400.000
218.47	-136.842
218.84	-262.500
219.22	-42.857
219.59	-250.000
219.97	-170.000
220.34	200.000
220.72	209.091
221.09	-1250.000
221.47	0.000
221.84	1250.000
222.22	-350.000
222.59	-350.000
222.97	-65.217
223.34	240.000
223.72	371.429
224.09	-200.000
224.46	230.769
224.84	-126.667
225.21	-500.000
225.59	-625.000
225.96	-5.000
226.34	400.000
226.71	280.000
227.08	-92.308
227.46	-171.429
227.83	-133.333
228.21	-1150.000
228.58	283.333
228.95	-15.789
229.33	-12.500
229.70	-250.000
230.08	-144.444
230.45	-566.667
230.82	-2400.000
231.20	-76.190
231.57	-540.000
231.95	-1200.000
232.32	311.111
232.69	-900.000
233.07	-37.500
233.44	-175.000
233.81	-3.226
234.19	-540.000
234.56	-94.444
234.93	-283.333
235.31	-51.852
235.68	-25.926
236.05	-46.154
236.43	-110.526
236.80	-63.636
237.17	-157.143
237.55	-75.000
237.92	-2.326
238.29	-41.935
238.67	-10.714
239.04	-31.429
239.41	-21.569
239.79	-24.000
240.16	-35.000
240.53	-15.517
240.91	-4.110
241.28	-14.085
241.65	-6.250
242.02	-17.544
242.40	-24.000
242.77	4.211
243.14	0.000
243.51	-5.376
243.89	-10.476
244.26	4.630
244.63	2.041
245.00	-7.143
245.38	-13.445
245.75	4.237
246.12	6.250
246.49	-2.400
246.87	-6.557
247.24	-10.563
247.61	4.636
247.98	-1.124
248.36	4.403
248.73	-1.136
249.10	-2.222
249.47	9.896
249.84	-2.538
250.22	1.042
250.59	-4.494
250.96	3.636
251.33	9.906
251.70	5.963
252.08	2.165
252.45	5.306
252.82	1.688
253.19	4.669
253.56	7.059
253.94	3.252
254.31	11.151
254.68	2.431
255.05	7.285
255.42	5.818
255.79	6.954
256.16	7.986
256.54	10.909
256.91	10.256
257.28	8.442
257.65	6.557
258.02	7.207
258.39	9.668
258.76	7.034
259.14	7.353
259.51	10.704
259.88	8.069
260.25	5.398
260.62	3.090
260.99	5.571
261.36	8.333
261.73	10.133
262.10	10.082
262.47	7.989
262.85	10.283
263.22	8.065
263.59	7.239
263.96	9.922
264.33	4.043
264.70	8.108
265.07	7.882
265.44	8.665
265.81	10.120
266.18	8.197
266.55	8.095
266.92	9.821
267.29	8.000
267.66	4.545
268.03	9.032
268.40	7.094
268.77	4.677
269.14	9.034
269.51	6.109
269.88	7.479
270.25	7.595
270.62	9.664
270.99	8.632
271.36	6.402
271.73	8.125
272.10	8.091
272.47	6.600
272.84	6.582
273.21	7.307
273.58	7.755
273.95	11.155
274.32	10.445
274.69	11.350
275.06	9.944
275.43	7.200
275.80	9.560
276.17	5.929
276.54	10.837
276.91	10.557
277.28	9.478
277.65	6.238
278.02	8.523
278.39	9.982
278.76	9.125
279.13	11.091
279.50	8.845
279.87	9.434
280.23	9.836
280.60	8.304
280.97	10.193
281.34	9.322
281.71	7.815
282.08	8.945
282.45	8.466
282.82	9.428
283.19	9.933
283.56	7.167
283.92	9.163
284.29	9.814
284.66	9.735
285.03	6.175
285.40	10.000
285.77	10.673
286.14	9.033
286.51	8.199
286.87	8.590
287.24	8.013
287.61	8.951
287.98	10.172
288.35	7.752
288.72	8.716
289.08	6.447
289.45	9.516
289.82	6.988
290.19	7.727
290.56	8.104
290.93	7.976
291.29	9.362
291.66	8.427
292.03	9.039
292.40	9.353
292.77	7.580
293.13	8.076
293.50	10.055
293.87	8.877
294.24	7.444
294.60	9.290
294.97	6.925
295.34	7.534
295.71	7.767
296.08	7.650
296.44	8.300
296.81	7.633
297.18	7.374
297.55	7.286
297.91	5.964
298.28	5.115
298.65	6.598
299.02	7.522
299.38	6.888
299.75	7.465
300.12	7.914
300.48	7.864
300.85	6.112
301.22	7.572
301.59	7.421
301.95	6.829
302.32	4.860
302.69	6.064
303.05	6.494
303.42	6.280
303.79	6.180
304.15	7.135
304.52	6.034
304.89	5.411
305.25	7.339
305.62	7.159
305.99	6.831
306.35	7.494
306.72	7.298
307.09	5.332
307.45	5.717
307.82	6.937
308.19	7.591
308.55	6.224
308.92	5.720
309.29	6.695
309.65	7.224
310.02	6.499
310.38	7.356
310.75	6.967
311.12	7.426
311.48	7.091
311.85	5.775
312.22	6.405
312.58	6.445
312.95	8.111
313.31	7.080
313.68	6.256
314.05	7.448
314.41	5.108
314.78	5.729
315.14	7.346
315.51	7.051
315.87	7.422
316.24	6.627
316.61	7.573
316.97	6.863
317.34	8.038
317.70	5.976
318.07	6.172
318.43	7.278
318.80	7.195
319.16	6.337
319.53	6.698
319.89	7.292
320.26	7.768
320.62	7.655
320.99	8.367
321.35	6.621
321.72	8.485
322.08	7.426
322.45	8.185
322.81	8.079
323.18	8.821
323.54	8.341
323.91	8.065
324.27	6.943
324.64	7.310
325.00	8.826
325.37	10.072
325.73	7.847
326.10	9.282
326.46	9.973
326.83	9.938
327.19	9.869
327.56	11.494
327.92	10.764
328.29	10.932
328.65	11.676
329.01	11.009
329.38	12.397
329.74	12.628
330.11	11.836
330.47	12.197
330.84	12.124
331.20	11.738
331.56	11.132
331.93	13.175
332.29	12.211
332.66	13.291
333.02	13.370
333.38	13.603
333.75	12.534
334.11	12.749
334.48	13.506
334.84	13.709
335.20	12.713
335.57	14.532
335.93	14.047
336.29	14.168
336.66	13.752
337.02	14.687
337.38	15.000
337.75	15.000
338.11	14.768
338.47	15.042
338.84	15.285
339.20	14.757
339.56	14.818
339.93	15.045
340.29	15.594
340.65	15.616
341.02	14.969
341.38	15.093
341.74	15.836
342.11	15.650
342.47	14.598
342.83	15.004
343.20	15.385
343.56	16.346
343.92	15.573
344.28	14.237
344.65	14.726
345.01	15.331
345.37	16.838
345.73	15.418
346.10	15.557
346.46	14.927
346.82	15.718
347.19	16.569
347.55	15.561
347.91	15.315
348.27	15.333
348.63	16.508
349.00	17.028
349.36	16.570
349.72	15.517
350.08	16.039
350.45	16.680
350.81	15.442
351.17	15.815
351.53	15.539
351.89	15.717
352.26	15.772
352.62	17.089
352.98	16.318
353.34	16.040
353.70	15.473
354.07	16.145
354.43	15.609
354.79	15.328
355.15	16.465
355.51	16.381
355.87	17.485
356.24	17.157
356.60	16.778
356.96	16.904
357.32	17.613
357.68	17.343
358.04	17.261
358.40	17.430
358.77	17.028
359.13	16.546
359.49	16.160
359.85	18.145
360.21	17.526
360.57	16.986
360.93	16.865
361.29	17.212
361.66	15.773
362.02	17.504
362.38	17.638
362.74	18.140
363.10	17.722
363.46	17.607
363.82	17.458
364.18	16.805
364.54	18.321
364.90	17.111
365.26	17.884
365.62	16.957
365.98	18.741
366.35	17.322
366.71	17.774
367.07	19.041
367.43	17.690
367.79	18.023
368.15	18.087
368.51	18.502
368.87	18.722
369.23	18.395
369.59	18.603
369.95	17.139
370.31	18.409
370.67	17.895
371.03	19.505
371.39	19.713
371.75	19.242
372.11	18.370
372.47	19.228
372.83	19.869
373.19	19.729
373.55	18.862
373.91	19.621
374.27	20.456
374.63	19.661
374.99	19.180
375.35	19.594
375.71	19.871
376.07	19.647
376.42	19.779
376.78	19.443
377.14	20.112
377.50	19.494
377.86	20.961
378.22	20.277
378.58	20.263
378.94	21.284
379.30	20.206
379.66	20.487
380.02	20.470
380.38	21.056
380.74	21.504
381.09	21.410
381.45	20.762
381.81	21.429
382.17	22.476
382.53	22.025
382.89	21.552
383.25	21.053
383.61	21.488
383.97	22.482
384.32	22.774
384.68	21.839
385.04	21.961
385.40	22.492
385.76	21.822
386.12	21.584
386.48	22.309
386.83	21.856
387.19	22.478
387.55	22.409
387.91	22.118
388.27	23.161
388.62	23.705
388.98	23.537
389.34	22.446
389.70	22.500
390.06	23.564
390.42	23.867
390.77	24.681
391.13	23.097
391.49	23.652
391.85	23.553
392.20	23.828
392.56	23.183
392.92	24.242
393.28	23.758
393.64	23.306
393.99	23.442
394.35	23.297
394.71	24.636
395.07	24.337
395.42	24.952
395.78	24.059
396.14	25.050
396.50	24.450
396.85	23.728
397.21	24.515
397.57	24.819
397.92	24.046
398.28	25.060
398.64	25.079
399.00	26.059
399.35	24.795
399.71	25.030
400.07	25.201
400.42	25.705
400.78	25.336
401.14	24.432
401.49	24.672
401.85	25.651
402.21	25.127
402.57	24.211
402.92	24.967
403.28	25.423
403.63	26.026
403.99	24.637
404.35	25.541
404.70	24.383
405.06	25.046
405.42	26.155
405.77	24.673
406.13	24.791
406.49	25.615
406.84	26.339
407.20	25.774
407.55	24.582
407.91	25.524
408.27	25.931
408.62	25.788
408.98	26.190
409.34	25.608
409.69	25.284
410.05	25.583
410.40	25.112
410.76	26.152
411.11	25.533
411.47	25.646
411.83	25.306
412.18	26.309
412.54	26.003
412.89	25.777
413.25	26.270
413.60	26.212
413.96	25.307
414.31	25.239
414.67	27.009
415.03	27.109
415.38	27.019
415.74	27.737
416.09	25.224
416.45	25.690
416.80	25.661
417.16	26.728
417.51	26.093
417.87	28.112
418.22	26.805
418.58	27.091
418.93	26.564
419.29	26.730
419.64	27.747
420.00	28.225
420.35	27.621
420.71	26.376
421.06	27.320
421.42	27.604
421.77	28.197
422.12	27.702
422.48	28.155
422.83	27.903
423.19	28.235
423.54	28.161
423.90	27.936
424.25	28.278
424.61	27.871
424.96	28.440
425.31	28.140
425.67	28.061
426.02	28.882
426.38	28.121
426.73	28.723
427.09	29.022
427.44	28.827
427.79	29.455
428.15	28.852
428.50	29.334
428.85	28.608
429.21	29.588
429.56	28.343
429.92	28.718
430.27	28.533
430.62	28.935
430.98	28.855
431.33	29.588
431.68	28.665
432.04	28.596
432.39	28.699
432.74	29.159
433.10	29.958
433.45	30.716
433.80	30.476
434.16	29.804
434.51	29.989
434.86	29.849
435.22	29.802
435.57	31.135
435.92	30.031
436.28	30.075
436.63	29.994
436.98	30.741
437.34	31.670
437.69	30.741
438.04	30.589
438.39	30.548
438.75	30.277
439.10	31.905
439.45	31.772
439.81	30.921
440.16	31.664
440.51	32.094
440.86	31.944
441.22	31.388
441.57	31.453
441.92	32.413
442.27	32.343
442.63	32.054
442.98	32.335
443.33	33.255
443.68	31.669
444.03	32.010
444.39	31.963
444.74	32.685
445.09	32.822
445.44	32.128
445.79	32.956
446.15	33.061
446.50	32.504
446.85	33.168
447.20	32.385
447.55	31.995
447.91	33.098
448.26	34.362
448.61	31.964
448.96	32.052
449.31	33.273
449.66	32.869
450.02	33.136
450.37	32.868
450.72	32.316
451.07	33.685
451.42	34.124
451.77	31.526
452.12	33.083
452.47	32.995
452.83	32.877
453.18	32.816
453.53	34.095
453.88	33.631
454.23	33.227
454.58	32.833
454.93	32.698
455.28	33.944
455.63	33.983
455.98	34.074
456.34	33.088
456.69	33.446
457.04	33.793
457.39	33.833
457.74	33.944
458.09	33.914
458.44	33.906
458.79	32.980
459.14	33.393
459.49	34.713
459.84	34.483
460.19	33.208
460.54	32.702
460.89	33.176
461.24	34.805
461.59	33.628
461.94	33.136
462.29	33.647
462.64	34.331
462.99	33.212
463.34	33.626
463.69	33.882
464.04	33.675
464.39	33.891
464.74	32.836
465.09	34.727
465.44	33.773
465.79	34.236
466.14	33.055
466.49	33.789
466.84	33.477
467.19	32.749
467.54	32.162
467.89	33.312
468.24	33.460
468.59	33.704
468.94	34.028
469.29	35.017
469.64	34.063
469.99	33.742
470.34	33.805
470.68	33.077
471.03	33.431
471.38	35.602
471.73	34.012
472.08	35.089
472.43	34.993
472.78	34.228
473.13	34.877
473.48	33.817
473.83	34.346
474.17	34.223
474.52	34.963
474.87	34.280
475.22	34.435
475.57	34.665
475.92	34.736
476.27	34.780
476.61	34.693
476.96	35.388
477.31	34.932
477.66	35.212
478.01	35.079
478.36	34.327
478.70	35.380
479.05	35.636
479.40	34.384
479.75	35.334
480.10	35.227
480.45	35.026
480.79	35.080
481.14	35.372
481.49	35.219
481.84	35.354
482.19	34.829
482.53	34.314
482.88	34.825
483.23	35.126
483.58	34.604
483.92	34.271
484.27	34.705
484.62	35.266
484.97	34.798
485.31	34.223
485.66	32.899
486.01	32.730
486.36	33.299
486.70	33.844
487.05	34.173
487.40	33.996
487.75	33.868
488.09	32.707
488.44	33.062
488.79	32.645
489.13	33.375
489.48	33.392
489.83	33.241
490.17	34.693
490.52	33.891
490.87	34.669
491.22	34.566
491.56	33.893
491.91	33.835
492.26	34.778
492.60	34.592
492.95	35.780
493.30	35.755
493.64	33.570
493.99	34.497
494.34	35.073
494.68	34.044
495.03	34.483
495.37	34.516
495.72	35.338
496.07	34.939
496.41	34.140
496.76	33.859
497.11	34.810
497.45	35.158
497.80	34.839
498.14	34.794
498.49	34.597
498.84	33.753
499.18	34.821
499.53	34.995
499.87	35.228
500.22	34.649
500.56	35.322
500.91	35.658
501.26	35.013
501.60	33.894
501.95	35.363
502.29	34.992
502.64	33.798
502.98	34.023
503.33	35.097
503.67	35.222
504.02	35.802
504.36	34.206
504.71	35.319
505.06	35.726
505.40	36.568
505.75	35.545
506.09	34.345
506.44	36.159
506.78	34.208
507.13	35.233
507.47	36.066
507.82	34.933
508.16	35.412
508.51	36.980
508.85	35.879
509.19	35.436
509.54	35.467
509.88	36.018
510.23	36.180
510.57	36.684
510.92	35.431
511.26	36.703
511.61	36.244
511.95	36.322
512.30	37.101
512.64	37.009
512.98	36.562
513.33	35.522
513.67	36.527
514.02	36.659
514.36	36.180
514.70	37.341
515.05	37.988
515.39	38.331
515.74	38.346
516.08	37.853
516.42	38.222
516.77	38.137
517.11	36.942
517.46	37.726
517.80	38.928
518.14	39.785
518.49	38.551
518.83	38.067
519.17	37.982
519.52	37.851
519.86	38.505
520.20	38.726
520.55	39.687
520.89	38.462
521.23	39.746
521.58	37.368
521.92	38.518
522.26	39.450
522.61	39.044
522.95	38.493
523.29	39.271
523.64	38.263
523.98	40.457
524.32	39.461
524.66	39.837
525.01	39.381
525.35	37.893
525.69	39.298
526.04	39.958
526.38	39.342
526.72	40.278
527.06	40.295
527.41	40.326
527.75	39.627
528.09	40.806
528.43	38.979
528.78	39.553
529.12	39.863
529.46	39.468
529.80	38.734
530.15	39.402
530.49	40.167
530.83	39.262
531.17	39.336
531.51	39.900
531.86	39.916
532.20	39.466
532.54	39.353
532.88	40.145
533.22	41.810
533.57	38.069
533.91	39.780
534.25	39.036
534.59	39.065
534.93	39.557
535.27	39.125
535.62	39.905
535.96	38.939
536.30	38.692
536.64	38.913
536.98	39.233
537.32	39.509
537.66	39.589
538.01	39.249
538.35	39.782
538.69	38.924
539.03	38.933
539.37	38.622
539.71	39.058
540.05	39.291
540.39	37.545
540.73	39.487
541.07	39.926
541.42	39.130
541.76	38.417
542.10	37.518
542.44	39.884
542.78	37.977
543.12	36.823
543.46	38.897
543.80	37.956
544.14	39.427
544.48	38.877
544.82	39.461
545.16	38.623
545.50	40.029
545.84	38.844
546.18	39.551
546.52	40.354
546.86	38.791
547.20	38.182
547.54	37.453
547.88	37.322
548.22	38.397
548.56	39.253
548.90	38.105
549.24	38.377
549.58	38.227
549.92	38.120
550.26	39.846
550.60	39.255
550.94	38.254
551.28	39.268
551.62	39.558
551.96	39.137
552.30	38.062
552.64	38.092
552.98	38.633
553.32	37.348
553.66	38.695
554.00	37.143
554.34	39.063
554.68	38.278
555.02	38.571
555.36	37.569
555.69	37.279
556.03	38.433
556.37	37.884
556.71	38.914
557.05	39.531
557.39	38.956
557.73	38.365
558.07	38.263
558.41	37.749
558.75	38.921
559.08	39.489
559.42	37.960
559.76	39.343
560.10	39.364
560.44	38.005
560.78	37.491
561.12	37.115
561.45	37.872
561.79	37.372
562.13	36.990
562.47	37.232
562.81	37.832
563.15	36.654
563.48	35.056
563.82	37.482
564.16	36.720
564.50	35.960
564.84	36.641
565.17	37.697
565.51	35.961
565.85	36.620
566.19	36.465
566.52	37.061
566.86	35.997
567.20	36.128
567.54	35.737
567.88	34.345
568.21	35.932
568.55	34.748
568.89	35.275
569.23	34.488
569.56	34.575
569.90	33.490
570.24	33.215
570.57	33.860
570.91	32.933
571.25	33.196
571.59	33.443
571.92	31.597
572.26	32.181
572.60	31.976
572.93	31.893
573.27	31.570
573.61	31.879
573.95	31.768
574.28	32.028
574.62	31.325
574.96	30.795
575.29	30.666
575.63	31.278
575.97	30.727
576.30	31.348
576.64	30.127
576.98	31.048
577.31	30.505
577.65	30.601
577.98	30.482
578.32	30.251
578.66	30.496
578.99	30.758
579.33	30.734
579.67	30.569
580.00	30.400
580.34	30.249
580.67	30.748
581.01	29.963
581.35	30.004
581.68	29.856
582.02	29.432
582.35	30.045
582.69	30.217
583.02	29.909
583.36	30.207
583.70	30.518
584.03	30.579
584.37	30.517
584.70	29.957
585.04	29.960
585.37	30.514
585.71	29.985
586.04	30.502
586.38	30.537
586.72	30.321
587.05	30.701
587.39	30.405
587.72	30.036
588.06	31.091
588.39	30.821
588.73	29.950
589.06	30.577
589.40	31.221
589.73	31.152
590.07	31.010
590.40	31.198
590.73	31.362
591.07	31.212
591.40	31.064
591.74	31.530
592.07	30.946
592.41	31.959
592.74	30.805
593.08	30.766
593.41	30.751
593.75	30.772
594.08	30.997
594.41	30.520
594.75	30.579
595.08	30.425
595.42	30.755
595.75	30.795
596.09	30.865
596.42	30.655
596.75	31.273
597.09	31.017
597.42	31.018
597.75	31.191
598.09	30.384
598.42	30.715
598.76	31.239
599.09	30.798
599.42	29.662
599.76	30.326
600.09	30.842
600.42	29.531
600.76	29.523
601.09	29.608
601.42	29.871
601.76	29.708
602.09	30.499
602.42	30.743
602.76	29.974
603.09	30.548
603.42	30.111
603.76	29.836
604.09	29.866
604.42	30.399
604.76	30.032
605.09	30.373
605.42	30.237
605.75	29.237
606.09	30.800
606.42	29.178
606.75	29.440
607.09	30.644
607.42	30.381
607.75	29.155
608.08	30.355
608.42	30.698
608.75	29.565
609.08	28.470
609.41	29.549
609.75	29.963
610.08	29.406
610.41	30.178
610.74	29.929
611.07	30.037
611.41	29.390
611.74	28.781
612.07	29.855
612.40	29.972
612.73	30.266
613.07	29.888
613.40	29.615
613.73	29.152
614.06	28.747
614.39	29.936
614.72	28.689
615.06	30.023
615.39	28.060
615.72	29.787
616.05	28.928
616.38	29.359
616.71	29.353
617.05	29.523
617.38	28.903
617.71	30.046
618.04	29.501
618.37	29.235
618.70	30.978
619.03	30.457
619.36	30.928
619.69	29.782
620.03	29.672
620.36	29.932
620.69	30.155
621.02	30.087
621.35	31.064
621.68	31.863
622.01	31.640
622.34	30.653
622.67	29.680
623.00	30.467
623.33	29.843
623.66	31.235
623.99	28.947
624.32	30.818
624.65	30.000
624.99	30.078
625.32	31.359
625.65	30.024
625.98	32.167
626.31	29.351
626.64	30.721
626.97	32.353
627.30	30.185
627.63	31.163
627.96	31.006
628.29	31.262
628.62	29.691
628.95	31.362
629.28	30.682
629.61	31.034
629.94	31.432
630.26	32.218
630.59	31.832
630.92	29.715
631.25	31.173
631.58	31.744
631.91	30.979
632.24	32.071
632.57	32.105
632.90	31.857
633.23	33.677
633.56	31.698
633.89	31.794
634.22	33.590
634.55	32.063
634.88	34.538
635.20	34.384
635.53	32.821
635.86	33.152
636.19	31.105
636.52	32.615
636.85	28.814
637.18	32.254
637.51	32.656
637.83	31.844
638.16	32.717
638.49	31.844
638.82	32.630
639.15	32.000
639.48	32.023
639.81	30.253
640.13	31.087
640.46	32.598
640.79	31.938
641.12	33.488
641.45	32.037
641.77	30.573
642.10	32.899
642.43	31.313
642.76	31.541
643.09	33.218
643.41	31.362
643.74	32.292
644.07	30.159
644.40	31.588
644.73	31.123
645.05	31.870
645.38	32.885
645.71	34.733
646.04	34.201
646.36	31.061
646.69	33.849
647.02	34.570
647.35	35.800
647.67	35.471
648.00	33.204
648.33	32.755
648.66	33.395
648.98	31.695
649.31	33.046
649.64	29.088
649.96	29.899
650.29	29.558
650.62	32.468
650.94	31.978
651.27	30.443
651.60	32.314
651.92	31.107
652.25	27.725
652.58	30.162
652.90	28.648
653.23	29.799
653.56	30.903
653.88	30.657
654.21	32.136
654.54	31.520
654.86	31.475
655.19	29.355
655.52	30.401
655.84	25.635
656.17	24.202
656.49	32.410
656.82	37.814
657.15	30.446
657.47	23.012
657.80	16.897
658.13	13.851
658.45	22.978
658.78	22.583
659.10	21.929
659.43	22.435
659.75	22.121
660.08	22.870
660.41	22.113
660.73	24.238
661.06	25.818
661.38	29.032
661.71	28.884
662.03	31.944
662.36	30.310
662.68	28.058
663.01	31.490
663.33	33.255
663.66	33.014
663.98	31.051
664.31	32.683
664.63	29.587
664.96	30.641
665.28	31.678
665.61	29.673
665.93	29.493
666.26	30.684
666.58	27.982
666.91	32.084
667.23	30.788
667.56	31.358
667.88	29.323
668.21	28.934
668.53	30.711
668.86	28.827
669.18	28.934
669.50	32.905
669.83	31.500
670.15	27.250
670.48	29.073
670.80	29.949
671.13	30.120
671.45	26.786
671.77	29.710
672.10	27.473
672.42	27.490
672.75	25.243
673.07	27.850
673.39	28.794
673.72	28.719
674.04	29.787
674.37	30.485
674.69	29.673
675.01	29.070
675.34	24.510
675.66	27.619
675.98	29.798
676.31	30.479
676.63	26.546
676.95	26.379
677.28	28.218
677.60	30.075
677.92	29.825
678.25	26.682
678.57	26.914
678.89	27.523
679.22	31.422
679.54	24.944
679.86	28.480
680.18	22.803
680.51	26.694
680.83	23.958
681.15	28.322
681.48	25.532
681.80	25.652
682.12	29.336
682.44	22.629
682.77	27.045
683.09	24.020
683.41	27.820
683.73	26.633
684.06	28.934
684.38	27.818
684.70	25.635
685.02	24.459
685.34	23.640
685.67	25.494
685.99	27.345
686.31	25.933
686.63	25.631
686.96	25.000
687.28	27.105
687.60	25.667
687.92	28.270
688.24	26.105
688.56	23.956
688.89	26.256
689.21	23.953
689.53	25.831
689.85	26.835
690.17	25.735
690.49	27.529
690.82	28.010
691.14	28.982
691.46	25.000
691.78	25.120
692.10	24.771
692.42	26.606
692.74	27.014
693.06	23.133
693.39	24.384
693.71	23.721
694.03	24.396
694.35	23.762
694.67	24.173
694.99	27.493
695.31	26.062
695.63	19.730
695.95	26.404
696.27	26.346
696.59	27.003
696.91	25.071
697.23	24.642
697.56	25.907
697.88	22.482
698.20	24.939
698.52	24.519
698.84	23.559
699.16	22.955
699.48	25.654
699.80	20.879
700.12	26.171
700.44	21.239
700.76	29.338
701.08	20.000
701.40	25.329
701.72	29.000
702.04	26.531
702.36	25.246
702.68	25.168
703.00	20.820
703.32	20.359
703.64	20.820
703.96	21.519
704.28	23.592
704.60	26.027
704.91	22.039
705.23	22.456
705.55	24.164
705.87	26.978
706.19	26.295
706.51	21.484
706.83	27.106
707.15	22.712
707.47	21.557
707.79	22.923
708.11	25.661
708.43	20.533
708.74	19.672
709.06	26.994
709.38	23.442
709.70	22.078
710.02	24.825
710.34	14.184
710.66	23.596
710.98	22.727
711.29	23.368
711.61	24.113
711.93	26.966
712.25	25.283
712.57	23.828
712.89	26.531
713.20	23.387
713.52	18.293
713.84	18.613
714.16	23.649
714.48	23.891
714.80	24.242
715.11	26.460
715.43	22.184
715.75	20.702
716.07	23.636
716.39	24.232
716.70	25.200
717.02	23.387
717.34	22.511
717.66	19.545
717.97	21.759
718.29	23.111
718.61	23.874
718.93	25.210
719.24	22.594
719.56	25.446
719.88	17.255
720.20	17.949
720.51	21.930
720.83	21.757
721.15	18.776
721.46	24.473
721.78	21.212
722.10	25.194
722.42	23.913
722.73	22.172
723.05	19.355
723.37	19.005
723.68	19.905
724.00	24.537
724.32	20.093
724.63	25.792
724.95	16.438
725.27	24.413
725.58	22.374
725.90	11.712
726.22	21.397
726.53	23.770
726.85	20.000
727.16	20.648
727.48	20.565
727.80	19.635
728.11	23.556
728.43	18.519
728.74	21.053
729.06	22.271
729.38	24.806
729.69	15.600
730.01	17.992
730.32	16.335
730.64	16.154
730.96	15.058
731.27	19.305
731.59	14.141
731.90	15.461
732.22	18.937
732.53	10.175
732.85	10.915
733.16	20.147
733.48	18.284
733.80	24.000
734.11	17.376
734.43	18.051
734.74	20.872
735.06	15.756
735.37	17.252
735.69	17.958
736.00	18.148
736.32	18.531
736.63	20.000
736.95	13.230
737.26	15.942
737.58	15.693
737.89	19.623
738.21	17.939
738.52	23.770
738.83	14.957
739.15	23.182
739.46	16.216
739.78	14.286
740.09	15.079
740.41	21.212
740.72	13.147
741.04	15.415
741.35	17.937
741.66	24.731
741.98	16.327
742.29	13.990
742.61	12.717
742.92	13.235
743.23	18.905
743.55	11.917
743.86	17.391
744.18	17.500
744.49	19.444
744.80	13.978
745.12	15.385
745.43	16.043
745.74	11.765
746.06	20.690
746.37	8.889
746.68	25.405
747.00	11.602
747.31	18.848
747.62	21.579
747.94	19.811
748.25	21.675
748.56	22.727
748.88	12.022
749.19	13.990
749.50	19.412
749.82	18.500
750.13	19.417
750.44	12.017
750.75	16.800
751.07	19.247
751.38	15.234
751.69	15.476
752.01	21.429
752.32	22.314
752.63	18.777
752.94	18.000
753.26	20.548
753.57	19.431
753.88	16.279
754.19	16.300
754.51	9.205
754.82	16.250
755.13	16.814
755.44	16.450
755.75	20.080
756.07	12.876
756.38	16.318
756.69	18.868
757.00	16.312
757.31	15.917
757.63	19.281
757.94	12.727
758.25	18.750
758.56	14.324
758.87	20.238
759.18	23.988
759.50	18.861
759.81	9.266
760.12	15.302
760.43	16.279
760.74	16.766
761.05	16.667
761.36	18.991
761.67	16.717
761.99	19.732
762.30	18.909
762.61	17.886
762.92	18.667
763.23	23.721
763.54	19.797
763.85	19.457
764.16	12.609
764.47	16.957
764.78	20.968
765.10	16.142
765.41	15.050
765.72	18.395
766.03	17.726
766.34	15.530
766.65	16.016
766.96	12.889
767.27	25.698
767.58	23.270
767.89	19.481
768.20	10.135
768.51	16.092
768.82	9.375
769.13	20.833
769.44	13.679
769.75	12.745
770.06	10.680
770.37	12.766
770.68	13.333
770.99	13.198
771.30	15.979
771.61	12.556
771.92	14.151
772.23	14.423
772.54	18.235
772.85	19.178
773.16	11.613
773.47	11.465
773.78	8.383
774.09	9.211
774.39	11.029
774.70	0.752
775.01	15.385
775.32	8.730
775.63	14.173
775.94	4.717
776.25	16.296
776.56	0.909
776.87	13.675
777.18	7.000
777.48	2.885
777.79	6.481
778.10	1.887
778.41	18.627
778.72	13.208
779.03	10.526
779.34	4.202
779.65	14.789
779.95	13.669
780.26	0.000
780.57	13.043
780.88	2.752
781.19	10.185
781.50	8.197
781.80	-0.730
782.11	10.256
782.42	7.586
782.73	16.783
783.04	4.800
783.34	1.600
783.65	13.008
783.96	10.656
784.27	6.723
784.57	-6.542
784.88	1.786
785.19	12.371
785.50	7.368
785.81	9.000
786.11	9.901
786.42	-9.412
786.73	13.542
787.04	4.082
787.34	9.259
787.65	11.321
787.96	3.093
788.26	1.980
788.57	11.304
788.88	-0.917
789.19	10.744
789.49	13.913
789.80	23.276
790.11	-1.220
790.41	13.483
790.72	-4.651
791.03	0.000
791.33	-6.494
791.64	2.439
791.95	2.439
792.25	-6.024
792.56	-1.235
792.87	0.000
793.17	-6.024
793.48	7.059
793.79	-3.750
794.09	1.667
794.40	0.000
794.70	4.348
795.01	-3.670
795.32	7.874
795.62	1.961
795.93	10.784
796.23	9.091
796.54	-1.163
796.85	-1.449
797.15	-7.812
797.46	-22.034
797.76	-8.197
798.07	5.263
798.37	-3.226
798.68	-12.500
798.99	-3.077
799.29	-3.030
799.60	-8.696
799.90	-1.429
800.21	-21.053
800.51	-13.793
800.82	-13.208
801.12	7.843
801.43	-9.677
801.73	-12.903
802.04	-6.000
802.34	-26.415
802.65	-42.105
802.95	1.818
803.26	3.774
803.56	-26.230
803.87	2.000
804.17	-29.630
804.48	3.846
804.78	-16.327
805.09	-8.511
805.39	3.390
805.70	-29.167
806.00	-12.500
806.30	-1.695
806.61	-12.308
806.91	-10.769
807.22	-3.947
807.52	11.429
807.83	-5.172
808.13	7.595
808.43	-11.475
808.74	-4.918
809.04	10.811
809.35	-11.111
809.65	-7.143
809.95	5.085
810.26	-28.571
810.56	-15.094
810.86	-5.882
811.17	2.703
811.47	-74.074
811.77	0.000
812.08	-4.545
812.38	-37.500
812.69	-41.026
812.99	-16.667
813.29	-13.043
813.59	-5.714
813.90	-23.810
814.20	-12.727
814.50	-22.449
814.81	-25.490
815.11	-4.167
815.41	-36.585
815.72	-69.231
816.02	14.894
816.32	-31.250
816.62	-24.242
816.93	-33.333
817.23	-48.649
817.53	-8.824
817.84	7.500
818.14	-50.000
818.44	-31.250
818.74	-66.667
819.04	-40.000
819.35	-25.714
819.65	-18.182
819.95	-15.385
820.25	-77.778
820.56	-62.069
820.86	-50.000
821.16	-82.609
821.46	-19.048
821.76	-11.111
822.07	-30.435
822.37	-22.449
822.67	-9.302
822.97	-43.478
823.27	-80.769
823.57	-48.148
823.88	-50.000
824.18	-28.205
824.48	-17.857
824.78	-18.182
825.08	-86.667
825.38	-10.000
825.69	-138.889
825.99	-29.630
826.29	6.667
826.59	-37.037
826.89	-40.741
827.19	-60.714
827.49	-77.273
827.79	-109.091
828.09	-63.636
828.39	-78.261
828.70	-29.630
829.00	-35.714
829.30	-38.095
829.60	-51.613
829.90	-53.846
830.20	-15.385
830.50	-27.273
830.80	-95.238
831.10	-88.889
831.40	-135.714
831.70	-59.259
832.00	-70.588
832.30	-52.174
832.60	-37.500
832.90	-145.455
833.20	-38.889
833.50	-25.000
833.80	-50.000
834.10	12.000
834.40	-58.333
834.70	-81.818
835.00	-46.154
835.30	-110.000
835.60	-130.000
835.90	-65.000
836.20	-78.571
836.50	-65.217
836.80	-111.111
837.10	-20.000
837.40	-140.000
837.70	-43.478
838.00	-71.429
838.30	2400.000
838.60	-36.000
838.90	-440.000
839.19	-144.444
839.49	-1500.000
839.79	-94.118
840.09	-200.000
840.39	-17.857
840.69	-88.889
840.99	-166.667
841.29	-24.138
841.59	-113.333
841.88	-109.091
842.18	-366.667
842.48	-37.500
842.78	3.846
843.08	-105.882
843.38	-65.000
843.68	-146.154
843.97	-129.412
844.27	-140.000
844.57	-16.667
844.87	-154.545
845.17	-73.684
845.47	-105.556
845.76	-11.111
846.06	-76.190
846.36	-92.857
846.66	-277.778
846.96	-65.000
847.25	-280.000
847.55	-325.000
847.85	-146.667
848.15	-325.000
848.44	-36.842
848.74	-120.000
849.04	-15.789
849.34	-700.000
849.63	-266.667
849.93	-70.588
850.23	-209.091
850.53	-366.667
850.82	-300.000
851.12	-200.000
851.42	-185.714
851.71	-380.000
852.01	-92.857
852.31	-400.000
852.61	-61.538
852.90	-460.000
853.20	-211.111
853.50	-233.333
853.79	-110.000
854.09	-55.000
854.39	-78.947
854.68	-90.000
854.98	-475.000
855.28	-44.444
855.57	-171.429
855.87	-115.789
856.17	-137.500
856.46	-65.385
856.76	-60.000
857.05	-87.500
857.35	-20.833
857.65	-100.000
857.94	-12.500
858.24	-21.739
858.53	-180.000
858.83	-766.667
859.13	-290.909
859.42	-240.000
859.72	183.333
860.01	-153.846
860.31	-250.000
860.60	-262.500
860.90	-500.000
861.20	-316.667
861.49	-425.000
861.79	500.000
862.08	-16.129
862.38	-89.474
862.67	-61.538
862.97	-180.000
863.26	-83.333
863.56	-60.870
863.85	-266.667
864.15	-107.143
864.44	-37.500
864.74	-183.333
865.03	-233.333
865.33	-400.000
865.62	-2200.000
865.92	-1000.000
866.21	-266.667
866.51	-81.818
866.80	-800.000
867.10	-285.714
867.39	-144.444
867.69	-208.333
867.98	400.000
868.27	-500.000
868.57	350.000
868.86	-153.333
869.16	0.000
869.45	1300.000
869.75	-200.000
870.04	-241.667
870.33	-41.176
870.63	-157.143
870.92	30.435
871.22	-262.500
871.51	540.000
871.80	-93.750
872.10	-866.667
>>>>>End Processed Spectral Data<<<<<
