SpectraSuite Data File
++++++++++++++++++++++++++++++++++++
Date: Tue May 12 19:42:45 PDT 2015
User: schluterlab
Dark Spectrum Present: Yes
Reference Spectrum Present: Yes
Number of Sampled Component Spectra: 1
Spectrometers: USB2E3373
Integration Time (usec): 3000 (USB2E3373)
Spectra Averaged: 3 (USB2E3373)
Boxcar Smoothing: 0 (USB2E3373)
Correct for Electrical Dark: No (USB2E3373)
Strobe/Lamp Enabled: No (USB2E3373)
Correct for Detector Non-linearity: No (USB2E3373)
Correct for Stray Light: No (USB2E3373)
Number of Pixels in Processed Spectrum: 2048
>>>>>Begin Processed Spectral Data<<<<<
178.53	0.000
178.91	50.000
179.29	16.667
179.67	266.667
180.04	0.000
180.42	-100.000
180.80	-166.667
181.18	1300.000
181.56	-450.000
181.94	116.667
182.31	900.000
182.69	-14.286
183.07	0.000
183.45	175.000
183.83	260.000
184.20	233.333
184.58	350.000
184.96	150.000
185.34	-133.333
185.72	-85.714
186.09	-133.333
186.47	-1600.000
186.85	-80.000
187.23	108.333
187.61	-171.429
187.98	-300.000
188.36	450.000
188.74	-25.000
189.12	0.000
189.49	-60.000
189.87	150.000
190.25	188.889
190.63	433.333
191.00	300.000
191.38	-133.333
191.76	400.000
192.14	-42.857
192.51	-110.000
192.89	80.000
193.27	-140.000
193.65	-300.000
194.02	-83.333
194.40	700.000
194.78	100.000
195.15	-200.000
195.53	133.333
195.91	260.000
196.29	-425.000
196.66	-166.667
197.04	-200.000
197.42	60.000
197.79	-62.500
198.17	-25.000
198.55	-900.000
198.92	-88.889
199.30	300.000
199.68	-125.000
200.05	-600.000
200.43	-55.556
200.81	-25.000
201.18	183.333
201.56	-500.000
201.94	-1200.000
202.31	-33.333
202.69	-33.333
203.07	-33.333
203.44	-200.000
203.82	0.000
204.19	125.000
204.57	-533.333
204.95	109.091
205.32	300.000
205.70	325.000
206.08	-200.000
206.45	-140.000
206.83	1600.000
207.20	-100.000
207.58	-30.769
207.96	333.333
208.33	233.333
208.71	133.333
209.08	500.000
209.46	-44.444
209.84	500.000
210.21	-200.000
210.59	-200.000
210.96	188.889
211.34	-500.000
211.71	900.000
212.09	0.000
212.46	-175.000
212.84	-75.000
213.22	171.429
213.59	0.000
213.97	0.000
214.34	-250.000
214.72	-100.000
215.09	400.000
215.47	-33.333
215.84	-50.000
216.22	-300.000
216.59	900.000
216.97	8.333
217.34	-33.333
217.72	5.556
218.09	375.000
218.47	-26.316
218.84	-137.500
219.22	-14.286
219.59	50.000
219.97	50.000
220.34	266.667
220.72	109.091
221.09	-50.000
221.47	0.000
221.84	300.000
222.22	-325.000
222.59	-350.000
222.97	65.217
223.34	86.667
223.72	242.857
224.09	-166.667
224.46	46.154
224.84	13.333
225.21	-350.000
225.59	-100.000
225.96	10.000
226.34	350.000
226.71	230.000
227.08	-100.000
227.46	-100.000
227.83	-125.000
228.21	-700.000
228.58	266.667
228.95	10.526
229.33	81.250
229.70	-100.000
230.08	-211.111
230.45	-666.667
230.82	-1700.000
231.20	23.810
231.57	-440.000
231.95	-266.667
232.32	55.556
232.69	-550.000
233.07	31.250
233.44	-137.500
233.81	16.129
234.19	-300.000
234.56	-55.556
234.93	-216.667
235.31	-7.407
235.68	-3.704
236.05	0.000
236.43	-78.947
236.80	-18.182
237.17	-85.714
237.55	-70.000
237.92	-11.628
238.29	-35.484
238.67	-21.429
239.04	-14.286
239.41	1.961
239.79	-2.000
240.16	-35.000
240.53	-13.793
240.91	5.479
241.28	-9.859
241.65	14.062
242.02	-21.053
242.40	-1.333
242.77	-1.053
243.14	5.882
243.51	1.075
243.89	-3.810
244.26	-10.185
244.63	-5.102
245.00	-7.143
245.38	-8.403
245.75	0.000
246.12	3.906
246.49	-12.800
246.87	-7.377
247.24	-3.521
247.61	-3.311
247.98	1.685
248.36	-3.145
248.73	-2.273
249.10	-6.667
249.47	-0.521
249.84	0.000
250.22	-5.729
250.59	-5.618
250.96	-5.000
251.33	3.774
251.70	5.505
252.08	3.896
252.45	4.490
252.82	-3.376
253.19	0.000
253.56	1.961
253.94	-1.220
254.31	4.317
254.68	-2.778
255.05	0.993
255.42	0.364
255.79	1.987
256.16	1.042
256.54	4.545
256.91	2.564
257.28	-0.649
257.65	0.328
258.02	0.901
258.39	1.511
258.76	0.917
259.14	-1.176
259.51	3.099
259.88	2.882
260.25	0.852
260.62	-1.685
260.99	0.557
261.36	1.149
261.73	1.867
262.10	2.725
262.47	0.000
262.85	3.085
263.22	-0.538
263.59	2.145
263.96	4.178
264.33	-1.887
264.70	0.737
265.07	1.970
265.44	2.108
265.81	6.747
266.18	0.234
266.55	1.667
266.92	2.232
267.29	0.667
267.66	-2.045
268.03	2.581
268.40	0.000
268.77	2.227
269.14	1.261
269.51	0.000
269.88	1.709
270.25	1.055
270.62	0.420
270.99	1.684
271.36	0.662
271.73	1.875
272.10	2.075
272.47	2.400
272.84	1.062
273.21	2.296
273.58	3.265
273.95	2.590
274.32	2.321
274.69	2.935
275.06	1.126
275.43	1.600
275.80	2.486
276.17	0.791
276.54	1.141
276.91	1.919
277.28	1.934
277.65	1.134
278.02	2.083
278.39	3.267
278.76	1.676
279.13	4.472
279.50	3.249
279.87	2.642
280.23	2.914
280.60	0.883
280.97	0.351
281.34	1.186
281.71	0.178
282.08	0.537
282.45	0.176
282.82	2.525
283.19	1.178
283.56	4.096
283.92	1.896
284.29	2.200
284.66	0.885
285.03	0.000
285.40	1.333
285.77	2.463
286.14	1.585
286.51	0.482
286.87	2.593
287.24	0.962
287.61	0.617
287.98	3.912
288.35	2.326
288.72	3.823
289.08	0.472
289.45	1.716
289.82	2.019
290.19	1.212
290.56	3.763
290.93	2.659
291.29	1.986
291.66	2.528
292.03	2.152
292.40	1.583
292.77	2.332
293.13	0.734
293.50	1.653
293.87	1.526
294.24	2.107
294.60	2.596
294.97	1.801
295.34	1.370
295.71	1.248
296.08	1.776
296.44	2.899
296.81	1.294
297.18	2.458
297.55	2.136
297.91	2.157
298.28	1.662
298.65	1.423
299.02	1.973
299.38	2.423
299.75	2.574
300.12	3.597
300.48	3.286
300.85	2.078
301.22	2.764
301.59	2.920
301.95	2.683
302.32	1.823
302.69	0.951
303.05	2.125
303.42	2.778
303.79	2.022
304.15	3.284
304.52	1.788
304.89	3.044
305.25	3.555
305.62	2.500
305.99	2.016
306.35	2.237
306.72	3.595
307.09	3.047
307.45	3.452
307.82	2.668
308.19	3.410
308.55	3.797
308.92	3.708
309.29	2.510
309.65	3.922
310.02	3.878
310.38	4.371
310.75	4.406
311.12	3.255
311.48	3.803
311.85	4.154
312.22	4.236
312.58	4.230
312.95	4.517
313.31	4.523
313.68	5.164
314.05	5.362
314.41	6.189
314.78	4.724
315.14	5.877
315.51	6.356
315.87	6.445
316.24	6.231
316.61	7.379
316.97	6.863
317.34	8.230
317.70	7.096
318.07	7.136
318.43	8.601
318.80	7.923
319.16	7.922
319.53	9.245
319.89	10.322
320.26	10.619
320.62	11.143
320.99	12.245
321.35	11.166
321.72	13.333
322.08	12.475
322.45	14.694
322.81	13.300
323.18	15.628
323.54	14.597
323.91	15.275
324.27	15.140
324.64	15.558
325.00	16.197
325.37	16.817
325.73	16.058
326.10	19.177
326.46	19.039
326.83	19.437
327.19	20.349
327.56	21.132
327.92	20.747
328.29	21.237
328.65	22.505
329.01	23.119
329.38	22.773
329.74	24.234
330.11	23.392
330.47	24.860
330.84	23.026
331.20	25.139
331.56	25.283
331.93	25.252
332.29	25.347
332.66	26.492
333.02	25.998
333.38	27.114
333.75	28.362
334.11	26.854
334.48	26.386
334.84	27.136
335.20	27.037
335.57	28.701
335.93	27.256
336.29	26.965
336.66	28.051
337.02	28.286
337.38	28.113
337.75	29.455
338.11	29.079
338.47	28.227
338.84	28.085
339.20	28.598
339.56	28.425
339.93	27.477
340.29	29.465
340.65	28.402
341.02	28.964
341.38	29.744
341.74	30.071
342.11	29.708
342.47	28.846
342.83	29.402
343.20	28.824
343.56	28.584
343.92	29.046
344.28	29.417
344.65	29.538
345.01	30.226
345.37	29.573
345.73	29.802
346.10	30.942
346.46	28.991
346.82	29.567
347.19	29.100
347.55	30.527
347.91	29.075
348.27	30.918
348.63	29.905
349.00	30.467
349.36	29.926
349.72	30.870
350.08	30.033
350.45	29.699
350.81	30.140
351.17	29.819
351.53	29.710
351.89	30.656
352.26	30.163
352.62	29.681
352.98	30.126
353.34	31.161
353.70	29.794
354.07	31.301
354.43	29.549
354.79	31.066
355.15	30.266
355.51	30.970
355.87	30.974
356.24	31.373
356.60	32.053
356.96	31.359
357.32	32.099
357.68	31.583
358.04	31.361
358.40	31.178
358.77	31.486
359.13	32.129
359.49	30.560
359.85	31.415
360.21	30.769
360.57	31.818
360.93	32.542
361.29	31.231
361.66	31.151
362.02	32.261
362.38	32.867
362.74	32.821
363.10	31.448
363.46	32.280
363.82	31.470
364.18	32.702
364.54	31.908
364.90	31.704
365.26	31.893
365.62	32.021
365.98	33.283
366.35	32.829
366.71	32.562
367.07	33.506
367.43	31.264
367.79	31.831
368.15	31.357
368.51	33.034
368.87	32.673
369.23	32.778
369.59	33.088
369.95	30.924
370.31	32.576
370.67	32.256
371.03	32.972
371.39	33.686
371.75	32.689
372.11	32.519
372.47	32.739
372.83	32.725
373.19	33.283
373.55	33.084
373.91	34.015
374.27	34.069
374.63	33.726
374.99	32.796
375.35	32.438
375.71	33.859
376.07	33.216
376.42	32.988
376.78	32.822
377.14	32.612
377.50	33.858
377.86	34.192
378.22	32.893
378.58	33.882
378.94	34.054
379.30	33.333
379.66	33.419
380.02	32.676
380.38	32.443
380.74	34.058
381.09	33.037
381.45	34.159
381.81	33.546
382.17	34.072
382.53	33.070
382.89	33.162
383.25	33.228
383.61	33.376
383.97	33.658
384.32	33.613
384.68	33.397
385.04	32.463
385.40	31.757
385.76	33.650
386.12	33.993
386.48	33.464
386.83	33.904
387.19	34.100
387.55	33.873
387.91	32.710
388.27	33.589
388.62	34.067
388.98	33.842
389.34	31.620
389.70	34.231
390.06	33.333
390.42	33.807
390.77	33.803
391.13	33.507
391.49	34.501
391.85	34.065
392.20	33.465
392.56	33.333
392.92	34.075
393.28	33.273
393.64	34.389
393.99	32.987
394.35	33.744
394.71	33.377
395.07	33.422
395.42	34.032
395.78	33.065
396.14	33.245
396.50	33.441
396.85	32.188
397.21	32.859
397.57	33.311
397.92	33.206
398.28	33.573
398.64	32.889
399.00	32.327
399.35	33.001
399.71	32.096
400.07	33.663
400.42	34.423
400.78	33.397
401.14	33.649
401.49	31.855
401.85	33.143
402.21	32.995
402.57	30.264
402.92	33.533
403.28	32.900
403.63	31.987
403.99	32.563
404.35	31.783
404.70	32.806
405.06	33.168
405.42	33.442
405.77	32.224
406.13	31.720
406.49	32.240
406.84	33.562
407.20	32.776
407.55	33.601
407.91	31.608
408.27	33.245
408.62	32.412
408.98	32.819
409.34	30.410
409.69	32.709
410.05	31.671
410.40	30.957
410.76	32.752
411.11	31.803
411.47	32.245
411.83	31.101
412.18	31.741
412.54	31.307
412.89	31.088
413.25	31.850
413.60	33.099
413.96	31.456
414.31	31.103
414.67	32.478
415.03	30.705
415.38	32.173
415.74	31.363
416.09	31.840
416.45	32.130
416.80	30.876
417.16	32.017
417.51	31.575
417.87	32.832
418.22	32.620
418.58	31.306
418.93	33.075
419.29	31.954
419.64	32.280
420.00	32.351
420.35	32.015
420.71	32.074
421.06	32.252
421.42	31.242
421.77	32.765
422.12	31.364
422.48	31.696
422.83	31.915
423.19	32.353
423.54	32.010
423.90	31.150
424.25	32.085
424.61	31.290
424.96	31.572
425.31	32.307
425.67	31.455
426.02	31.429
426.38	30.438
426.73	31.340
427.09	32.042
427.44	31.605
427.79	31.559
428.15	31.325
428.50	31.470
428.85	32.649
429.21	32.815
429.56	31.215
429.92	31.098
430.27	31.360
430.62	31.260
430.98	30.951
431.33	31.702
431.68	31.783
432.04	31.703
432.39	31.967
432.74	31.246
433.10	31.110
433.45	32.046
433.80	32.679
434.16	32.106
434.51	32.163
434.86	31.360
435.22	31.839
435.57	31.464
435.92	29.474
436.28	30.137
436.63	32.021
436.98	32.037
437.34	32.310
437.69	31.420
438.04	32.091
438.39	32.050
438.75	32.492
439.10	32.321
439.45	32.413
439.81	32.190
440.16	32.282
440.51	31.722
440.86	31.881
441.22	31.686
441.57	32.422
441.92	32.468
442.27	32.686
442.63	32.393
442.98	32.579
443.33	32.315
443.68	32.557
444.03	31.804
444.39	31.390
444.74	31.769
445.09	32.172
445.44	31.953
445.79	32.848
446.15	33.061
446.50	32.331
446.85	32.783
447.20	32.385
447.55	31.472
447.91	32.863
448.26	31.573
448.61	31.662
448.96	32.052
449.31	32.068
449.66	31.780
450.02	31.538
450.37	31.045
450.72	32.675
451.07	32.169
451.42	33.531
451.77	31.400
452.12	32.581
452.47	31.775
452.83	33.001
453.18	32.478
453.53	32.854
453.88	32.482
454.23	32.652
454.58	32.376
454.93	31.676
455.28	31.297
455.63	33.008
455.98	32.360
456.34	31.949
456.69	32.634
457.04	32.743
457.39	32.584
457.74	32.807
458.09	32.234
458.44	32.434
458.79	31.037
459.14	32.379
459.49	32.548
459.84	32.996
460.19	31.832
460.54	32.260
460.89	32.059
461.24	31.104
461.59	31.483
461.94	31.558
462.29	31.830
462.64	32.939
462.99	33.212
463.34	31.429
463.69	33.059
464.04	31.495
464.39	32.412
464.74	32.057
465.09	32.090
465.44	31.914
465.79	31.889
466.14	31.384
466.49	31.767
466.84	32.494
467.19	31.579
467.54	31.101
467.89	32.201
468.24	31.566
468.59	32.134
468.94	32.482
469.29	32.526
469.64	32.896
469.99	32.012
470.34	30.622
470.68	31.769
471.03	32.409
471.38	31.114
471.73	31.977
472.08	31.530
472.43	31.950
472.78	30.819
473.13	31.298
473.48	33.057
473.83	31.704
474.17	31.288
474.52	31.681
474.87	31.881
475.22	31.321
475.57	32.432
475.92	31.723
476.27	31.706
476.61	31.147
476.96	32.543
477.31	31.906
477.66	32.307
478.01	31.195
478.36	31.117
478.70	32.394
479.05	31.167
479.40	31.177
479.75	32.081
480.10	31.277
480.45	31.885
480.79	30.981
481.14	31.154
481.49	32.082
481.84	31.919
482.19	30.146
482.53	30.392
482.88	31.317
483.23	31.307
483.58	31.089
483.92	31.407
484.27	32.381
484.62	30.787
484.97	31.283
485.31	29.969
485.66	29.941
486.01	29.107
486.36	29.991
486.70	29.729
487.05	29.064
487.40	29.756
487.75	29.459
488.09	29.417
488.44	29.844
488.79	30.122
489.13	29.800
489.48	30.256
489.83	29.773
490.17	30.333
490.52	30.067
490.87	30.959
491.22	30.523
491.56	30.385
491.91	30.171
492.26	31.107
492.60	31.531
492.95	30.749
493.30	30.789
493.64	30.122
493.99	31.211
494.34	31.069
494.68	30.327
495.03	29.158
495.37	30.765
495.72	30.380
496.07	30.477
496.41	29.496
496.76	28.558
497.11	30.379
497.45	30.839
497.80	30.010
498.14	30.940
498.49	30.699
498.84	29.612
499.18	30.202
499.53	31.049
499.87	29.852
500.22	30.545
500.56	30.769
500.91	31.411
501.26	30.604
501.60	31.091
501.95	30.297
502.29	30.580
502.64	29.716
502.98	30.086
503.33	29.306
503.67	30.475
504.02	29.673
504.36	29.327
504.71	29.840
505.06	29.566
505.40	30.456
505.75	30.490
506.09	29.848
506.44	30.204
506.78	28.908
507.13	29.750
507.47	30.970
507.82	29.520
508.16	29.733
508.51	31.510
508.85	29.890
509.19	30.170
509.54	30.538
509.88	29.632
510.23	30.112
510.57	30.153
510.92	30.329
511.26	29.868
511.61	30.251
511.95	29.555
512.30	30.377
512.64	30.029
512.98	31.305
513.33	29.250
513.67	28.862
514.02	29.687
514.36	29.656
514.70	30.358
515.05	30.183
515.39	30.364
515.74	30.263
516.08	30.069
516.42	30.143
516.77	30.000
517.11	30.275
517.46	29.981
517.80	31.078
518.14	30.993
518.49	30.336
518.83	31.518
519.17	31.427
519.52	30.294
519.86	31.919
520.20	30.255
520.55	30.679
520.89	31.511
521.23	30.127
521.58	30.556
521.92	30.240
522.26	31.340
522.61	31.399
522.95	31.301
523.29	29.690
523.64	30.054
523.98	31.116
524.32	31.044
524.66	31.475
525.01	31.615
525.35	30.985
525.69	30.213
526.04	29.669
526.38	30.089
526.72	30.903
527.06	31.575
527.41	30.475
527.75	31.730
528.09	31.612
528.43	31.396
528.78	28.861
529.12	30.753
529.46	30.233
529.80	30.157
530.15	31.480
530.49	31.311
530.83	30.658
531.17	30.438
531.51	30.764
531.86	30.182
532.20	29.437
532.54	30.791
532.88	30.545
533.22	29.741
533.57	30.690
533.91	30.420
534.25	29.803
534.59	29.505
534.93	29.617
535.27	30.774
535.62	28.562
535.96	28.821
536.30	29.715
536.64	29.542
536.98	30.678
537.32	29.688
537.66	29.839
538.01	29.823
538.35	29.527
538.69	28.946
539.03	29.632
539.37	29.361
539.71	30.290
540.05	29.305
540.39	29.412
540.73	29.451
541.07	29.044
541.42	30.221
541.76	30.576
542.10	29.914
542.44	30.202
542.78	29.032
543.12	28.809
543.46	29.285
543.80	29.950
544.14	29.319
544.48	29.614
544.82	29.241
545.16	28.913
545.50	29.476
545.84	29.115
546.18	29.513
546.52	30.131
546.86	28.692
547.20	30.076
547.54	28.052
547.88	28.490
548.22	28.270
548.56	29.035
548.90	29.193
549.24	27.924
549.58	28.390
549.92	28.496
550.26	29.575
550.60	29.262
550.94	29.921
551.28	29.024
551.62	30.221
551.96	29.153
552.30	27.752
552.64	28.400
552.98	29.123
553.32	28.182
553.66	27.769
554.00	29.266
554.34	29.297
554.68	28.389
555.02	27.619
555.36	28.991
555.69	27.902
556.03	29.120
556.37	27.907
556.71	28.733
557.05	28.359
557.39	28.434
557.73	28.931
558.07	28.482
558.41	27.694
558.75	29.129
559.08	29.872
559.42	28.428
559.76	28.981
560.10	27.954
560.44	27.237
560.78	28.024
561.12	26.972
561.45	27.976
561.79	27.093
562.13	28.243
562.47	28.287
562.81	27.748
563.15	26.692
563.48	27.416
563.82	26.783
564.16	26.851
564.50	28.438
564.84	28.349
565.17	27.682
565.51	27.445
565.85	27.817
566.19	27.836
566.52	28.172
566.86	28.005
567.20	26.480
567.54	26.292
567.88	27.367
568.21	27.374
568.55	26.089
568.89	26.484
569.23	25.803
569.56	25.333
569.90	26.039
570.24	25.611
570.57	25.132
570.91	25.364
571.25	25.482
571.59	25.443
571.92	24.682
572.26	24.715
572.60	24.375
572.93	24.361
573.27	24.757
573.61	24.451
573.95	24.300
574.28	24.193
574.62	23.865
574.96	23.494
575.29	23.542
575.63	23.459
575.97	23.542
576.30	23.916
576.64	23.897
576.98	23.340
577.31	23.647
577.65	24.035
577.98	23.434
578.32	23.622
578.66	23.131
578.99	23.656
579.33	23.498
579.67	23.735
580.00	23.442
580.34	23.360
580.67	23.271
581.01	23.437
581.35	23.766
581.68	22.963
582.02	23.030
582.35	23.243
582.69	23.123
583.02	22.853
583.36	23.044
583.70	23.849
584.03	23.233
584.37	23.494
584.70	22.950
585.04	22.961
585.37	23.179
585.71	23.162
586.04	23.382
586.38	23.154
586.72	23.050
587.05	23.307
587.39	23.198
587.72	23.618
588.06	23.465
588.39	23.138
588.73	23.298
589.06	23.558
589.40	23.126
589.73	23.149
590.07	23.074
590.40	23.250
590.73	23.490
591.07	23.506
591.40	23.664
591.74	23.647
592.07	23.878
592.41	24.227
592.74	23.562
593.08	23.704
593.41	23.174
593.75	23.492
594.08	24.240
594.41	23.323
594.75	22.984
595.08	23.413
595.42	22.756
595.75	23.598
596.09	22.898
596.42	22.791
596.75	23.636
597.09	22.994
597.42	22.806
597.75	24.343
598.09	23.268
598.42	22.811
598.76	23.315
599.09	23.655
599.42	22.699
599.76	23.303
600.09	23.527
600.42	22.305
600.76	22.787
601.09	22.824
601.42	22.907
601.76	22.443
602.09	22.581
602.42	23.057
602.76	23.037
603.09	23.281
603.42	23.126
603.76	22.619
604.09	23.392
604.42	22.628
604.76	23.003
605.09	22.532
605.42	22.938
605.75	22.522
606.09	22.800
606.42	23.228
606.75	23.002
607.09	23.601
607.42	23.038
607.75	22.773
608.08	22.919
608.42	22.502
608.75	22.061
609.08	21.706
609.41	23.328
609.75	22.433
610.08	22.326
610.41	22.748
610.74	23.155
611.07	23.268
611.41	22.645
611.74	23.069
612.07	23.214
612.40	23.454
612.73	23.148
613.07	22.314
613.40	22.542
613.73	22.165
614.06	22.717
614.39	23.374
614.72	22.373
615.06	23.479
615.39	23.152
615.72	21.892
616.05	22.435
616.38	22.183
616.71	22.264
617.05	22.802
617.38	22.323
617.71	23.318
618.04	22.799
618.37	22.106
618.70	21.875
619.03	25.091
619.36	24.300
619.69	22.939
620.03	23.722
620.36	23.280
620.69	22.912
621.02	22.407
621.35	23.660
621.68	23.222
622.01	23.619
622.34	22.781
622.67	23.524
623.00	22.441
623.33	24.882
623.66	23.506
623.99	24.083
624.32	22.875
624.65	22.656
624.99	21.641
625.32	23.302
625.65	23.299
625.98	23.250
626.31	22.944
626.64	24.324
626.97	24.081
627.30	23.796
627.63	23.070
627.96	24.395
628.29	24.570
628.62	23.608
628.95	25.132
629.28	23.760
629.61	23.197
629.94	22.303
630.26	23.954
630.59	25.026
630.92	22.234
631.25	22.235
631.58	23.605
631.91	23.462
632.24	23.787
632.57	24.019
632.90	24.600
633.23	25.806
633.56	22.516
633.89	23.483
634.22	25.256
634.55	22.996
634.88	26.104
635.20	23.973
635.53	25.698
635.86	25.000
636.19	23.465
636.52	24.663
636.85	22.686
637.18	24.223
637.51	23.442
637.83	26.676
638.16	25.747
638.49	25.072
638.82	22.363
639.15	25.000
639.48	22.416
639.81	24.590
640.13	25.268
640.46	25.197
640.79	23.101
641.12	25.116
641.45	25.816
641.77	23.408
642.10	25.570
642.43	24.916
642.76	25.986
643.09	24.567
643.41	26.165
643.74	25.000
644.07	23.810
644.40	25.632
644.73	25.046
645.05	25.763
645.38	25.577
645.71	24.809
646.04	26.952
646.36	25.947
646.69	26.886
647.02	27.344
647.35	26.400
647.67	27.856
648.00	25.437
648.33	25.434
648.66	25.974
648.98	23.729
649.31	25.129
649.64	25.301
649.96	23.480
650.29	22.832
650.62	24.119
650.94	24.954
651.27	23.314
651.60	24.092
651.92	23.473
652.25	21.415
652.58	23.878
652.90	24.377
653.23	24.863
653.56	23.611
653.88	25.730
654.21	23.062
654.54	22.326
654.86	25.899
655.19	22.581
655.52	22.049
655.84	19.529
656.17	19.367
656.49	26.059
656.82	30.020
657.15	24.102
657.47	17.870
657.80	13.141
658.13	11.000
658.45	18.841
658.78	18.184
659.10	18.139
659.43	17.962
659.75	17.733
660.08	18.152
660.41	19.743
660.73	20.914
661.06	22.364
661.38	26.210
661.71	24.726
662.03	23.148
662.36	25.776
662.68	24.940
663.01	25.481
663.33	26.651
663.66	27.512
663.98	23.716
664.31	25.610
664.63	22.248
664.96	26.603
665.28	24.586
665.61	25.467
665.93	25.115
666.26	23.620
666.58	24.771
666.91	27.635
667.23	24.631
667.56	23.951
667.88	24.311
668.21	23.350
668.53	24.112
668.86	26.531
669.18	22.843
669.50	27.249
669.83	25.000
670.15	21.750
670.48	23.308
670.80	24.365
671.13	20.964
671.45	20.918
671.77	23.188
672.10	25.055
672.42	23.904
672.75	20.388
673.07	21.869
673.39	21.984
673.72	25.000
674.04	22.979
674.37	23.788
674.69	21.729
675.01	21.860
675.34	23.529
675.66	22.857
675.98	23.485
676.31	24.181
676.63	19.588
676.95	21.103
677.28	22.030
677.60	25.313
677.92	21.805
678.25	22.506
678.57	19.722
678.89	19.266
679.22	23.394
679.54	22.049
679.86	21.842
680.18	22.176
680.51	19.918
680.83	21.250
681.15	24.183
681.48	21.064
681.80	20.217
682.12	23.555
682.44	21.121
682.77	21.364
683.09	22.549
683.41	25.313
683.73	22.362
684.06	18.020
684.38	23.261
684.70	21.709
685.02	22.078
685.34	20.502
685.67	19.565
685.99	21.557
686.31	22.201
686.63	20.194
686.96	17.683
687.28	21.355
687.60	22.587
687.92	18.354
688.24	23.158
688.56	19.121
688.89	22.831
689.21	20.000
689.53	19.693
689.85	19.747
690.17	20.588
690.49	22.588
690.82	22.359
691.14	22.193
691.46	19.500
691.78	20.335
692.10	21.560
692.42	22.018
692.74	23.934
693.06	18.072
693.39	19.951
693.71	19.767
694.03	17.150
694.35	20.050
694.67	21.883
694.99	26.415
695.31	20.680
695.63	22.162
695.95	21.348
696.27	23.229
696.59	17.211
696.91	22.507
697.23	18.625
697.56	22.021
697.88	21.077
698.20	17.676
698.52	20.192
698.84	20.551
699.16	20.580
699.48	21.466
699.80	18.681
700.12	20.110
700.44	17.404
700.76	24.606
701.08	19.683
701.40	20.395
701.72	25.000
702.04	22.449
702.36	16.393
702.68	21.812
703.00	20.505
703.32	17.365
703.64	21.136
703.96	18.354
704.28	16.197
704.60	23.288
704.91	23.684
705.23	19.649
705.55	17.844
705.87	22.662
706.19	20.717
706.51	19.922
706.83	17.216
707.15	20.678
707.47	20.958
707.79	18.911
708.11	23.280
708.43	19.733
708.74	16.940
709.06	19.018
709.38	18.101
709.70	17.532
710.02	22.378
710.34	14.894
710.66	16.479
710.98	15.734
711.29	18.900
711.61	19.149
711.93	21.348
712.25	19.623
712.57	15.234
712.89	22.449
713.20	20.565
713.52	18.293
713.84	20.803
714.16	21.959
714.48	19.454
714.80	22.559
715.11	21.993
715.43	15.358
715.75	16.842
716.07	17.818
716.39	17.747
716.70	19.200
717.02	20.161
717.34	20.779
717.66	20.909
717.97	16.667
718.29	25.333
718.61	12.162
718.93	21.429
719.24	18.828
719.56	20.982
719.88	12.941
720.20	13.675
720.51	20.614
720.83	19.665
721.15	22.449
721.46	23.207
721.78	19.048
722.10	19.767
722.42	18.696
722.73	14.480
723.05	17.972
723.37	17.195
723.68	18.483
724.00	14.815
724.32	22.430
724.63	18.100
724.95	16.895
725.27	22.066
725.58	19.635
725.90	19.820
726.22	14.410
726.53	15.574
726.85	19.630
727.16	22.672
727.48	21.371
727.80	18.265
728.11	16.444
728.43	16.872
728.74	19.298
729.06	14.410
729.38	18.992
729.69	13.600
730.01	12.971
730.32	20.319
730.64	17.692
730.96	15.830
731.27	11.197
731.59	13.468
731.90	14.145
732.22	19.601
732.53	10.877
732.85	12.324
733.16	20.147
733.48	13.060
733.80	18.545
734.11	14.894
734.43	21.300
734.74	15.888
735.06	21.865
735.37	14.058
735.69	13.732
736.00	15.556
736.32	16.434
736.63	17.778
736.95	11.284
737.26	14.493
737.58	16.423
737.89	16.981
738.21	17.176
738.52	20.082
738.83	17.949
739.15	20.909
739.46	9.910
739.78	13.514
740.09	14.286
740.41	16.288
740.72	13.147
741.04	18.182
741.35	15.695
741.66	15.591
741.98	16.327
742.29	16.062
742.61	15.029
742.92	12.255
743.23	18.905
743.55	16.062
743.86	16.908
744.18	17.500
744.49	13.889
744.80	20.968
745.12	15.897
745.43	13.369
745.74	17.647
746.06	22.989
746.37	13.333
746.68	18.378
747.00	9.945
747.31	21.466
747.62	16.316
747.94	16.509
748.25	21.675
748.56	15.152
748.88	14.208
749.19	16.580
749.50	17.647
749.82	19.500
750.13	13.107
750.44	15.021
750.75	18.000
751.07	12.971
751.38	17.188
751.69	18.651
752.01	15.126
752.32	19.008
752.63	13.537
752.94	19.600
753.26	17.808
753.57	12.322
753.88	4.651
754.19	15.859
754.51	13.808
754.82	14.167
755.13	11.947
755.44	16.017
755.75	12.851
756.07	12.446
756.38	14.644
756.69	20.000
757.00	14.184
757.31	15.917
757.63	18.954
757.94	11.818
758.25	13.095
758.56	15.946
758.87	11.012
759.18	16.822
759.50	15.658
759.81	13.514
760.12	17.438
760.43	18.937
760.74	15.569
761.05	15.705
761.36	13.353
761.67	13.070
761.99	14.047
762.30	13.455
762.61	17.886
762.92	18.667
763.23	15.349
763.54	21.827
763.85	19.457
764.16	14.348
764.47	16.957
764.78	12.097
765.10	11.811
765.41	15.719
765.72	13.712
766.03	16.054
766.34	14.394
766.65	19.141
766.96	15.111
767.27	17.877
767.58	10.692
767.89	18.182
768.20	13.514
768.51	19.540
768.82	5.000
769.13	18.519
769.44	16.038
769.75	14.706
770.06	10.194
770.37	14.894
770.68	14.872
770.99	10.152
771.30	12.371
771.61	10.762
771.92	12.264
772.23	11.538
772.54	13.529
772.85	8.904
773.16	13.548
773.47	14.650
773.78	16.168
774.09	13.816
774.39	10.294
774.70	16.541
775.01	15.385
775.32	9.524
775.63	12.598
775.94	10.377
776.25	6.667
776.56	9.091
776.87	18.803
777.18	18.000
777.48	10.577
777.79	12.963
778.10	16.038
778.41	20.588
778.72	8.491
779.03	7.895
779.34	9.244
779.65	11.972
779.95	12.950
780.26	6.452
780.57	13.043
780.88	3.670
781.19	21.296
781.50	6.557
781.80	15.328
782.11	14.744
782.42	8.276
782.73	18.881
783.04	11.200
783.34	15.200
783.65	15.447
783.96	8.197
784.27	7.563
784.57	7.477
784.88	12.500
785.19	9.278
785.50	9.474
785.81	12.000
786.11	5.941
786.42	-10.588
786.73	9.375
787.04	10.204
787.34	12.037
787.65	18.868
787.96	-3.093
788.26	4.950
788.57	11.304
788.88	5.505
789.19	9.091
789.49	15.652
789.80	11.207
790.11	-8.537
790.41	16.854
790.72	17.442
791.03	11.628
791.33	0.000
791.64	25.610
791.95	6.098
792.25	0.000
792.56	6.173
792.87	9.859
793.17	20.482
793.48	9.412
793.79	16.250
794.09	5.000
794.40	9.783
794.70	7.826
795.01	5.505
795.32	5.512
795.62	7.843
795.93	-0.980
796.23	7.071
796.54	3.488
796.85	11.594
797.15	0.000
797.46	-6.780
797.76	14.754
798.07	0.000
798.37	4.839
798.68	0.000
798.99	9.231
799.29	0.000
799.60	7.246
799.90	22.857
800.21	0.000
800.51	5.172
800.82	13.208
801.12	11.765
801.43	3.226
801.73	22.581
802.04	20.000
802.34	-20.755
802.65	-13.158
802.95	25.455
803.26	9.434
803.56	8.197
803.87	-10.000
804.17	-3.704
804.48	-3.846
804.78	-12.245
805.09	27.660
805.39	13.559
805.70	-6.250
806.00	-1.786
806.30	-3.390
806.61	26.154
806.91	-12.308
807.22	-10.526
807.52	14.286
807.83	-17.241
808.13	10.127
808.43	0.000
808.74	8.197
809.04	2.703
809.35	5.556
809.65	1.786
809.95	10.169
810.26	-14.286
810.56	1.887
810.86	9.804
811.17	0.000
811.47	-62.963
811.77	11.765
812.08	2.273
812.38	4.167
812.69	-15.385
812.99	23.810
813.29	-4.348
813.59	-5.714
813.90	21.429
814.20	-16.364
814.50	6.122
814.81	-15.686
815.11	-14.583
815.41	-9.756
815.72	-38.462
816.02	34.043
816.32	-15.625
816.62	6.061
816.93	-21.212
817.23	0.000
817.53	-5.882
817.84	17.500
818.14	11.765
818.44	-9.375
818.74	-61.905
819.04	5.714
819.35	0.000
819.65	22.727
819.95	10.256
820.25	-33.333
820.56	-24.138
820.86	-10.714
821.16	-26.087
821.46	14.286
821.76	12.963
822.07	13.043
822.37	-8.163
822.67	2.326
822.97	8.696
823.27	-46.154
823.57	-37.037
823.88	-10.714
824.18	-2.564
824.48	10.714
824.78	21.212
825.08	-153.333
825.38	-2.500
825.69	-94.444
825.99	-25.926
826.29	26.667
826.59	-33.333
826.89	66.667
827.19	-46.429
827.49	-36.364
827.79	-104.545
828.09	-4.545
828.39	-52.174
828.70	-3.704
829.00	-32.143
829.30	9.524
829.60	0.000
829.90	-7.692
830.20	-2.564
830.50	-31.818
830.80	-23.810
831.10	-44.444
831.40	-14.286
831.70	-22.222
832.00	5.882
832.30	4.348
832.60	29.167
832.90	-127.273
833.20	-83.333
833.50	-12.500
833.80	-26.923
834.10	32.000
834.40	-29.167
834.70	-13.636
835.00	-34.615
835.30	-50.000
835.60	-130.000
835.90	-5.000
836.20	-64.286
836.50	8.696
836.80	-22.222
837.10	-46.667
837.40	-70.000
837.70	8.696
838.00	-14.286
838.30	1300.000
838.60	16.000
838.90	-320.000
839.19	-100.000
839.49	-850.000
839.79	0.000
840.09	-88.889
840.39	-17.857
840.69	-44.444
840.99	-41.667
841.29	-17.241
841.59	-20.000
841.88	-81.818
842.18	-200.000
842.48	-37.500
842.78	-42.308
843.08	-29.412
843.38	-15.000
843.68	-92.308
843.97	-47.059
844.27	-60.000
844.57	-12.500
844.87	-100.000
845.17	-73.684
845.47	-94.444
845.76	16.667
846.06	-52.381
846.36	-21.429
846.66	-155.556
846.96	-30.000
847.25	-40.000
847.55	-100.000
847.85	-73.333
848.15	-100.000
848.44	-5.263
848.74	-26.667
849.04	-42.105
849.34	0.000
849.63	-166.667
849.93	0.000
850.23	-54.545
850.53	-100.000
850.82	20.000
851.12	-55.556
851.42	-42.857
851.71	-80.000
852.01	-42.857
852.31	-333.333
852.61	7.692
852.90	-280.000
853.20	-88.889
853.50	-155.556
853.79	-40.000
854.09	-30.000
854.39	-26.316
854.68	-45.000
854.98	-75.000
855.28	-44.444
855.57	-100.000
855.87	-31.579
856.17	-93.750
856.46	3.846
856.76	-26.667
857.05	-6.250
857.35	-25.000
857.65	0.000
857.94	-37.500
858.24	-43.478
858.53	-100.000
858.83	-400.000
859.13	-54.545
859.42	-110.000
859.72	133.333
860.01	-7.692
860.31	-60.000
860.60	-187.500
860.90	-275.000
861.20	-233.333
861.49	-175.000
861.79	400.000
862.08	22.581
862.38	-21.053
862.67	-23.077
862.97	-90.000
863.26	-41.667
863.56	-4.348
863.85	-250.000
864.15	35.714
864.44	18.750
864.74	-91.667
865.03	55.556
865.33	-333.333
865.62	-1100.000
865.92	-450.000
866.21	-116.667
866.51	27.273
866.80	-333.333
867.10	-214.286
867.39	-44.444
867.69	-58.333
867.98	40.000
868.27	-300.000
868.57	275.000
868.86	-60.000
869.16	38.462
869.45	800.000
869.75	-83.333
870.04	-83.333
870.33	23.529
870.63	-42.857
870.92	65.217
871.22	-125.000
871.51	660.000
871.80	-6.250
872.10	-400.000
>>>>>End Processed Spectral Data<<<<<
