SpectraSuite Data File
++++++++++++++++++++++++++++++++++++
Date: Tue May 12 19:42:53 PDT 2015
User: schluterlab
Dark Spectrum Present: Yes
Reference Spectrum Present: Yes
Number of Sampled Component Spectra: 1
Spectrometers: USB2E3373
Integration Time (usec): 3000 (USB2E3373)
Spectra Averaged: 3 (USB2E3373)
Boxcar Smoothing: 0 (USB2E3373)
Correct for Electrical Dark: No (USB2E3373)
Strobe/Lamp Enabled: No (USB2E3373)
Correct for Detector Non-linearity: No (USB2E3373)
Correct for Stray Light: No (USB2E3373)
Number of Pixels in Processed Spectrum: 2048
>>>>>Begin Processed Spectral Data<<<<<
178.53	0.000
178.91	-60.000
179.29	-183.333
179.67	100.000
180.04	0.000
180.42	-260.000
180.80	-133.333
181.18	950.000
181.56	-300.000
181.94	200.000
182.31	1200.000
182.69	-85.714
183.07	0.000
183.45	158.333
183.83	340.000
184.20	50.000
184.58	550.000
184.96	200.000
185.34	-200.000
185.72	-28.571
186.09	-216.667
186.47	-1000.000
186.85	80.000
187.23	141.667
187.61	-128.571
187.98	-260.000
188.36	400.000
188.74	-100.000
189.12	-55.556
189.49	10.000
189.87	50.000
190.25	177.778
190.63	400.000
191.00	40.000
191.38	-200.000
191.76	380.000
192.14	14.286
192.51	-80.000
192.89	-140.000
193.27	-140.000
193.65	-66.667
194.02	-100.000
194.40	1700.000
194.78	-25.000
195.15	-242.857
195.53	33.333
195.91	220.000
196.29	-75.000
196.66	-366.667
197.04	-85.714
197.42	140.000
197.79	-50.000
198.17	-75.000
198.55	-200.000
198.92	-44.444
199.30	150.000
199.68	25.000
200.05	-850.000
200.43	-11.111
200.81	-58.333
201.18	250.000
201.56	-350.000
201.94	-400.000
202.31	-33.333
202.69	-33.333
203.07	-33.333
203.44	-350.000
203.82	0.000
204.19	237.500
204.57	-333.333
204.95	118.182
205.32	160.000
205.70	150.000
206.08	-400.000
206.45	40.000
206.83	1300.000
207.20	-55.556
207.58	15.385
207.96	100.000
208.33	400.000
208.71	266.667
209.08	450.000
209.46	-22.222
209.84	566.667
210.21	-500.000
210.59	50.000
210.96	155.556
211.34	-150.000
211.71	600.000
212.09	20.000
212.46	-250.000
212.84	-50.000
213.22	100.000
213.59	-100.000
213.97	0.000
214.34	-400.000
214.72	-800.000
215.09	350.000
215.47	-26.667
215.84	-87.500
216.22	-1300.000
216.59	1100.000
216.97	0.000
217.34	-116.667
217.72	-33.333
218.09	300.000
218.47	-36.842
218.84	-137.500
219.22	-57.143
219.59	-80.000
219.97	-70.000
220.34	166.667
220.72	54.545
221.09	-550.000
221.47	0.000
221.84	700.000
222.22	-150.000
222.59	-250.000
222.97	4.348
223.34	120.000
223.72	271.429
224.09	-266.667
224.46	161.538
224.84	33.333
225.21	-200.000
225.59	-150.000
225.96	10.000
226.34	183.333
226.71	180.000
227.08	-23.077
227.46	14.286
227.83	8.333
228.21	-150.000
228.58	83.333
228.95	-15.789
229.33	-12.500
229.70	-116.667
230.08	-88.889
230.45	-366.667
230.82	-1000.000
231.20	4.762
231.57	-320.000
231.95	-166.667
232.32	144.444
232.69	-700.000
233.07	25.000
233.44	-75.000
233.81	12.903
234.19	-180.000
234.56	-16.667
234.93	-166.667
235.31	-37.037
235.68	-3.704
236.05	-30.769
236.43	-36.842
236.80	-27.273
237.17	-71.429
237.55	-40.000
237.92	-16.279
238.29	-51.613
238.67	-50.000
239.04	5.714
239.41	-35.294
239.79	4.000
240.16	-15.000
240.53	-12.069
240.91	-4.110
241.28	-4.225
241.65	-6.250
242.02	-15.789
242.40	-8.000
242.77	1.053
243.14	-10.588
243.51	-11.828
243.89	-1.905
244.26	0.000
244.63	0.000
245.00	-10.714
245.38	-8.403
245.75	-2.542
246.12	6.250
246.49	-11.200
246.87	-4.098
247.24	-3.521
247.61	-4.636
247.98	1.685
248.36	-3.774
248.73	-0.568
249.10	-5.556
249.47	0.521
249.84	-1.015
250.22	-7.812
250.59	-6.742
250.96	1.818
251.33	4.245
251.70	0.917
252.08	4.762
252.45	2.041
252.82	-3.376
253.19	-0.778
253.56	3.922
253.94	-0.813
254.31	3.597
254.68	-1.389
255.05	2.980
255.42	0.727
255.79	1.987
256.16	2.778
256.54	3.636
256.91	4.167
257.28	0.325
257.65	-3.279
258.02	2.102
258.39	1.813
258.76	0.000
259.14	0.588
259.51	1.690
259.88	2.305
260.25	-2.273
260.62	-0.281
260.99	1.950
261.36	1.724
261.73	0.533
262.10	1.635
262.47	0.826
262.85	4.113
263.22	1.344
263.59	5.630
263.96	2.611
264.33	-3.235
264.70	0.000
265.07	1.478
265.44	2.810
265.81	5.060
266.18	1.171
266.55	0.952
266.92	3.125
267.29	0.000
267.66	-2.045
268.03	2.151
268.40	2.288
268.77	2.227
269.14	1.681
269.51	1.357
269.88	2.350
270.25	0.844
270.62	4.622
270.99	0.000
271.36	0.221
271.73	2.292
272.10	1.867
272.47	0.600
272.84	-1.486
273.21	0.418
273.58	2.041
273.95	1.992
274.32	4.255
274.69	2.348
275.06	1.313
275.43	0.200
275.80	0.000
276.17	-0.791
276.54	5.513
276.91	3.647
277.28	1.934
277.65	0.189
278.02	0.568
278.39	3.630
278.76	2.421
279.13	2.862
279.50	3.610
279.87	0.943
280.23	1.275
280.60	-0.353
280.97	2.109
281.34	1.695
281.71	-0.355
282.08	1.431
282.45	-0.705
282.82	1.347
283.19	1.515
283.56	2.048
283.92	3.633
284.29	2.369
284.66	1.062
285.03	-0.858
285.40	2.000
285.77	2.956
286.14	1.902
286.51	0.161
286.87	3.890
287.24	-1.442
287.61	1.080
287.98	5.634
288.35	3.101
288.72	2.141
289.08	0.314
289.45	1.872
289.82	1.863
290.19	1.364
290.56	2.026
290.93	1.477
291.29	3.121
291.66	2.809
292.03	2.439
292.40	3.597
292.77	1.312
293.13	1.322
293.50	1.653
293.87	1.803
294.24	3.371
294.60	3.279
294.97	1.247
295.34	2.466
295.71	1.110
296.08	1.503
296.44	2.503
296.81	1.552
297.18	1.552
297.55	3.769
297.91	1.904
298.28	2.430
298.65	1.035
299.02	3.576
299.38	1.786
299.75	2.574
300.12	2.158
300.48	3.521
300.85	1.100
301.22	3.365
301.59	3.163
301.95	2.927
302.32	2.916
302.69	1.070
303.05	2.715
303.42	4.348
303.79	2.022
304.15	3.284
304.52	3.911
304.89	2.368
305.25	4.128
305.62	2.955
305.99	3.135
306.35	3.132
306.72	3.377
307.09	2.938
307.45	4.207
307.82	3.522
308.19	3.740
308.55	4.536
308.92	3.919
309.29	4.079
309.65	4.334
310.02	3.669
310.38	4.051
310.75	4.816
311.12	3.459
311.48	5.858
311.85	4.863
312.22	5.062
312.58	4.632
312.95	4.825
313.31	4.720
313.68	5.859
314.05	5.760
314.41	5.501
314.78	5.126
315.14	6.562
315.51	7.746
315.87	7.910
316.24	7.319
316.61	7.087
316.97	7.451
317.34	6.890
317.70	8.683
318.07	7.425
318.43	8.696
318.80	9.836
319.16	8.760
319.53	9.151
319.89	10.890
320.26	11.603
320.62	11.725
320.99	13.367
321.35	13.043
321.72	15.152
322.08	13.762
322.45	13.807
322.81	15.172
323.18	15.340
323.54	16.209
323.91	15.180
324.27	15.140
324.64	18.088
325.00	17.561
325.37	19.245
325.73	18.522
326.10	20.228
326.46	20.943
326.83	22.691
327.19	22.096
327.56	23.607
327.92	24.306
328.29	24.194
328.65	25.047
329.01	25.321
329.38	26.722
329.74	27.577
330.11	26.188
330.47	26.257
330.84	28.008
331.20	29.298
331.56	26.792
331.93	27.813
332.29	29.140
332.66	29.747
333.02	30.548
333.38	29.871
333.75	30.101
334.11	28.933
334.48	28.891
334.84	30.986
335.20	30.260
335.57	31.971
335.93	31.535
336.29	30.713
336.66	31.876
337.02	30.644
337.38	31.604
337.75	31.818
338.11	33.546
338.47	34.262
338.84	32.136
339.20	32.172
339.56	32.712
339.93	31.982
340.29	31.550
340.65	33.425
341.02	33.570
341.38	32.392
341.74	33.630
342.11	33.510
342.47	32.430
342.83	31.917
343.20	34.041
343.56	33.829
343.92	34.121
344.28	33.019
344.65	33.562
345.01	33.275
345.37	34.872
345.73	31.697
346.10	35.609
346.46	33.046
346.82	34.664
347.19	33.726
347.55	34.269
347.91	34.316
348.27	34.878
348.63	33.016
349.00	36.060
349.36	35.120
349.72	33.990
350.08	33.797
350.45	33.767
350.81	34.847
351.17	34.679
351.53	33.333
351.89	34.801
352.26	33.740
352.62	34.914
352.98	34.561
353.34	35.923
353.70	35.144
354.07	35.750
354.43	35.058
354.79	34.098
355.15	34.221
355.51	35.534
355.87	35.137
356.24	37.173
356.60	35.726
356.96	35.150
357.32	35.556
357.68	35.879
358.04	35.332
358.40	35.188
358.77	34.297
359.13	35.341
359.49	35.520
359.85	35.492
360.21	34.972
360.57	34.370
360.93	36.025
361.29	35.592
361.66	34.937
362.02	36.264
362.38	35.742
362.74	36.895
363.10	35.671
363.46	35.666
363.82	36.753
364.18	36.185
364.54	36.260
364.90	36.593
365.26	36.960
365.62	35.731
365.98	37.631
366.35	37.368
366.71	35.922
367.07	36.753
367.43	36.606
367.79	35.683
368.15	35.285
368.51	38.052
368.87	38.693
369.23	38.153
369.59	36.103
369.95	35.991
370.31	37.121
370.67	37.368
371.03	36.533
371.39	38.142
371.75	37.221
372.11	37.481
372.47	36.080
372.83	36.669
373.19	38.027
373.55	37.799
373.91	37.273
374.27	39.073
374.63	37.261
374.99	36.457
375.35	37.518
375.71	37.877
376.07	36.961
376.42	36.584
376.78	36.794
377.14	37.430
377.50	37.209
377.86	37.256
378.22	37.318
378.58	38.355
378.94	38.114
379.30	36.937
379.66	37.836
380.02	37.508
380.38	37.214
380.74	37.725
381.09	37.294
381.45	38.349
381.81	36.798
382.17	37.264
382.53	38.790
382.89	37.781
383.25	37.540
383.61	36.936
383.97	38.012
384.32	37.871
384.68	37.548
385.04	36.728
385.40	37.891
385.76	38.646
386.12	37.426
386.48	37.378
386.83	37.920
387.19	38.123
387.55	37.889
387.91	37.321
388.27	38.196
388.62	37.889
388.98	37.913
389.34	38.126
389.70	36.923
390.06	39.274
390.42	37.661
390.77	38.498
391.13	38.061
391.49	38.410
391.85	37.525
392.20	38.020
392.56	37.132
392.92	38.157
393.28	37.582
393.64	38.822
393.99	37.727
394.35	38.287
394.71	37.483
395.07	37.732
395.42	37.143
395.78	37.231
396.14	37.175
396.50	38.422
396.85	37.145
397.21	36.546
397.57	37.788
397.92	37.659
398.28	37.890
398.64	37.270
399.00	37.609
399.35	37.691
399.71	36.527
400.07	37.183
400.42	37.821
400.78	37.556
401.14	36.932
401.49	36.602
401.85	38.095
402.21	37.246
402.57	36.059
402.92	37.118
403.28	37.841
403.63	37.244
403.99	35.865
404.35	35.350
404.70	37.555
405.06	37.632
405.42	36.695
405.77	36.147
406.13	35.484
406.49	36.215
406.84	37.049
407.20	35.564
407.55	36.339
407.91	35.734
408.27	36.303
408.62	35.241
408.98	37.323
409.34	36.876
409.69	34.783
410.05	36.075
410.40	35.003
410.76	35.056
411.11	35.682
411.47	35.578
411.83	34.965
412.18	35.406
412.54	35.252
412.89	34.715
413.25	36.050
413.60	35.395
413.96	34.628
414.31	34.990
414.67	35.044
415.03	34.647
415.38	34.749
415.74	34.856
416.09	35.286
416.45	34.961
416.80	34.840
417.16	34.133
417.51	35.253
417.87	36.115
418.22	35.227
418.58	35.107
418.93	34.881
419.29	35.007
419.64	37.019
420.00	35.691
420.35	34.589
420.71	35.403
421.06	34.848
421.42	35.320
421.77	36.175
422.12	34.436
422.48	35.180
422.83	35.441
423.19	34.176
423.54	34.881
423.90	34.302
424.25	35.650
424.61	34.710
424.96	34.644
425.31	35.205
425.67	34.424
426.02	34.658
426.38	34.234
426.73	33.769
427.09	33.946
427.44	34.012
427.79	34.468
428.15	33.798
428.50	35.490
428.85	33.419
429.21	34.967
429.56	34.309
429.92	34.613
430.27	34.667
430.62	33.802
430.98	33.100
431.33	34.149
431.68	34.409
432.04	33.774
432.39	34.225
432.74	33.713
433.10	33.960
433.45	33.819
433.80	33.988
434.16	33.659
434.51	33.556
434.86	33.716
435.22	33.993
435.57	34.763
435.92	32.570
436.28	33.126
436.63	34.168
436.98	34.074
437.34	34.421
437.69	33.951
438.04	33.894
438.39	34.987
438.75	34.092
439.10	34.762
439.45	34.917
439.81	33.016
440.16	34.199
440.51	33.581
440.86	34.470
441.22	33.711
441.57	33.390
441.92	34.456
442.27	33.943
442.63	33.916
442.98	34.230
443.33	33.843
443.68	32.890
444.03	34.021
444.39	33.732
444.74	33.429
445.09	33.353
445.44	33.411
445.79	34.628
446.15	33.469
446.50	33.256
446.85	34.048
447.20	34.354
447.55	32.752
447.91	33.862
448.26	33.947
448.61	33.776
448.96	33.412
449.31	33.936
449.66	32.446
450.02	33.846
450.37	34.751
450.72	34.171
451.07	33.223
451.42	34.519
451.77	32.282
452.12	33.271
452.47	32.249
452.83	33.313
453.18	33.153
453.53	34.422
453.88	33.504
454.23	32.843
454.58	33.812
454.93	32.561
455.28	32.994
455.63	33.463
455.98	33.376
456.34	32.284
456.69	32.566
457.04	32.480
457.39	31.773
457.74	33.312
458.09	31.923
458.44	31.760
458.79	31.625
459.14	32.499
459.49	32.484
459.84	31.926
460.19	32.833
460.54	31.250
460.89	31.529
461.24	31.558
461.59	31.483
461.94	32.413
462.29	31.830
462.64	32.730
462.99	32.777
463.34	32.674
463.69	32.442
464.04	31.944
464.39	32.219
464.74	31.343
465.09	31.897
465.44	31.254
465.79	30.866
466.14	31.205
466.49	31.172
466.84	31.757
467.19	30.994
467.54	29.576
467.89	31.221
468.24	30.997
468.59	31.414
468.94	29.859
469.29	30.796
469.64	31.218
469.99	30.570
470.34	30.764
470.68	30.231
471.03	31.022
471.38	31.563
471.73	31.613
472.08	31.032
472.43	30.775
472.78	31.182
473.13	31.158
473.48	31.120
473.83	31.242
474.17	29.553
474.52	31.212
474.87	30.808
475.22	32.274
475.57	30.670
475.92	29.847
476.27	30.018
476.61	30.437
476.96	30.765
477.31	29.737
477.66	29.924
478.01	30.665
478.36	30.086
478.70	30.423
479.05	29.367
479.40	28.413
479.75	30.230
480.10	30.574
480.45	30.314
480.79	29.632
481.14	28.993
481.49	29.306
481.84	29.899
482.19	29.366
482.53	29.118
482.88	29.283
483.23	29.196
483.58	28.663
483.92	29.447
484.27	29.526
484.62	29.939
484.97	29.569
485.31	28.809
485.66	28.314
486.01	28.139
486.36	27.920
486.70	27.754
487.05	28.179
487.40	28.193
487.75	28.142
488.09	27.193
488.44	28.006
488.79	27.905
489.13	27.847
489.48	27.253
489.83	28.387
490.17	28.504
490.52	28.776
490.87	28.487
491.22	28.600
491.56	27.619
491.91	27.861
492.26	28.608
492.60	28.214
492.95	28.285
493.30	28.176
493.64	27.535
493.99	27.823
494.34	28.485
494.68	28.048
495.03	27.231
495.37	27.927
495.72	28.165
496.07	28.195
496.41	26.532
496.76	26.695
497.11	27.474
497.45	27.323
497.80	27.674
498.14	27.033
498.49	28.297
498.84	27.044
499.18	27.452
499.53	27.414
499.87	27.189
500.22	27.169
500.56	27.839
500.91	27.530
501.26	26.982
501.60	27.013
501.95	26.510
502.29	27.142
502.64	26.829
502.98	26.805
503.33	26.810
503.67	27.208
504.02	27.222
504.36	26.451
504.71	26.064
505.06	26.727
505.40	27.828
505.75	26.751
506.09	26.598
506.44	27.039
506.78	26.981
507.13	26.873
507.47	27.756
507.82	26.507
508.16	26.615
508.51	27.516
508.85	27.088
509.19	26.001
509.54	26.346
509.88	26.352
510.23	26.685
510.57	27.087
510.92	27.324
511.26	26.077
511.61	26.370
511.95	26.721
512.30	27.072
512.64	26.452
512.98	26.344
513.33	25.791
513.67	26.228
514.02	25.661
514.36	25.623
514.70	27.019
515.05	27.256
515.39	26.349
515.74	26.065
516.08	27.809
516.42	26.911
516.77	26.335
517.11	25.627
517.46	26.171
517.80	26.611
518.14	26.755
518.49	26.003
518.83	27.108
519.17	26.607
519.52	26.483
519.86	26.219
520.20	25.732
520.55	27.480
520.89	26.316
521.23	26.186
521.58	26.124
521.92	25.100
522.26	26.186
522.61	25.939
522.95	25.205
523.29	25.843
523.64	25.102
523.98	25.403
524.32	26.397
524.66	26.037
525.01	26.186
525.35	26.060
525.69	25.120
526.04	26.145
526.38	25.771
526.72	25.903
527.06	26.020
527.41	25.372
527.75	24.767
528.09	26.733
528.43	26.223
528.78	24.948
529.12	25.274
529.46	25.116
529.80	24.779
530.15	26.129
530.49	25.314
530.83	24.946
531.17	25.353
531.51	24.982
531.86	25.700
532.20	24.387
532.54	24.964
532.88	25.091
533.22	24.210
533.57	24.414
533.91	24.295
534.25	23.897
534.59	24.897
534.93	23.774
535.27	25.522
535.62	24.510
535.96	24.913
536.30	24.217
536.64	24.392
536.98	25.147
537.32	24.926
537.66	24.267
538.01	24.521
538.35	23.855
538.69	23.567
539.03	23.432
539.37	23.546
539.71	24.638
540.05	24.385
540.39	23.893
540.73	25.348
541.07	24.632
541.42	23.949
541.76	24.460
542.10	24.677
542.44	24.277
542.78	23.094
543.12	23.249
543.46	23.100
543.80	24.160
544.14	23.226
544.48	24.140
544.82	22.924
545.16	23.696
545.50	24.090
545.84	25.238
546.18	23.596
546.52	23.367
546.86	23.718
547.20	23.712
547.54	23.275
547.88	23.291
548.22	23.347
548.56	23.115
548.90	23.298
549.24	23.173
549.58	24.292
549.92	23.985
550.26	23.398
550.60	23.315
550.94	23.968
551.28	23.902
551.62	23.751
551.96	22.764
552.30	22.791
552.64	22.915
552.98	22.437
553.32	23.030
553.66	23.596
554.00	23.398
554.34	23.594
554.68	22.967
555.02	23.016
555.36	22.716
555.69	21.906
556.03	22.764
556.37	22.806
556.71	22.021
557.05	21.406
557.39	22.892
557.73	21.855
558.07	22.457
558.41	22.267
558.75	22.158
559.08	23.489
559.42	23.244
559.76	22.409
560.10	23.553
560.44	21.932
560.78	22.464
561.12	20.736
561.45	22.173
561.79	22.247
562.13	22.165
562.47	21.789
562.81	22.062
563.15	22.129
563.48	21.498
563.82	22.489
564.16	21.553
564.50	21.275
564.84	22.679
565.17	21.102
565.51	21.956
565.85	21.408
566.19	21.921
566.52	21.577
566.86	22.473
567.20	21.690
567.54	21.634
567.88	20.449
568.21	21.395
568.55	20.600
568.89	20.549
569.23	20.934
569.56	20.690
569.90	21.028
570.24	20.370
570.57	20.956
570.91	20.378
571.25	20.523
571.59	20.787
571.92	19.535
572.26	19.654
572.60	19.564
572.93	20.334
573.27	19.663
573.61	19.715
573.95	19.745
574.28	19.559
574.62	19.197
574.96	19.609
575.29	18.973
575.63	19.215
575.97	19.591
576.30	19.260
576.64	19.294
576.98	19.499
577.31	19.279
577.65	19.554
577.98	19.049
578.32	19.266
578.66	18.787
578.99	19.266
579.33	19.049
579.67	19.040
580.00	18.821
580.34	19.268
580.67	18.616
581.01	19.004
581.35	18.335
581.68	18.601
582.02	18.712
582.35	18.934
582.69	19.012
583.02	18.623
583.36	18.827
583.70	18.881
584.03	18.614
584.37	19.012
584.70	18.383
585.04	18.762
585.37	18.630
585.71	18.077
586.04	18.488
586.38	19.014
586.72	18.870
587.05	18.959
587.39	18.605
587.72	18.783
588.06	19.120
588.39	18.639
588.73	18.832
589.06	17.727
589.40	19.113
589.73	18.736
590.07	18.583
590.40	19.415
590.73	19.200
591.07	19.048
591.40	18.365
591.74	19.076
592.07	18.959
592.41	19.353
592.74	18.960
593.08	18.407
593.41	18.341
593.75	18.874
594.08	18.198
594.41	18.802
594.75	18.716
595.08	18.816
595.42	18.551
595.75	18.636
596.09	18.575
596.42	18.605
596.75	19.091
597.09	18.797
597.42	17.644
597.75	18.668
598.09	18.118
598.42	18.930
598.76	17.532
599.09	18.655
599.42	17.742
599.76	18.086
600.09	18.308
600.42	17.852
600.76	17.706
601.09	18.314
601.42	17.915
601.76	17.695
602.09	17.512
602.42	18.628
602.76	18.063
603.09	17.755
603.42	18.143
603.76	17.667
604.09	17.920
604.42	17.991
604.76	17.252
605.09	17.855
605.42	18.389
605.75	17.588
606.09	18.578
606.42	17.892
606.75	18.028
607.09	17.910
607.42	17.990
607.75	17.906
608.08	18.195
608.42	18.186
608.75	17.659
609.08	17.163
609.41	17.989
609.75	17.957
610.08	18.140
610.41	17.405
610.74	17.644
611.07	17.821
611.41	17.398
611.74	17.791
612.07	18.080
612.40	18.050
612.73	17.477
613.07	17.616
613.40	17.309
613.73	16.781
614.06	17.330
614.39	18.219
614.72	17.414
615.06	18.312
615.39	18.072
615.72	17.525
616.05	17.217
616.38	17.023
616.71	17.475
617.05	17.337
617.38	18.258
617.71	17.701
618.04	17.674
618.37	16.743
618.70	17.527
619.03	17.476
619.36	18.262
619.69	17.418
620.03	17.468
620.36	17.914
620.69	17.147
621.02	18.290
621.35	17.532
621.68	17.462
622.01	17.469
622.34	17.588
622.67	17.960
623.00	18.428
623.33	18.425
623.66	17.928
623.99	17.225
624.32	17.474
624.65	17.187
624.99	17.578
625.32	17.615
625.65	16.894
625.98	18.917
626.31	17.489
626.64	18.378
626.97	18.382
627.30	18.148
627.63	18.140
627.96	17.225
628.29	17.017
628.62	18.557
628.95	17.107
629.28	18.595
629.61	17.346
629.94	18.672
630.26	17.050
630.59	18.639
630.92	17.176
631.25	17.877
631.58	17.791
631.91	17.312
632.24	18.225
632.57	16.766
632.90	18.819
633.23	18.452
633.56	17.736
633.89	18.338
634.22	17.692
634.55	17.477
634.88	18.608
635.20	17.945
635.53	19.274
635.86	19.293
636.19	18.827
636.52	17.385
636.85	16.558
637.18	18.135
637.51	18.022
637.83	17.318
638.16	19.488
638.49	17.867
638.82	18.565
639.15	18.286
639.48	18.486
639.81	18.182
640.13	18.989
640.46	18.268
640.79	17.984
641.12	17.364
641.45	17.574
641.77	17.516
642.10	19.381
642.43	17.508
642.76	17.563
643.09	18.858
643.41	18.996
643.74	18.924
644.07	17.284
644.40	18.412
644.73	17.127
645.05	19.466
645.38	20.000
645.71	18.511
646.04	18.587
646.36	18.182
646.69	18.569
647.02	20.508
647.35	19.200
647.67	20.842
648.00	20.000
648.33	17.726
648.66	16.141
648.98	17.797
649.31	18.072
649.64	18.244
649.96	17.736
650.29	18.053
650.62	16.883
650.94	17.006
651.27	16.185
651.60	16.061
651.92	17.939
652.25	13.193
652.58	19.928
652.90	16.370
653.23	13.711
653.56	17.708
653.88	18.431
654.21	17.769
654.54	15.947
654.86	17.086
655.19	15.000
655.52	15.813
655.84	15.070
656.17	14.976
656.49	20.288
656.82	23.384
657.15	18.387
657.47	14.132
657.80	10.322
658.13	8.524
658.45	14.704
658.78	14.196
659.10	14.114
659.43	14.228
659.75	13.985
660.08	14.679
660.41	14.511
660.73	14.820
661.06	15.273
661.38	16.935
661.71	18.818
662.03	19.213
662.36	16.468
662.68	15.827
663.01	18.510
663.33	19.575
663.66	18.900
663.98	20.049
664.31	15.854
664.63	16.972
664.96	15.914
665.28	17.730
665.61	16.589
665.93	18.203
666.26	15.453
666.58	17.661
666.91	18.970
667.23	18.473
667.56	17.531
667.88	19.048
668.21	16.244
668.53	15.736
668.86	14.796
669.18	16.751
669.50	18.509
669.83	17.250
670.15	15.000
670.48	17.043
670.80	17.766
671.13	15.904
671.45	15.306
671.77	17.633
672.10	17.143
672.42	15.339
672.75	15.340
673.07	15.514
673.39	17.315
673.72	15.083
674.04	15.957
674.37	17.783
674.69	15.187
675.01	17.907
675.34	14.951
675.66	15.238
675.98	17.424
676.31	18.640
676.63	13.918
676.95	15.108
677.28	13.614
677.60	18.546
677.92	15.038
678.25	13.689
678.57	13.689
678.89	16.972
679.22	15.596
679.54	14.699
679.86	15.203
680.18	13.389
680.51	16.222
680.83	13.958
681.15	15.686
681.48	15.532
681.80	14.565
682.12	16.488
682.44	12.716
682.77	16.364
683.09	16.176
683.41	14.787
683.73	14.824
684.06	13.198
684.38	16.547
684.70	15.704
685.02	14.069
685.34	13.598
685.67	15.217
685.99	14.172
686.31	16.231
686.63	15.146
686.96	13.821
687.28	15.195
687.60	17.864
687.92	11.603
688.24	13.684
688.56	14.945
688.89	15.753
689.21	13.488
689.53	14.578
689.85	15.443
690.17	13.971
690.49	17.647
690.82	14.988
691.14	16.449
691.46	14.000
691.78	16.029
692.10	16.514
692.42	16.972
692.74	15.640
693.06	13.253
693.39	15.271
693.71	14.419
694.03	12.802
694.35	14.356
694.67	13.995
694.99	16.442
695.31	13.031
695.63	11.081
695.95	14.888
696.27	13.598
696.59	14.837
696.91	15.100
697.23	14.900
697.56	11.399
697.88	12.646
698.20	9.685
698.52	15.625
698.84	15.789
699.16	14.512
699.48	14.398
699.80	10.165
700.12	14.876
700.44	12.389
700.76	12.934
701.08	12.063
701.40	12.829
701.72	19.333
702.04	13.946
702.36	14.098
702.68	16.443
703.00	12.303
703.32	12.874
703.64	16.088
703.96	11.076
704.28	14.085
704.60	12.671
704.91	9.868
705.23	12.982
705.55	11.524
705.87	12.950
706.19	13.944
706.51	14.844
706.83	13.919
707.15	16.610
707.47	12.874
707.79	10.888
708.11	16.667
708.43	12.267
708.74	12.295
709.06	14.417
709.38	11.276
709.70	13.961
710.02	11.189
710.34	12.411
710.66	10.861
710.98	14.685
711.29	13.746
711.61	12.411
711.93	13.109
712.25	17.736
712.57	12.500
712.89	13.469
713.20	8.468
713.52	8.130
713.84	13.504
714.16	14.865
714.48	13.993
714.80	13.805
715.11	14.777
715.43	12.628
715.75	14.386
716.07	11.636
716.39	13.993
716.70	11.200
717.02	11.694
717.34	13.420
717.66	11.364
717.97	10.185
718.29	11.111
718.61	9.459
718.93	11.345
719.24	7.950
719.56	11.161
719.88	12.941
720.20	8.547
720.51	14.035
720.83	14.226
721.15	15.102
721.46	10.970
721.78	8.658
722.10	16.667
722.42	13.913
722.73	10.407
723.05	10.599
723.37	9.955
723.68	12.322
724.00	10.648
724.32	15.421
724.63	14.932
724.95	7.763
725.27	15.493
725.58	12.329
725.90	4.955
726.22	11.790
726.53	8.197
726.85	16.296
727.16	13.765
727.48	9.274
727.80	8.676
728.11	13.333
728.43	12.346
728.74	9.211
729.06	9.170
729.38	19.380
729.69	10.000
730.01	8.368
730.32	13.147
730.64	16.923
730.96	7.722
731.27	11.197
731.59	15.488
731.90	13.487
732.22	12.292
732.53	7.018
732.85	5.282
733.16	15.751
733.48	10.075
733.80	12.364
734.11	10.638
734.43	6.859
734.74	9.346
735.06	11.576
735.37	7.987
735.69	5.986
736.00	11.111
736.32	10.490
736.63	12.593
736.95	7.782
737.26	14.493
737.58	10.949
737.89	13.585
738.21	16.031
738.52	20.082
738.83	11.966
739.15	9.545
739.46	5.856
739.78	10.811
740.09	5.556
740.41	9.848
740.72	6.773
741.04	11.858
741.35	10.762
741.66	9.677
741.98	11.224
742.29	8.808
742.61	3.468
742.92	11.275
743.23	16.418
743.55	12.953
743.86	10.628
744.18	11.500
744.49	18.889
744.80	15.054
745.12	6.667
745.43	6.952
745.74	6.952
746.06	10.920
746.37	7.222
746.68	15.135
747.00	3.315
747.31	12.565
747.62	11.053
747.94	12.736
748.25	14.286
748.56	14.646
748.88	11.475
749.19	12.435
749.50	4.706
749.82	13.000
750.13	11.650
750.44	8.155
750.75	7.600
751.07	5.858
751.38	9.766
751.69	16.667
752.01	14.706
752.32	9.504
752.63	9.170
752.94	12.400
753.26	7.763
753.57	7.109
753.88	9.767
754.19	9.692
754.51	8.368
754.82	14.583
755.13	10.619
755.44	12.121
755.75	8.032
756.07	11.588
756.38	10.879
756.69	13.585
757.00	10.638
757.31	10.727
757.63	11.438
757.94	10.000
758.25	10.417
758.56	7.838
758.87	8.631
759.18	14.642
759.50	12.100
759.81	13.127
760.12	11.744
760.43	8.638
760.74	10.778
761.05	13.782
761.36	11.573
761.67	10.030
761.99	9.699
762.30	13.455
762.61	13.008
762.92	10.667
763.23	13.488
763.54	9.645
763.85	14.480
764.16	7.826
764.47	9.130
764.78	10.081
765.10	11.417
765.41	10.033
765.72	9.030
766.03	12.709
766.34	9.470
766.65	14.844
766.96	9.778
767.27	14.525
767.58	15.094
767.89	4.545
768.20	9.459
768.51	9.770
768.82	3.750
769.13	14.352
769.44	12.264
769.75	4.902
770.06	6.796
770.37	6.915
770.68	6.154
770.99	13.706
771.30	11.856
771.61	11.211
771.92	12.264
772.23	8.654
772.54	5.882
772.85	4.110
773.16	5.161
773.47	10.828
773.78	9.581
774.09	11.184
774.39	0.735
774.70	10.526
775.01	7.692
775.32	2.381
775.63	14.961
775.94	7.547
776.25	12.593
776.56	2.727
776.87	12.821
777.18	4.000
777.48	1.923
777.79	-5.556
778.10	-1.887
778.41	6.863
778.72	13.208
779.03	7.895
779.34	2.521
779.65	10.563
779.95	10.791
780.26	8.871
780.57	10.145
780.88	0.917
781.19	7.407
781.50	8.197
781.80	14.599
782.11	3.846
782.42	7.586
782.73	9.091
783.04	-2.400
783.34	4.800
783.65	16.260
783.96	-1.639
784.27	0.840
784.57	2.804
784.88	2.679
785.19	15.464
785.50	-3.158
785.81	7.000
786.11	3.960
786.42	-5.882
786.73	10.417
787.04	3.061
787.34	12.037
787.65	8.491
787.96	-3.093
788.26	-3.960
788.57	-0.870
788.88	-9.174
789.19	4.132
789.49	9.565
789.80	11.207
790.11	-1.220
790.41	5.618
790.72	-2.326
791.03	-4.651
791.33	10.390
791.64	10.976
791.95	4.878
792.25	7.229
792.56	-6.173
792.87	-15.493
793.17	9.639
793.48	20.000
793.79	8.750
794.09	-1.667
794.40	14.130
794.70	5.217
795.01	0.917
795.32	5.512
795.62	8.824
795.93	8.824
796.23	7.071
796.54	-5.814
796.85	-2.899
797.15	1.563
797.46	-3.390
797.76	6.557
798.07	-5.263
798.37	6.452
798.68	3.125
798.99	4.615
799.29	13.636
799.60	1.449
799.90	1.429
800.21	-12.281
800.51	-13.793
800.82	1.887
801.12	-3.922
801.43	-6.452
801.73	8.065
802.04	14.000
802.34	1.887
802.65	-42.105
802.95	0.000
803.26	-3.774
803.56	-8.197
803.87	16.000
804.17	-12.963
804.48	-9.615
804.78	-18.367
805.09	4.255
805.39	3.390
805.70	-25.000
806.00	1.786
806.30	8.475
806.61	15.385
806.91	1.538
807.22	0.000
807.52	8.571
807.83	1.724
808.13	13.924
808.43	3.279
808.74	0.000
809.04	6.757
809.35	11.111
809.65	1.786
809.95	6.780
810.26	-6.122
810.56	-1.887
810.86	-3.922
811.17	5.405
811.47	-33.333
811.77	0.000
812.08	-4.545
812.38	-29.167
812.69	25.641
812.99	4.762
813.29	13.043
813.59	2.857
813.90	-4.762
814.20	-14.545
814.50	-8.163
814.81	-11.765
815.11	-29.167
815.41	-14.634
815.72	7.692
816.02	-4.255
816.32	9.375
816.62	-36.364
816.93	-45.455
817.23	2.703
817.53	11.765
817.84	15.000
818.14	-29.412
818.44	-12.500
818.74	-33.333
819.04	-31.429
819.35	25.714
819.65	11.364
819.95	12.821
820.25	0.000
820.56	-6.897
820.86	-25.000
821.16	-39.130
821.46	4.762
821.76	5.556
822.07	-4.348
822.37	-2.041
822.67	-20.930
822.97	-13.043
823.27	-57.692
823.57	-22.222
823.88	-35.714
824.18	-5.128
824.48	-46.429
824.78	24.242
825.08	-126.667
825.38	27.500
825.69	-61.111
825.99	0.000
826.29	0.000
826.59	-22.222
826.89	-14.815
827.19	-14.286
827.49	-36.364
827.79	-40.909
828.09	-45.455
828.39	-47.826
828.70	-18.519
829.00	-7.143
829.30	-4.762
829.60	9.677
829.90	-42.308
830.20	12.821
830.50	-31.818
830.80	-38.095
831.10	-16.667
831.40	-78.571
831.70	-25.926
832.00	23.529
832.30	13.043
832.60	-37.500
832.90	-27.273
833.20	-16.667
833.50	-6.250
833.80	30.769
834.10	28.000
834.40	-37.500
834.70	-22.727
835.00	-3.846
835.30	-35.000
835.60	-80.000
835.90	20.000
836.20	-57.143
836.50	-21.739
836.80	-33.333
837.10	-13.333
837.40	-60.000
837.70	-4.348
838.00	-14.286
838.30	1400.000
838.60	36.000
838.90	-260.000
839.19	-55.556
839.49	-700.000
839.79	-52.941
840.09	22.222
840.39	-14.286
840.69	-38.889
840.99	-125.000
841.29	44.828
841.59	-100.000
841.88	63.636
842.18	-366.667
842.48	31.250
842.78	-15.385
843.08	-41.176
843.38	5.000
843.68	-115.385
843.97	-35.294
844.27	0.000
844.57	-4.167
844.87	-18.182
845.17	-73.684
845.47	-61.111
845.76	33.333
846.06	4.762
846.36	-121.429
846.66	-133.333
846.96	-45.000
847.25	-40.000
847.55	-25.000
847.85	-100.000
848.15	25.000
848.44	-21.053
848.74	-46.667
849.04	-10.526
849.34	200.000
849.63	-33.333
849.93	-17.647
850.23	-90.909
850.53	-100.000
850.82	40.000
851.12	-22.222
851.42	-28.571
851.71	-120.000
852.01	-42.857
852.31	-100.000
852.61	-30.769
852.90	-160.000
853.20	-144.444
853.50	-144.444
853.79	-110.000
854.09	-65.000
854.39	-15.789
854.68	0.000
854.98	-425.000
855.28	-72.222
855.57	-71.429
855.87	-73.684
856.17	-81.250
856.46	-15.385
856.76	13.333
857.05	-75.000
857.35	-4.167
857.65	-50.000
857.94	50.000
858.24	-43.478
858.53	-100.000
858.83	-200.000
859.13	-109.091
859.42	-120.000
859.72	200.000
860.01	-38.462
860.31	-150.000
860.60	-200.000
860.90	-100.000
861.20	-183.333
861.49	-375.000
861.79	550.000
862.08	-3.226
862.38	-36.842
862.67	-46.154
862.97	-80.000
863.26	-108.333
863.56	-4.348
863.85	-150.000
864.15	-21.429
864.44	-56.250
864.74	-50.000
865.03	-44.444
865.33	-400.000
865.62	-1600.000
865.92	-200.000
866.21	0.000
866.51	-9.091
866.80	-500.000
867.10	-171.429
867.39	-77.778
867.69	-83.333
867.98	120.000
868.27	-125.000
868.57	500.000
868.86	-26.667
869.16	-38.462
869.45	500.000
869.75	-233.333
870.04	-33.333
870.33	41.176
870.63	-171.429
870.92	82.609
871.22	-187.500
871.51	540.000
871.80	-18.750
872.10	-300.000
>>>>>End Processed Spectral Data<<<<<
