SpectraSuite Data File
++++++++++++++++++++++++++++++++++++
Date: Tue May 12 20:00:13 PDT 2015
User: schluterlab
Dark Spectrum Present: Yes
Reference Spectrum Present: Yes
Number of Sampled Component Spectra: 1
Spectrometers: USB2E3373
Integration Time (usec): 3000 (USB2E3373)
Spectra Averaged: 3 (USB2E3373)
Boxcar Smoothing: 0 (USB2E3373)
Correct for Electrical Dark: No (USB2E3373)
Strobe/Lamp Enabled: No (USB2E3373)
Correct for Detector Non-linearity: No (USB2E3373)
Correct for Stray Light: No (USB2E3373)
Number of Pixels in Processed Spectrum: 2048
>>>>>Begin Processed Spectral Data<<<<<
178.53	0.000
178.91	-170.000
179.29	-300.000
179.67	733.333
180.04	0.000
180.42	-260.000
180.80	-733.333
181.18	1300.000
181.56	-900.000
181.94	466.667
182.31	2900.000
182.69	-214.286
183.07	0.000
183.45	291.667
183.83	540.000
184.20	483.333
184.58	1650.000
184.96	450.000
185.34	-366.667
185.72	-107.143
186.09	-300.000
186.47	-1300.000
186.85	-240.000
187.23	250.000
187.61	-285.714
187.98	-360.000
188.36	750.000
188.74	-550.000
189.12	-277.778
189.49	-140.000
189.87	650.000
190.25	244.444
190.63	666.667
191.00	480.000
191.38	-666.667
191.76	400.000
192.14	-114.286
192.51	-80.000
192.89	-160.000
193.27	-460.000
193.65	-800.000
194.02	-250.000
194.40	1700.000
194.78	-125.000
195.15	-342.857
195.53	366.667
195.91	260.000
196.29	-575.000
196.66	-633.333
197.04	-385.714
197.42	380.000
197.79	-312.500
198.17	-225.000
198.55	-1600.000
198.92	-177.778
199.30	1250.000
199.68	-550.000
200.05	-600.000
200.43	-77.778
200.81	-166.667
201.18	516.667
201.56	-1050.000
201.94	-1900.000
202.31	-125.000
202.69	-177.778
203.07	-150.000
203.44	-475.000
203.82	0.000
204.19	337.500
204.57	-966.667
204.95	290.909
205.32	400.000
205.70	400.000
206.08	-1200.000
206.45	-340.000
206.83	3400.000
207.20	-255.556
207.58	-138.462
207.96	700.000
208.33	866.667
208.71	1000.000
209.08	1400.000
209.46	-188.889
209.84	866.667
210.21	-700.000
210.59	400.000
210.96	333.333
211.34	-650.000
211.71	1850.000
212.09	-340.000
212.46	-262.500
212.84	-237.500
213.22	228.571
213.59	-275.000
213.97	0.000
214.34	-800.000
214.72	-1700.000
215.09	950.000
215.47	-120.000
215.84	-112.500
216.22	-2300.000
216.59	1600.000
216.97	-100.000
217.34	-233.333
217.72	-44.444
218.09	525.000
218.47	-57.895
218.84	-200.000
219.22	-100.000
219.59	-250.000
219.97	-100.000
220.34	350.000
220.72	218.182
221.09	-1050.000
221.47	0.000
221.84	400.000
222.22	-575.000
222.59	-550.000
222.97	-60.870
223.34	240.000
223.72	400.000
224.09	-333.333
224.46	223.077
224.84	-180.000
225.21	-1400.000
225.59	-675.000
225.96	-40.000
226.34	516.667
226.71	290.000
227.08	-130.769
227.46	-200.000
227.83	-233.333
228.21	-1550.000
228.58	466.667
228.95	-57.895
229.33	-81.250
229.70	-333.333
230.08	-188.889
230.45	-666.667
230.82	-2300.000
231.20	-66.667
231.57	-400.000
231.95	-866.667
232.32	355.556
232.69	-950.000
233.07	-56.250
233.44	-175.000
233.81	-16.129
234.19	-640.000
234.56	-166.667
234.93	-466.667
235.31	-62.963
235.68	-51.852
236.05	-73.077
236.43	-78.947
236.80	-86.364
237.17	-121.429
237.55	-140.000
237.92	-20.930
238.29	-35.484
238.67	-67.857
239.04	-37.143
239.41	-49.020
239.79	-36.000
240.16	-42.500
240.53	-29.310
240.91	-10.959
241.28	-14.085
241.65	-3.125
242.02	-33.333
242.40	-30.667
242.77	-18.947
243.14	-12.941
243.51	-11.828
243.89	-20.952
244.26	-8.333
244.63	-12.245
245.00	-26.786
245.38	-14.286
245.75	-9.322
246.12	-5.469
246.49	-7.200
246.87	-17.213
247.24	-13.380
247.61	-6.623
247.98	-0.562
248.36	-3.145
248.73	-4.545
249.10	-5.000
249.47	-4.167
249.84	-10.152
250.22	-7.812
250.59	-7.303
250.96	-4.091
251.33	-1.415
251.70	-3.211
252.08	-0.866
252.45	-3.265
252.82	-6.329
253.19	-3.891
253.56	1.176
253.94	-3.659
254.31	0.719
254.68	-3.472
255.05	0.993
255.42	-2.182
255.79	3.642
256.16	-2.083
256.54	1.212
256.91	0.000
257.28	0.000
257.65	-2.951
258.02	0.000
258.39	2.719
258.76	2.446
259.14	0.882
259.51	3.099
259.88	1.441
260.25	-3.409
260.62	-1.404
260.99	-1.950
261.36	-4.023
261.73	0.533
262.10	0.817
262.47	2.479
262.85	1.542
263.22	-0.269
263.59	-0.804
263.96	0.261
264.33	-1.617
264.70	1.229
265.07	1.478
265.44	2.576
265.81	2.410
266.18	0.000
266.55	2.619
266.92	3.571
267.29	2.444
267.66	-0.682
268.03	1.505
268.40	0.458
268.77	-0.223
269.14	2.521
269.51	0.452
269.88	2.350
270.25	2.110
270.62	3.361
270.99	2.105
271.36	-1.545
271.73	0.833
272.10	1.867
272.47	1.400
272.84	0.637
273.21	1.461
273.58	0.204
273.95	2.988
274.32	4.255
274.69	3.718
275.06	3.377
275.43	0.800
275.80	4.780
276.17	0.791
276.54	4.753
276.91	1.919
277.28	1.934
277.65	0.189
278.02	2.083
278.39	1.996
278.76	2.793
279.13	3.578
279.50	2.708
279.87	2.830
280.23	4.007
280.60	0.883
280.97	2.460
281.34	2.881
281.71	1.599
282.08	3.220
282.45	1.587
282.82	3.535
283.19	-0.337
283.56	4.096
283.92	3.318
284.29	3.384
284.66	0.885
285.03	-0.172
285.40	3.167
285.77	0.985
286.14	2.694
286.51	0.965
286.87	3.079
287.24	3.205
287.61	0.772
287.98	3.443
288.35	3.256
288.72	2.599
289.08	2.201
289.45	2.964
289.82	1.863
290.19	2.424
290.56	2.605
290.93	2.216
291.29	2.128
291.66	3.230
292.03	4.161
292.40	3.309
292.77	0.729
293.13	1.615
293.50	2.066
293.87	1.387
294.24	2.809
294.60	3.005
294.97	1.108
295.34	0.274
295.71	1.664
296.08	3.825
296.44	2.240
296.81	-0.259
297.18	3.364
297.55	0.503
297.91	3.046
298.28	0.128
298.65	2.329
299.02	2.836
299.38	2.168
299.75	2.445
300.12	3.837
300.48	1.995
300.85	1.589
301.22	2.163
301.59	2.068
301.95	2.683
302.32	1.701
302.69	0.476
303.05	2.007
303.42	2.415
303.79	1.798
304.15	2.265
304.52	2.682
304.89	2.706
305.25	2.752
305.62	1.477
305.99	2.464
306.35	2.237
306.72	3.159
307.09	1.415
307.45	1.834
307.82	2.348
308.19	2.310
308.55	2.743
308.92	1.483
309.29	1.883
309.65	2.064
310.02	3.564
310.38	3.731
310.75	2.254
311.12	1.628
311.48	2.364
311.85	2.330
312.22	4.236
312.58	3.223
312.95	2.464
313.31	2.557
313.68	3.078
314.05	4.866
314.41	3.045
314.78	1.608
315.14	1.959
315.51	3.774
315.87	4.785
316.24	3.462
316.61	3.689
316.97	3.922
317.34	4.115
317.70	3.828
318.07	3.279
318.43	4.537
318.80	4.372
319.16	3.914
319.53	4.528
319.89	5.492
320.26	6.096
320.62	5.814
320.99	5.204
321.35	6.028
321.72	7.374
322.08	6.733
322.45	6.607
322.81	5.813
323.18	8.341
323.54	8.436
323.91	7.211
324.27	8.293
324.64	7.966
325.00	9.281
325.37	10.791
325.73	9.580
326.10	11.734
326.46	11.423
326.83	12.137
327.19	12.838
327.56	14.324
327.92	13.976
328.29	13.172
328.65	15.631
329.01	15.780
329.38	15.794
329.74	17.456
330.11	14.539
330.47	15.363
330.84	16.165
331.20	17.930
331.56	16.509
331.93	18.024
332.29	17.391
332.66	18.445
333.02	17.456
333.38	20.221
333.75	19.122
334.11	19.982
334.48	19.499
334.84	19.249
335.20	19.875
335.57	20.618
335.93	21.116
336.29	21.938
336.66	21.403
337.02	20.399
337.38	20.472
337.75	20.818
338.11	22.242
338.47	22.098
338.84	21.087
339.20	21.632
339.56	21.435
339.93	21.081
340.29	21.940
340.65	22.374
341.02	22.232
341.38	21.977
341.74	24.199
342.11	22.016
342.47	22.902
342.83	21.162
343.20	22.546
343.56	21.941
343.92	23.010
344.28	22.041
344.65	22.432
345.01	23.171
345.37	23.162
345.73	22.308
346.10	23.941
346.46	22.951
346.82	23.280
347.19	22.876
347.55	25.000
347.91	21.622
348.27	22.831
348.63	23.423
349.00	24.708
349.36	24.650
349.72	24.138
350.08	22.831
350.45	23.841
350.81	23.039
351.17	22.570
351.53	22.866
351.89	22.625
352.26	23.252
352.62	23.794
352.98	24.937
353.34	24.060
353.70	23.128
354.07	23.970
354.43	23.706
354.79	23.279
355.15	23.164
355.51	23.879
355.87	24.646
356.24	24.020
356.60	23.122
356.96	22.433
357.32	24.691
357.68	24.105
358.04	23.582
358.40	25.041
358.77	25.221
359.13	24.337
359.49	22.880
359.85	25.420
360.21	23.949
360.57	23.604
360.93	24.703
361.29	24.922
361.66	23.817
362.02	24.254
362.38	24.864
362.74	24.520
363.10	24.284
363.46	24.454
363.82	23.890
364.18	22.559
364.54	24.427
364.90	24.444
365.26	24.814
365.62	24.905
365.98	25.262
366.35	24.281
366.71	24.347
367.07	25.314
367.43	23.827
367.79	24.855
368.15	24.314
368.51	25.019
368.87	25.771
369.23	23.921
369.59	24.485
369.95	24.590
370.31	24.167
370.67	24.887
371.03	25.619
371.39	25.302
371.75	23.997
372.11	24.593
372.47	25.538
372.83	25.639
373.19	25.377
373.55	25.299
373.91	24.848
374.27	25.386
374.63	25.110
374.99	24.817
375.35	23.875
375.71	23.386
376.07	24.382
376.42	25.380
376.78	24.111
377.14	25.209
377.50	24.897
377.86	25.696
378.22	25.033
378.58	25.066
378.94	25.606
379.30	25.290
379.66	25.096
380.02	25.238
380.38	24.300
380.74	24.860
381.09	25.286
381.45	25.270
381.81	25.383
382.17	25.863
382.53	25.510
382.89	25.080
383.25	25.301
383.61	25.302
383.97	25.146
384.32	25.290
384.68	25.415
385.04	23.679
385.40	25.112
385.76	24.731
386.12	25.941
386.48	25.310
386.83	24.556
387.19	24.904
387.55	25.583
387.91	24.486
388.27	24.056
388.62	25.842
388.98	25.445
389.34	24.463
389.70	24.487
390.06	24.950
390.42	24.882
390.77	25.486
391.13	25.179
391.49	24.933
391.85	24.750
392.20	25.545
392.56	24.231
392.92	24.613
393.28	25.015
393.64	24.573
393.99	23.831
394.35	25.698
394.71	25.298
395.07	26.326
395.42	24.317
395.78	24.933
396.14	25.316
396.50	24.774
396.85	25.182
397.21	24.709
397.57	24.029
397.92	24.046
398.28	24.041
398.64	24.317
399.00	24.550
399.35	23.505
399.71	24.371
400.07	25.077
400.42	24.679
400.78	24.760
401.14	25.442
401.49	24.172
401.85	25.841
402.21	24.746
402.57	23.696
402.92	24.568
403.28	23.992
403.63	24.423
403.99	24.967
404.35	24.395
404.70	24.446
405.06	24.241
405.42	23.422
405.77	23.722
406.13	23.835
406.49	23.407
406.84	25.093
407.20	24.411
407.55	23.981
407.91	23.497
408.27	23.670
408.62	22.765
408.98	23.874
409.34	23.496
409.69	22.876
410.05	23.705
410.40	22.800
410.76	24.159
411.11	24.240
411.47	24.150
411.83	23.503
412.18	22.971
412.54	23.933
412.89	22.798
413.25	23.824
413.60	23.342
413.96	22.654
414.31	22.817
414.67	23.363
415.03	22.061
415.38	23.538
415.74	23.640
416.09	23.294
416.45	23.850
416.80	23.227
417.16	23.554
417.51	23.525
417.87	23.393
418.22	22.928
418.58	22.875
418.93	24.049
419.29	22.659
419.64	24.107
420.00	23.379
420.35	23.792
420.71	22.855
421.06	24.205
421.42	23.400
421.77	24.056
422.12	23.272
422.48	23.529
422.83	23.343
423.19	24.235
423.54	22.969
423.90	23.300
424.25	24.109
424.61	22.839
424.96	23.649
425.31	23.611
425.67	23.152
426.02	23.665
426.38	23.166
426.73	23.614
427.09	23.309
427.44	22.407
427.79	23.948
428.15	22.384
428.50	23.241
428.85	22.963
429.21	23.730
429.56	23.260
429.92	22.715
430.27	22.293
430.62	22.715
430.98	22.945
431.33	22.469
431.68	21.882
432.04	22.094
432.39	22.995
432.74	23.466
433.10	22.984
433.45	23.306
433.80	23.869
434.16	22.612
434.51	22.575
434.86	22.779
435.22	22.468
435.57	23.153
435.92	22.786
436.28	23.039
436.63	21.944
436.98	22.778
437.34	22.905
437.69	22.654
438.04	22.837
438.39	22.911
438.75	22.892
439.10	23.095
439.45	23.684
439.81	22.667
440.16	23.006
440.51	22.305
440.86	23.106
441.22	23.169
441.57	23.476
441.92	22.860
442.27	23.429
442.63	22.573
442.98	23.839
443.33	23.267
443.68	22.795
444.03	23.402
444.39	23.061
444.74	23.812
445.09	22.727
445.44	22.915
445.79	22.816
446.15	23.790
446.50	23.713
446.85	22.662
447.20	22.757
447.55	22.455
447.91	23.751
448.26	23.501
448.61	23.263
448.96	23.714
449.31	22.905
449.66	22.458
450.02	22.899
450.37	23.390
450.72	23.579
451.07	23.138
451.42	23.781
451.77	22.257
452.12	22.744
452.47	23.713
452.83	23.412
453.18	23.363
453.53	23.383
453.88	23.421
454.23	23.387
454.58	24.478
454.93	22.139
455.28	23.354
455.63	23.392
455.98	23.668
456.34	23.242
456.69	23.290
457.04	23.163
457.39	21.848
457.74	22.250
458.09	21.966
458.44	22.808
458.79	21.555
459.14	23.196
459.49	23.312
459.84	22.235
460.19	22.577
460.54	20.833
460.89	22.706
461.24	22.143
461.59	22.776
461.94	22.025
462.29	21.867
462.64	22.772
462.99	22.988
463.34	22.491
463.69	23.114
464.04	23.092
464.39	22.251
464.74	22.064
465.09	22.444
465.44	22.675
465.79	21.901
466.14	22.673
466.49	22.665
466.84	22.052
467.19	21.897
467.54	22.016
467.89	22.077
468.24	21.970
468.59	22.120
468.94	21.722
469.29	22.699
469.64	23.705
469.99	22.495
470.34	21.429
470.68	21.846
471.03	21.606
471.38	21.840
471.73	22.093
472.08	22.633
472.43	22.960
472.78	21.755
473.13	21.965
473.48	21.715
473.83	22.259
474.17	22.148
474.52	22.438
474.87	22.980
475.22	21.474
475.57	22.209
475.92	21.376
476.27	22.242
476.61	21.927
476.96	22.466
477.31	21.747
477.66	21.848
478.01	21.307
478.36	21.662
478.70	22.197
479.05	21.648
479.40	21.448
479.75	22.042
480.10	21.699
480.45	22.199
480.79	22.833
481.14	21.560
481.49	22.005
481.84	21.667
482.19	20.390
482.53	21.127
482.88	21.759
483.23	21.960
483.58	21.386
483.92	22.613
484.27	21.539
484.62	21.264
484.97	21.793
485.31	21.191
485.66	19.704
486.01	19.473
486.36	19.913
486.70	20.373
487.05	21.117
487.40	20.191
487.75	20.069
488.09	19.674
488.44	20.156
488.79	21.024
489.13	20.490
489.48	20.848
489.83	20.943
490.17	21.144
490.52	20.985
490.87	21.761
491.22	21.351
491.56	21.245
491.91	21.335
492.26	21.469
492.60	21.684
492.95	21.407
493.30	20.700
493.64	21.704
493.99	21.715
494.34	22.048
494.68	20.317
495.03	21.298
495.37	21.338
495.72	21.203
496.07	21.045
496.41	20.553
496.76	20.821
497.11	20.926
497.45	21.698
497.80	21.391
498.14	21.331
498.49	21.890
498.84	21.017
499.18	20.965
499.53	21.443
499.87	20.891
500.22	20.779
500.56	22.292
500.91	21.028
501.26	20.472
501.60	20.642
501.95	20.778
502.29	20.677
502.64	20.259
502.98	20.697
503.33	20.869
503.67	20.572
504.02	21.246
504.36	20.288
504.71	20.532
505.06	21.639
505.40	21.448
505.75	20.274
506.09	20.585
506.44	21.406
506.78	20.236
507.13	20.250
507.47	20.720
507.82	19.308
508.16	20.045
508.51	20.788
508.85	20.275
509.19	20.406
509.54	20.510
509.88	20.368
510.23	20.787
510.57	21.295
510.92	19.501
511.26	20.333
511.61	20.148
511.95	20.937
512.30	20.638
512.64	19.941
512.98	21.146
513.33	19.988
513.67	19.820
514.02	20.493
514.36	20.463
514.70	20.947
515.05	21.220
515.39	21.016
515.74	20.990
516.08	21.030
516.42	20.075
516.77	20.807
517.11	21.468
517.46	20.175
517.80	21.187
518.14	21.632
518.49	21.669
518.83	21.660
519.17	20.887
519.52	20.987
519.86	20.963
520.20	20.828
520.55	20.822
520.89	21.525
521.23	21.643
521.58	19.974
521.92	20.895
522.26	21.031
522.61	22.594
522.95	21.027
523.29	20.985
523.64	19.946
523.98	20.699
524.32	21.751
524.66	21.006
525.01	20.687
525.35	20.793
525.69	19.890
526.04	21.283
526.38	20.905
526.72	20.556
527.06	20.394
527.41	20.269
527.75	21.536
528.09	20.438
528.43	20.340
528.78	19.916
529.12	20.685
529.46	20.266
529.80	20.830
530.15	21.265
530.49	20.502
530.83	19.161
531.17	20.763
531.51	20.057
531.86	20.168
532.20	19.120
532.54	19.928
532.88	19.927
533.22	19.899
533.57	19.103
533.91	20.716
534.25	19.891
534.59	18.982
534.93	19.610
535.27	19.394
535.62	19.784
535.96	19.121
536.30	20.251
536.64	20.672
536.98	20.059
537.32	19.940
537.66	20.235
538.01	19.735
538.35	18.545
538.69	18.684
539.03	19.539
539.37	19.454
539.71	19.638
540.05	19.971
540.39	19.099
540.73	19.927
541.07	19.706
541.42	19.458
541.76	20.576
542.10	18.938
542.44	19.725
542.78	19.282
543.12	18.484
543.46	20.939
543.80	19.800
544.14	20.215
544.48	18.947
544.82	18.879
545.16	19.493
545.50	19.942
545.84	20.044
546.18	20.075
546.52	19.447
546.86	19.204
547.20	20.379
547.54	18.878
547.88	19.729
548.22	19.198
548.56	19.380
548.90	18.667
549.24	20.395
549.58	19.747
549.92	19.248
550.26	20.232
550.60	19.508
550.94	18.810
551.28	19.350
551.62	19.328
551.96	19.409
552.30	18.915
552.64	19.234
552.98	19.242
553.32	19.545
553.66	19.196
554.00	18.842
554.34	19.531
554.68	19.219
555.02	19.048
555.36	18.983
555.69	18.832
556.03	18.847
556.37	18.155
556.71	19.005
557.05	18.203
557.39	19.759
557.73	19.340
558.07	20.031
558.41	19.154
558.75	18.921
559.08	19.149
559.42	19.482
559.76	19.629
560.10	21.190
560.44	18.052
560.78	17.581
561.12	18.257
561.45	18.155
561.79	17.768
562.13	18.458
562.47	19.266
562.81	17.968
563.15	18.707
563.48	17.828
563.82	19.068
564.16	17.634
564.50	17.335
564.84	19.277
565.17	17.811
565.51	18.438
565.85	18.732
566.19	17.606
566.52	18.710
566.86	18.169
567.20	18.164
567.54	17.358
567.88	17.172
568.21	17.702
568.55	17.487
568.89	16.648
569.23	16.616
569.56	17.057
569.90	16.874
570.24	16.942
570.57	16.366
570.91	16.448
571.25	16.839
571.59	16.066
571.92	15.442
572.26	15.767
572.60	15.972
572.93	16.208
573.27	15.412
573.61	15.908
573.95	15.163
574.28	15.338
574.62	15.154
574.96	15.359
575.29	15.514
575.63	15.532
575.97	15.280
576.30	15.616
576.64	15.105
576.98	14.964
577.31	15.367
577.65	15.265
577.98	14.794
578.32	14.932
578.66	15.061
578.99	15.307
579.33	14.958
579.67	14.971
580.00	14.953
580.34	15.404
580.67	15.132
581.01	15.019
581.35	15.148
581.68	14.691
582.02	14.792
582.35	14.531
582.69	14.980
583.02	15.170
583.36	14.797
583.70	14.932
584.03	14.997
584.37	15.444
584.70	15.149
585.04	14.643
585.37	15.129
585.71	14.703
586.04	15.096
586.38	15.146
586.72	14.837
587.05	15.203
587.39	15.274
587.72	15.004
588.06	14.886
588.39	15.016
588.73	14.803
589.06	14.893
589.40	15.452
589.73	15.782
590.07	15.525
590.40	16.054
590.73	16.368
591.07	15.628
591.40	15.258
591.74	15.438
592.07	15.903
592.41	15.933
592.74	15.552
593.08	15.477
593.41	15.084
593.75	15.403
594.08	15.803
594.41	15.674
594.75	15.623
595.08	15.777
595.42	15.471
595.75	15.265
596.09	15.172
596.42	15.433
596.75	15.545
597.09	15.438
597.42	15.580
597.75	15.713
598.09	15.309
598.42	15.618
598.76	15.619
599.09	15.378
599.42	15.185
599.76	15.496
600.09	15.065
600.42	14.570
600.76	14.588
601.09	14.941
601.42	15.378
601.76	14.854
602.09	15.543
602.42	14.980
602.76	14.572
603.09	15.187
603.42	15.417
603.76	14.603
604.09	15.079
604.42	15.629
604.76	15.335
605.09	15.068
605.42	15.782
605.75	14.984
606.09	15.467
606.42	15.179
606.75	15.231
607.09	15.858
607.42	15.558
607.75	15.014
608.08	15.248
608.42	15.325
608.75	15.258
609.08	14.387
609.41	16.226
609.75	16.324
610.08	15.401
610.41	15.013
610.74	15.167
611.07	15.970
611.41	15.364
611.74	15.180
612.07	15.402
612.40	16.156
612.73	15.451
613.07	14.974
613.40	15.526
613.73	15.063
614.06	14.930
614.39	16.169
614.72	14.935
615.06	16.361
615.39	15.820
615.72	15.454
616.05	16.116
616.38	14.709
616.71	15.174
617.05	16.394
617.38	15.871
617.71	15.741
618.04	15.375
618.37	15.239
618.70	15.829
619.03	15.954
619.36	16.200
619.69	15.630
620.03	17.010
620.36	17.158
620.69	15.891
621.02	16.469
621.35	16.766
621.68	16.472
622.01	15.954
622.34	16.332
622.67	16.358
623.00	16.134
623.33	16.457
623.66	16.892
623.99	15.869
624.32	16.362
624.65	15.859
624.99	16.016
625.32	15.640
625.65	16.493
625.98	17.167
626.31	17.229
626.64	16.757
626.97	17.463
627.30	16.296
627.63	16.372
627.96	17.039
628.29	16.922
628.62	17.320
628.95	17.318
629.28	18.079
629.61	17.555
629.94	17.427
630.26	17.992
630.59	19.476
630.92	16.860
631.25	19.330
631.58	17.209
631.91	16.970
632.24	18.935
632.57	18.312
632.90	18.081
633.23	18.968
633.56	18.365
633.89	18.865
634.22	17.949
634.55	19.185
634.88	19.009
635.20	18.904
635.53	19.274
635.86	19.973
636.19	17.872
636.52	20.620
636.85	16.428
637.18	17.358
637.51	17.886
637.83	18.855
638.16	18.208
638.49	18.588
638.82	17.581
639.15	18.571
639.48	17.322
639.81	17.288
640.13	17.458
640.46	18.110
640.79	18.605
641.12	16.589
641.45	18.818
641.77	17.516
642.10	18.404
642.43	18.350
642.76	19.892
643.09	17.128
643.41	17.921
643.74	18.056
644.07	18.695
644.40	18.412
644.73	21.731
645.05	17.366
645.38	18.077
645.71	18.321
646.04	19.703
646.36	17.045
646.69	20.116
647.02	18.555
647.35	20.400
647.67	20.040
648.00	20.000
648.33	21.773
648.66	18.738
648.98	17.288
649.31	18.589
649.64	16.523
649.96	17.230
650.29	16.283
650.62	17.811
650.94	18.669
651.27	18.304
651.60	18.547
651.92	19.466
652.25	16.252
652.58	19.390
652.90	16.904
653.23	18.282
653.56	16.319
653.88	17.701
654.21	18.336
654.54	18.199
654.86	17.806
655.19	18.226
655.52	18.708
655.84	14.475
656.17	13.153
656.49	17.501
656.82	20.104
657.15	15.977
657.47	12.251
657.80	8.959
658.13	7.382
658.45	12.616
658.78	12.029
659.10	11.892
659.43	12.075
659.75	11.792
660.08	12.254
660.41	13.327
660.73	15.928
661.06	15.091
661.38	18.750
661.71	19.475
662.03	18.287
662.36	16.468
662.68	17.506
663.01	19.952
663.33	21.934
663.66	19.378
663.98	18.826
664.31	18.537
664.63	18.119
664.96	17.577
665.28	18.440
665.61	19.393
665.93	18.203
666.26	19.868
666.58	17.202
666.91	19.438
667.23	17.241
667.56	17.037
667.88	17.794
668.21	16.244
668.53	18.274
668.86	18.622
669.18	18.020
669.50	22.108
669.83	20.000
670.15	18.000
670.48	18.546
670.80	16.497
671.13	15.904
671.45	18.112
671.77	20.290
672.10	17.582
672.42	14.542
672.75	16.893
673.07	17.757
673.39	18.288
673.72	18.388
674.04	16.596
674.37	20.554
674.69	15.421
675.01	18.837
675.34	15.196
675.66	16.905
675.98	18.434
676.31	17.128
676.63	13.402
676.95	17.026
677.28	16.089
677.60	20.050
677.92	16.040
678.25	16.705
678.57	15.777
678.89	13.991
679.22	18.578
679.54	15.367
679.86	19.058
680.18	15.690
680.51	17.454
680.83	13.750
681.15	18.083
681.48	17.234
681.80	13.261
682.12	16.702
682.44	16.164
682.77	19.091
683.09	15.441
683.41	19.298
683.73	14.824
684.06	12.690
684.38	15.588
684.70	19.400
685.02	14.069
685.34	15.063
685.67	14.427
685.99	17.565
686.31	17.164
686.63	15.728
686.96	15.041
687.28	15.195
687.60	15.811
687.92	13.713
688.24	13.895
688.56	15.165
688.89	17.808
689.21	13.256
689.53	15.857
689.85	18.987
690.17	15.931
690.49	15.765
690.82	11.302
691.14	18.538
691.46	16.250
691.78	14.354
692.10	14.679
692.42	16.055
692.74	17.062
693.06	14.940
693.39	13.793
693.71	15.116
694.03	13.768
694.35	17.822
694.67	18.321
694.99	17.520
695.31	13.881
695.63	14.324
695.95	13.202
696.27	16.147
696.59	16.024
696.91	16.239
697.23	16.619
697.56	16.839
697.88	15.457
698.20	12.107
698.52	14.423
698.84	17.293
699.16	12.665
699.48	16.230
699.80	11.813
700.12	12.948
700.44	9.440
700.76	16.088
701.08	11.429
701.40	16.776
701.72	15.667
702.04	13.605
702.36	13.443
702.68	17.450
703.00	15.457
703.32	13.772
703.64	15.142
703.96	11.392
704.28	12.324
704.60	13.699
704.91	12.829
705.23	11.930
705.55	12.639
705.87	14.388
706.19	12.749
706.51	10.156
706.83	16.850
707.15	11.864
707.47	15.868
707.79	14.327
708.11	13.228
708.43	15.467
708.74	13.115
709.06	13.497
709.38	13.353
709.70	13.636
710.02	13.986
710.34	5.674
710.66	14.607
710.98	17.483
711.29	13.402
711.61	11.702
711.93	13.483
712.25	13.962
712.57	15.234
712.89	14.286
713.20	11.694
713.52	7.317
713.84	10.219
714.16	21.284
714.48	15.358
714.80	11.111
715.11	16.151
715.43	12.287
715.75	10.175
716.07	15.273
716.39	13.993
716.70	7.600
717.02	9.274
717.34	19.048
717.66	10.455
717.97	14.815
718.29	12.444
718.61	14.414
718.93	10.084
719.24	14.226
719.56	11.607
719.88	6.667
720.20	6.838
720.51	8.772
720.83	12.134
721.15	13.878
721.46	14.768
721.78	12.554
722.10	15.504
722.42	12.174
722.73	8.597
723.05	11.982
723.37	13.122
723.68	10.427
724.00	13.426
724.32	11.682
724.63	13.575
724.95	13.699
725.27	14.554
725.58	10.046
725.90	6.306
726.22	10.044
726.53	11.475
726.85	11.852
727.16	13.360
727.48	10.484
727.80	8.219
728.11	13.778
728.43	12.346
728.74	10.965
729.06	9.170
729.38	17.442
729.69	14.400
730.01	11.297
730.32	8.367
730.64	16.538
730.96	7.336
731.27	11.583
731.59	10.101
731.90	7.895
732.22	11.628
732.53	8.772
732.85	9.507
733.16	15.018
733.48	7.463
733.80	13.091
734.11	11.702
734.43	16.245
734.74	8.100
735.06	11.254
735.37	8.626
735.69	7.746
736.00	11.852
736.32	12.238
736.63	14.815
736.95	4.669
737.26	9.420
737.58	13.504
737.89	12.453
738.21	13.740
738.52	9.836
738.83	7.692
739.15	10.455
739.46	1.802
739.78	5.792
740.09	9.921
740.41	18.561
740.72	13.944
741.04	9.881
741.35	13.004
741.66	12.903
741.98	8.673
742.29	10.363
742.61	6.358
742.92	5.882
743.23	12.438
743.55	12.953
743.86	13.527
744.18	11.000
744.49	11.111
744.80	15.054
745.12	7.179
745.43	12.299
745.74	8.556
746.06	18.966
746.37	6.667
746.68	11.892
747.00	2.210
747.31	12.042
747.62	14.211
747.94	11.321
748.25	13.793
748.56	11.616
748.88	3.825
749.19	10.363
749.50	12.941
749.82	10.000
750.13	9.223
750.44	9.442
750.75	7.600
751.07	8.787
751.38	6.641
751.69	12.302
752.01	10.504
752.32	8.678
752.63	9.170
752.94	10.400
753.26	7.763
753.57	8.057
753.88	5.116
754.19	6.608
754.51	5.858
754.82	12.083
755.13	7.080
755.44	3.896
755.75	10.442
756.07	6.438
756.38	7.950
756.69	12.075
757.00	7.092
757.31	7.612
757.63	14.706
757.94	9.697
758.25	8.333
758.56	8.919
758.87	9.524
759.18	14.642
759.50	11.032
759.81	10.039
760.12	8.541
760.43	10.963
760.74	11.677
761.05	8.974
761.36	12.166
761.67	9.422
761.99	7.692
762.30	12.364
762.61	14.634
762.92	8.000
763.23	8.837
763.54	13.706
763.85	13.122
764.16	5.217
764.47	7.391
764.78	10.887
765.10	6.693
765.41	9.699
765.72	9.030
766.03	10.033
766.34	8.333
766.65	12.891
766.96	9.778
767.27	15.084
767.58	13.836
767.89	4.545
768.20	8.784
768.51	12.644
768.82	-1.875
769.13	8.333
769.44	5.189
769.75	6.373
770.06	2.913
770.37	4.787
770.68	6.154
770.99	8.122
771.30	3.093
771.61	2.242
771.92	7.547
772.23	7.212
772.54	7.059
772.85	-3.425
773.16	1.935
773.47	13.376
773.78	10.180
774.09	3.947
774.39	-0.735
774.70	5.263
775.01	5.385
775.32	-1.587
775.63	-1.575
775.94	-1.887
776.25	5.926
776.56	5.455
776.87	1.709
777.18	-2.000
777.48	4.808
777.79	8.333
778.10	10.377
778.41	3.922
778.72	4.717
779.03	-6.140
779.34	-3.361
779.65	1.408
779.95	12.230
780.26	-5.645
780.57	10.145
780.88	-4.587
781.19	4.630
781.50	-4.918
781.80	-1.460
782.11	-3.846
782.42	-3.448
782.73	8.392
783.04	-4.000
783.34	0.800
783.65	3.252
783.96	1.639
784.27	0.000
784.57	-5.607
784.88	2.679
785.19	-4.124
785.50	-1.053
785.81	3.000
786.11	-7.921
786.42	-24.706
786.73	-3.125
787.04	-9.184
787.34	6.481
787.65	8.491
787.96	-13.402
788.26	0.000
788.57	-2.609
788.88	-4.587
789.19	-9.091
789.49	-1.739
789.80	6.034
790.11	-9.756
790.41	6.742
790.72	-10.465
791.03	0.000
791.33	-22.078
791.64	7.317
791.95	-6.098
792.25	-13.253
792.56	-16.049
792.87	-23.944
793.17	0.000
793.48	-8.235
793.79	-7.500
794.09	-21.667
794.40	-13.043
794.70	-4.348
795.01	-0.917
795.32	2.362
795.62	-4.902
795.93	-2.941
796.23	-2.020
796.54	-2.326
796.85	-18.841
797.15	-10.937
797.46	-23.729
797.76	1.639
798.07	-15.789
798.37	-11.290
798.68	-14.062
798.99	-3.077
799.29	-22.727
799.60	-7.246
799.90	-1.429
800.21	-22.807
800.51	-31.034
800.82	-24.528
801.12	-5.882
801.43	-8.065
801.73	-1.613
802.04	-22.000
802.34	-26.415
802.65	-31.579
802.95	-1.818
803.26	-5.660
803.56	-21.311
803.87	-24.000
804.17	-20.370
804.48	-28.846
804.78	-34.694
805.09	4.255
805.39	1.695
805.70	-45.833
806.00	-19.643
806.30	-22.034
806.61	-13.846
806.91	-24.615
807.22	-21.053
807.52	2.857
807.83	-20.690
808.13	-12.658
808.43	-16.393
808.74	-27.869
809.04	-4.054
809.35	-20.370
809.65	-14.286
809.95	1.695
810.26	-34.694
810.56	-32.075
810.86	-21.569
811.17	-21.622
811.47	-81.481
811.77	-19.608
812.08	-40.909
812.38	-45.833
812.69	-46.154
812.99	4.762
813.29	-4.348
813.59	-45.714
813.90	-33.333
814.20	-5.455
814.50	-48.980
814.81	-37.255
815.11	-22.917
815.41	-53.659
815.72	-30.769
816.02	-8.511
816.32	-37.500
816.62	-9.091
816.93	-87.879
817.23	-45.946
817.53	-29.412
817.84	-5.000
818.14	-52.941
818.44	-34.375
818.74	-114.286
819.04	-11.429
819.35	-25.714
819.65	-9.091
819.95	2.564
820.25	-122.222
820.56	-68.966
820.86	-53.571
821.16	-52.174
821.46	-11.905
821.76	-18.519
822.07	-60.870
822.37	-22.449
822.67	-48.837
822.97	-52.174
823.27	-76.923
823.57	-81.481
823.88	-57.143
824.18	-23.077
824.48	-57.143
824.78	-12.121
825.08	-120.000
825.38	-2.500
825.69	-161.111
825.99	-70.370
826.29	0.000
826.59	-85.185
826.89	-48.148
827.19	-57.143
827.49	-72.727
827.79	-159.091
828.09	-59.091
828.39	-117.391
828.70	-33.333
829.00	-96.429
829.30	-9.524
829.60	-64.516
829.90	-69.231
830.20	-48.718
830.50	-118.182
830.80	-42.857
831.10	-144.444
831.40	-171.429
831.70	-51.852
832.00	-52.941
832.30	-21.739
832.60	-79.167
832.90	-209.091
833.20	-111.111
833.50	-3.125
833.80	-23.077
834.10	-28.000
834.40	-37.500
834.70	-59.091
835.00	-73.077
835.30	-100.000
835.60	-240.000
835.90	-85.000
836.20	-107.143
836.50	-43.478
836.80	-111.111
837.10	-73.333
837.40	-230.000
837.70	-65.217
838.00	-121.429
838.30	2200.000
838.60	-28.000
838.90	-480.000
839.19	-155.556
839.49	-1100.000
839.79	-94.118
840.09	-155.556
840.39	0.000
840.69	-77.778
840.99	-166.667
841.29	-48.276
841.59	-100.000
841.88	-127.273
842.18	-500.000
842.48	-75.000
842.78	-15.385
843.08	-76.471
843.38	-65.000
843.68	-153.846
843.97	-100.000
844.27	-210.000
844.57	-50.000
844.87	-181.818
845.17	-131.579
845.47	-144.444
845.76	-16.667
846.06	-90.476
846.36	-114.286
846.66	-366.667
846.96	-130.000
847.25	-260.000
847.55	-350.000
847.85	-86.667
848.15	-475.000
848.44	-94.737
848.74	-40.000
849.04	-84.211
849.34	-700.000
849.63	-283.333
849.93	-35.294
850.23	-190.909
850.53	-400.000
850.82	-460.000
851.12	-166.667
851.42	-228.571
851.71	-420.000
852.01	-64.286
852.31	-700.000
852.61	-130.769
852.90	-400.000
853.20	-233.333
853.50	-233.333
853.79	-210.000
854.09	-115.000
854.39	-105.263
854.68	-115.000
854.98	-475.000
855.28	-88.889
855.57	-178.571
855.87	-110.526
856.17	-156.250
856.46	-30.769
856.76	-80.000
857.05	-68.750
857.35	-41.667
857.65	-133.333
857.94	-150.000
858.24	-73.913
858.53	-290.000
858.83	-900.000
859.13	-281.818
859.42	-190.000
859.72	166.667
860.01	-100.000
860.31	-210.000
860.60	-287.500
860.90	-600.000
861.20	-250.000
861.49	-450.000
861.79	1550.000
862.08	-9.677
862.38	-73.684
862.67	-53.846
862.97	-260.000
863.26	-116.667
863.56	-47.826
863.85	-466.667
864.15	-114.286
864.44	-43.750
864.74	-175.000
865.03	-211.111
865.33	-700.000
865.62	-2400.000
865.92	-850.000
866.21	-416.667
866.51	-190.909
866.80	-800.000
867.10	-314.286
867.39	-111.111
867.69	-208.333
867.98	360.000
868.27	-475.000
868.57	600.000
868.86	-120.000
869.16	-76.923
869.45	1450.000
869.75	-350.000
870.04	-275.000
870.33	-52.941
870.63	-285.714
870.92	8.696
871.22	-225.000
871.51	740.000
871.80	-81.250
872.10	-533.333
>>>>>End Processed Spectral Data<<<<<
