SpectraSuite Data File
++++++++++++++++++++++++++++++++++++
Date: Tue May 12 19:55:58 PDT 2015
User: schluterlab
Dark Spectrum Present: Yes
Reference Spectrum Present: Yes
Number of Sampled Component Spectra: 1
Spectrometers: USB2E3373
Integration Time (usec): 3000 (USB2E3373)
Spectra Averaged: 3 (USB2E3373)
Boxcar Smoothing: 0 (USB2E3373)
Correct for Electrical Dark: No (USB2E3373)
Strobe/Lamp Enabled: No (USB2E3373)
Correct for Detector Non-linearity: No (USB2E3373)
Correct for Stray Light: No (USB2E3373)
Number of Pixels in Processed Spectrum: 2048
>>>>>Begin Processed Spectral Data<<<<<
178.53	0.000
178.91	-130.000
179.29	-366.667
179.67	466.667
180.04	0.000
180.42	-200.000
180.80	-733.333
181.18	1450.000
181.56	-600.000
181.94	233.333
182.31	2500.000
182.69	-185.714
183.07	0.000
183.45	266.667
183.83	440.000
184.20	466.667
184.58	950.000
184.96	450.000
185.34	-500.000
185.72	-64.286
186.09	-266.667
186.47	-2500.000
186.85	-160.000
187.23	250.000
187.61	-185.714
187.98	-300.000
188.36	950.000
188.74	-200.000
189.12	-144.444
189.49	-190.000
189.87	450.000
190.25	211.111
190.63	566.667
191.00	500.000
191.38	-533.333
191.76	520.000
192.14	-171.429
192.51	-220.000
192.89	-240.000
193.27	-300.000
193.65	-666.667
194.02	-333.333
194.40	1200.000
194.78	-187.500
195.15	-214.286
195.53	800.000
195.91	460.000
196.29	-650.000
196.66	-566.667
197.04	-342.857
197.42	220.000
197.79	-250.000
198.17	-83.333
198.55	-700.000
198.92	-244.444
199.30	1000.000
199.68	-275.000
200.05	-1150.000
200.43	-94.444
200.81	-116.667
201.18	333.333
201.56	-700.000
201.94	-2900.000
202.31	-91.667
202.69	-77.778
203.07	-100.000
203.44	-550.000
203.82	0.000
204.19	200.000
204.57	-566.667
204.95	200.000
205.32	320.000
205.70	400.000
206.08	-1000.000
206.45	-140.000
206.83	2900.000
207.20	-188.889
207.58	-76.923
207.96	433.333
208.33	633.333
208.71	866.667
209.08	850.000
209.46	-222.222
209.84	1033.333
210.21	-566.667
210.59	300.000
210.96	277.778
211.34	-500.000
211.71	1250.000
212.09	-360.000
212.46	-150.000
212.84	-225.000
213.22	214.286
213.59	-187.500
213.97	0.000
214.34	-800.000
214.72	-1500.000
215.09	1100.000
215.47	-60.000
215.84	-187.500
216.22	-1800.000
216.59	1600.000
216.97	-25.000
217.34	-383.333
217.72	-55.556
218.09	300.000
218.47	-84.211
218.84	-275.000
219.22	-107.143
219.59	-150.000
219.97	-220.000
220.34	350.000
220.72	100.000
221.09	-800.000
221.47	0.000
221.84	1000.000
222.22	-600.000
222.59	-650.000
222.97	-91.304
223.34	173.333
223.72	457.143
224.09	-266.667
224.46	200.000
224.84	-126.667
225.21	-600.000
225.59	-200.000
225.96	-10.000
226.34	383.333
226.71	260.000
227.08	-100.000
227.46	-185.714
227.83	-141.667
228.21	-1050.000
228.58	366.667
228.95	-47.368
229.33	-25.000
229.70	-416.667
230.08	-255.556
230.45	-1033.333
230.82	-1600.000
231.20	-66.667
231.57	-400.000
231.95	-666.667
232.32	166.667
232.69	-1050.000
233.07	-37.500
233.44	-50.000
233.81	25.806
234.19	-420.000
234.56	-100.000
234.93	-400.000
235.31	-44.444
235.68	-48.148
236.05	-30.769
236.43	-94.737
236.80	-13.636
237.17	-150.000
237.55	-115.000
237.92	-2.326
238.29	-48.387
238.67	-21.429
239.04	14.286
239.41	-9.804
239.79	-2.000
240.16	-10.000
240.53	-15.517
240.91	-8.219
241.28	-2.817
241.65	9.375
242.02	-21.053
242.40	-4.000
242.77	7.368
243.14	9.412
243.51	13.978
243.89	1.905
244.26	4.630
244.63	9.184
245.00	6.250
245.38	2.521
245.75	9.322
246.12	10.156
246.49	1.600
246.87	4.098
247.24	1.408
247.61	9.934
247.98	13.483
248.36	17.610
248.73	15.909
249.10	13.333
249.47	5.729
249.84	9.645
250.22	7.812
250.59	10.674
250.96	14.545
251.33	15.094
251.70	17.431
252.08	16.017
252.45	13.469
252.82	11.392
253.19	17.899
253.56	18.039
253.94	17.480
254.31	20.863
254.68	12.500
255.05	19.868
255.42	16.727
255.79	19.205
256.16	19.444
256.54	20.303
256.91	21.154
257.28	16.558
257.65	17.049
258.02	19.520
258.39	20.846
258.76	17.737
259.14	17.647
259.51	20.282
259.88	22.767
260.25	12.784
260.62	14.326
260.99	13.092
261.36	16.954
261.73	18.133
262.10	19.346
262.47	22.039
262.85	19.023
263.22	18.817
263.59	17.426
263.96	18.277
264.33	15.633
264.70	17.936
265.07	17.488
265.44	18.267
265.81	21.205
266.18	18.501
266.55	21.190
266.92	20.536
267.29	19.333
267.66	17.727
268.03	21.290
268.40	17.620
268.77	19.599
269.14	15.966
269.51	18.326
269.88	18.376
270.25	16.667
270.62	20.168
270.99	20.421
271.36	17.660
271.73	20.208
272.10	19.295
272.47	16.800
272.84	15.287
273.21	18.163
273.58	19.184
273.95	16.932
274.32	18.375
274.69	18.591
275.06	19.887
275.43	16.200
275.80	20.076
276.17	17.391
276.54	19.582
276.91	19.002
277.28	19.923
277.65	18.147
278.02	20.076
278.39	23.412
278.76	20.112
279.13	17.889
279.50	21.119
279.87	19.057
280.23	18.944
280.60	16.784
280.97	19.156
281.34	20.339
281.71	15.631
282.08	21.467
282.45	19.048
282.82	18.013
283.19	19.529
283.56	20.307
283.92	19.115
284.29	18.782
284.66	18.053
285.03	15.609
285.40	17.833
285.77	19.212
286.14	18.225
286.51	18.489
286.87	18.476
287.24	18.109
287.61	17.901
287.98	18.936
288.35	17.984
288.72	20.336
289.08	15.094
289.45	19.189
289.82	15.373
290.19	19.848
290.56	17.945
290.93	16.544
291.29	17.589
291.66	18.118
292.03	17.647
292.40	18.993
292.77	15.015
293.13	16.740
293.50	16.667
293.87	16.505
294.24	17.697
294.60	17.486
294.97	14.681
295.34	14.521
295.71	15.534
296.08	15.027
296.44	18.182
296.81	14.489
297.18	16.300
297.55	15.452
297.91	15.228
298.28	13.811
298.65	15.653
299.02	14.797
299.38	13.648
299.75	14.801
300.12	14.149
300.48	16.197
300.85	13.081
301.22	15.024
301.59	14.599
301.95	14.146
302.32	15.674
302.69	13.436
303.05	14.050
303.42	16.667
303.79	14.494
304.15	15.176
304.52	14.078
304.89	12.627
305.25	14.220
305.62	14.659
305.99	13.102
306.35	14.653
306.72	15.142
307.09	14.363
307.45	13.700
307.82	15.688
308.19	13.641
308.55	12.764
308.92	14.089
309.29	13.808
309.65	13.622
310.02	13.312
310.38	14.606
310.75	14.857
311.12	12.818
311.48	15.108
311.85	12.867
312.22	13.120
312.58	13.293
312.95	14.066
313.31	13.668
313.68	13.903
314.05	14.697
314.41	14.440
314.78	13.467
315.14	13.712
315.51	13.704
315.87	14.453
316.24	14.342
316.61	14.078
316.97	14.216
317.34	14.163
317.70	12.512
318.07	12.922
318.43	13.327
318.80	13.115
319.16	12.582
319.53	15.472
319.89	12.973
320.26	14.258
320.62	15.601
320.99	14.694
321.35	13.735
321.72	15.455
322.08	14.752
322.45	14.398
322.81	14.680
323.18	14.573
323.54	15.545
323.91	14.326
324.27	14.465
324.64	14.808
325.00	14.286
325.37	15.468
325.73	15.420
326.10	16.375
326.46	16.047
326.83	16.183
327.19	15.983
327.56	18.302
327.92	18.056
328.29	17.384
328.65	19.021
329.01	17.523
329.38	18.182
329.74	19.963
330.11	17.801
330.47	19.739
330.84	20.301
331.20	19.409
331.56	20.377
331.93	21.317
332.29	20.167
332.66	21.338
333.02	22.748
333.38	22.335
333.75	21.500
334.11	21.790
334.48	21.646
334.84	22.723
335.20	22.650
335.57	22.888
335.93	22.791
336.29	23.583
336.66	23.497
337.02	23.481
337.38	22.264
337.75	24.545
338.11	24.157
338.47	25.162
338.84	23.757
339.20	23.190
339.56	23.392
339.93	24.775
340.29	25.113
340.65	23.744
341.02	23.826
341.38	24.801
341.74	24.822
342.11	24.138
342.47	24.476
342.83	24.284
343.20	23.784
343.56	24.388
343.92	25.459
344.28	23.070
344.65	23.801
345.01	24.739
345.37	24.957
345.73	23.428
346.10	25.756
346.46	24.418
346.82	25.913
347.19	25.568
347.55	26.020
347.91	25.061
348.27	25.695
348.63	24.633
349.00	26.043
349.36	25.721
349.72	25.862
350.08	25.941
350.45	25.468
350.81	25.599
351.17	25.783
351.53	25.040
351.89	25.820
352.26	24.878
352.62	24.775
352.98	25.774
353.34	25.564
353.70	24.691
354.07	26.030
354.43	24.708
354.79	26.967
355.15	26.312
355.51	26.650
355.87	27.394
356.24	26.389
356.60	26.878
356.96	25.434
357.32	27.243
357.68	26.651
358.04	27.147
358.40	27.087
358.77	26.988
359.13	27.229
359.49	26.880
359.85	27.178
360.21	27.280
360.57	26.715
360.93	27.553
361.29	27.726
361.66	27.603
362.02	27.080
362.38	28.594
362.74	28.363
363.10	27.903
363.46	27.690
363.82	28.025
364.18	27.706
364.54	27.710
364.90	27.926
365.26	28.987
365.62	28.917
365.98	29.835
366.35	28.744
366.71	28.902
367.07	28.782
367.43	29.097
367.79	28.852
368.15	28.391
368.51	30.262
368.87	29.809
369.23	30.356
369.59	28.824
369.95	29.955
370.31	29.924
370.67	30.376
371.03	30.960
371.39	31.118
371.75	30.535
372.11	30.815
372.47	30.438
372.83	30.168
373.19	31.401
373.55	30.838
373.91	31.591
374.27	32.230
374.63	32.548
374.99	30.088
375.35	31.277
375.71	32.496
376.07	32.155
376.42	31.328
376.78	31.847
377.14	32.053
377.50	31.327
377.86	33.217
378.22	33.223
378.58	32.829
378.94	33.857
379.30	32.690
379.66	32.458
380.02	33.566
380.38	34.224
380.74	33.499
381.09	33.736
381.45	34.349
381.81	33.291
382.17	34.528
382.53	35.043
382.89	35.279
383.25	33.798
383.61	34.584
383.97	35.413
384.32	34.516
384.68	35.441
385.04	34.819
385.40	35.847
385.76	35.800
386.12	35.248
386.48	35.421
386.83	35.484
387.19	36.335
387.55	35.363
387.91	35.826
388.27	35.829
388.62	35.881
388.98	35.941
389.34	35.979
389.70	35.897
390.06	37.294
390.42	37.052
390.77	38.364
391.13	37.476
391.49	37.803
391.85	37.525
392.20	38.284
392.56	37.197
392.92	37.724
393.28	36.924
393.64	38.759
393.99	37.792
394.35	39.066
394.71	37.550
395.07	38.594
395.42	37.651
395.78	38.978
396.14	38.441
396.50	39.198
396.85	39.260
397.21	38.810
397.57	39.302
397.92	39.249
398.28	38.909
398.64	37.778
399.00	38.828
399.35	39.215
399.71	38.922
400.07	37.678
400.42	39.551
400.78	39.475
401.14	39.457
401.49	39.538
401.85	39.873
402.21	40.419
402.57	39.665
402.92	40.837
403.28	39.792
403.63	39.167
403.99	39.630
404.35	39.299
404.70	38.569
405.06	39.554
405.42	40.403
405.77	39.417
406.13	40.263
406.49	39.874
406.84	39.601
407.20	39.591
407.55	39.412
407.91	39.091
408.27	41.290
408.62	39.228
408.98	41.441
409.34	39.437
409.69	39.331
410.05	39.508
410.40	39.114
410.76	41.469
411.11	39.690
411.47	40.000
411.83	39.343
412.18	40.510
412.54	40.039
412.89	39.702
413.25	40.564
413.60	40.179
413.96	39.612
414.31	40.344
414.67	41.256
415.03	39.765
415.38	40.181
415.74	41.034
416.09	40.799
416.45	41.118
416.80	41.446
417.16	39.774
417.51	41.915
417.87	40.766
418.22	41.310
418.58	41.672
418.93	41.586
419.29	41.452
419.64	42.995
420.00	41.847
420.35	41.557
420.71	42.125
421.06	43.348
421.42	42.033
421.77	42.631
422.12	41.465
422.48	41.919
422.83	42.675
423.19	43.176
423.54	41.662
423.90	43.387
424.25	44.532
424.61	43.032
424.96	43.857
425.31	42.693
425.67	43.030
426.02	43.043
426.38	42.149
426.73	42.741
427.09	43.861
427.44	44.074
427.79	44.245
428.15	43.247
428.50	44.410
428.85	43.105
429.21	44.889
429.56	44.309
429.92	43.699
430.27	43.573
430.62	44.294
430.98	43.632
431.33	45.551
431.68	44.858
432.04	45.339
432.39	44.385
432.74	44.149
433.10	45.240
433.45	45.092
433.80	45.000
434.16	45.512
434.51	44.816
434.86	45.196
435.22	44.936
435.57	46.636
435.92	46.130
436.28	45.143
436.63	45.617
436.98	46.975
437.34	46.961
437.69	46.605
438.04	47.236
438.39	47.324
438.75	47.385
439.10	48.036
439.45	46.983
439.81	46.159
440.16	47.743
440.51	46.902
440.86	47.854
441.22	47.409
441.57	46.724
441.92	47.543
442.27	48.571
442.63	47.968
442.98	50.000
443.33	47.944
443.68	47.809
444.03	47.938
444.39	48.152
444.74	49.113
445.09	48.878
445.44	47.580
445.79	49.622
446.15	49.563
446.50	48.062
446.85	49.670
447.20	48.851
447.55	48.168
447.91	50.206
448.26	48.249
448.61	50.211
448.96	49.083
449.31	48.403
449.66	48.123
450.02	48.994
450.37	50.304
450.72	48.534
451.07	49.637
451.42	49.868
451.77	49.180
452.12	49.687
452.47	48.848
452.83	51.121
453.18	51.114
453.53	50.425
453.88	50.606
454.23	49.329
454.58	50.783
454.93	50.272
455.28	48.948
455.63	51.527
455.98	50.381
456.34	50.837
456.69	50.034
457.04	50.591
457.39	51.124
457.74	50.695
458.09	49.409
458.44	51.012
458.79	49.706
459.14	50.686
459.49	49.682
459.84	51.011
460.19	49.218
460.54	49.053
460.89	49.765
461.24	50.260
461.59	50.726
461.94	50.822
462.29	48.684
462.64	49.373
462.99	51.414
463.34	51.282
463.69	50.892
464.04	50.930
464.39	51.318
464.74	49.903
465.09	50.096
465.44	48.890
465.79	50.181
466.14	49.702
466.49	50.208
466.84	50.000
467.19	49.318
467.54	49.735
467.89	50.751
468.24	49.369
468.59	50.524
468.94	50.706
469.29	50.727
469.64	50.693
469.99	50.613
470.34	50.424
470.68	51.462
471.03	51.168
471.38	51.683
471.73	52.471
472.08	49.964
472.43	52.282
472.78	53.299
473.13	52.491
473.48	52.351
473.83	53.236
474.17	52.235
474.52	52.445
474.87	51.768
475.22	52.287
475.57	52.056
475.92	52.018
476.27	51.356
476.61	52.541
476.96	52.223
477.31	52.626
477.66	51.540
478.01	52.501
478.36	52.665
478.70	52.732
479.05	51.654
479.40	51.631
479.75	53.561
480.10	53.301
480.45	52.042
480.79	52.724
481.14	53.189
481.49	51.260
481.84	52.727
482.19	51.073
482.53	52.451
482.88	52.211
483.23	52.663
483.58	51.931
483.92	51.256
484.27	52.275
484.62	52.852
484.97	51.230
485.31	51.083
485.66	49.911
486.01	48.271
486.36	48.860
486.70	49.382
487.05	50.272
487.40	48.914
487.75	48.841
488.09	48.841
488.44	50.389
488.79	50.229
489.13	50.707
489.48	50.883
489.83	51.549
490.17	52.508
490.52	51.147
490.87	53.709
491.22	53.156
491.56	52.717
491.91	52.811
492.26	54.309
492.60	53.316
492.95	52.618
493.30	53.058
493.64	52.840
493.99	52.875
494.34	52.712
494.68	53.221
495.03	51.521
495.37	51.647
495.72	51.951
496.07	53.296
496.41	52.322
496.76	51.671
497.11	54.407
497.45	53.742
497.80	53.479
498.14	54.013
498.49	54.565
498.84	51.782
499.18	53.607
499.53	54.725
499.87	52.023
500.22	52.831
500.56	54.212
500.91	53.120
501.26	54.173
501.60	53.364
501.95	53.685
502.29	53.720
502.64	53.011
502.98	52.701
503.33	52.521
503.67	53.803
504.02	53.013
504.36	53.107
504.71	54.681
505.06	53.723
505.40	54.745
505.75	53.133
506.09	55.580
506.44	54.775
506.78	54.497
507.13	54.397
507.47	55.180
507.82	55.357
508.16	56.570
508.51	56.182
508.85	56.648
509.19	54.800
509.54	55.184
509.88	56.214
510.23	56.742
510.57	55.366
510.92	56.519
511.26	57.036
511.61	56.336
511.95	56.854
512.30	56.232
512.64	56.070
512.98	58.063
513.33	55.979
513.67	55.749
514.02	56.851
514.36	58.126
514.70	57.863
515.05	59.390
515.39	59.159
515.74	58.709
516.08	59.573
516.42	59.416
516.77	60.248
517.11	59.939
517.46	59.151
517.80	60.179
518.14	60.784
518.49	60.155
518.83	60.700
519.17	60.090
519.52	59.838
519.86	60.228
520.20	60.064
520.55	62.794
520.89	63.563
521.23	62.859
521.58	60.780
521.92	60.214
522.26	62.818
522.61	63.003
522.95	63.356
523.29	63.225
523.64	61.872
523.98	60.954
524.32	63.636
524.66	62.746
525.01	63.299
525.35	62.038
525.69	60.840
526.04	63.214
526.38	63.057
526.72	62.014
527.06	62.869
527.41	63.359
527.75	62.814
528.09	63.083
528.43	62.792
528.78	62.544
529.12	61.986
529.46	61.993
529.80	62.491
530.15	64.698
530.49	62.762
530.83	63.268
531.17	62.076
531.51	63.740
531.86	62.045
532.20	61.400
532.54	63.813
532.88	63.418
533.22	63.362
533.57	61.517
533.91	62.147
534.25	61.914
534.59	63.618
534.93	62.189
535.27	61.549
535.62	61.918
535.96	63.154
536.30	61.726
536.64	62.589
536.98	61.652
537.32	62.723
537.66	61.804
538.01	62.666
538.35	62.982
538.69	60.722
539.03	62.870
539.37	61.235
539.71	61.304
540.05	63.676
540.39	62.019
540.73	62.125
541.07	63.529
541.42	61.654
541.76	61.223
542.10	60.832
542.44	62.428
542.78	59.971
543.12	60.578
543.46	61.177
543.80	61.901
544.14	60.645
544.48	61.404
544.82	61.249
545.16	62.391
545.50	62.518
545.84	61.302
546.18	61.948
546.52	61.952
546.86	62.127
547.20	62.803
547.54	60.879
547.88	59.758
548.22	61.041
548.56	61.240
548.90	60.070
549.24	61.111
549.58	61.028
549.92	61.353
550.26	61.622
550.60	62.411
550.94	62.222
551.28	64.146
551.62	63.063
551.96	62.540
552.30	61.473
552.64	60.631
552.98	60.698
553.32	60.152
553.66	61.836
554.00	62.625
554.34	61.641
554.68	61.483
555.02	61.667
555.36	61.160
555.69	60.492
556.03	59.350
556.37	60.390
556.71	60.106
557.05	60.078
557.39	63.052
557.73	62.421
558.07	61.189
558.41	60.495
558.75	63.071
559.08	64.340
559.42	63.294
559.76	61.921
560.10	61.614
560.44	60.016
560.78	60.105
561.12	61.307
561.45	61.086
561.79	58.076
562.13	59.896
562.47	60.474
562.81	60.045
563.15	60.304
563.48	58.352
563.82	60.044
564.16	59.797
564.50	58.095
564.84	59.674
565.17	60.086
565.51	59.324
565.85	59.155
566.19	59.847
566.52	60.000
566.86	58.607
567.20	59.348
567.54	59.030
567.88	56.553
568.21	57.151
568.55	55.744
568.89	55.440
569.23	55.371
569.56	53.977
569.90	52.891
570.24	52.285
570.57	52.370
570.91	52.693
571.25	52.755
571.59	51.902
571.92	50.481
572.26	50.231
572.60	50.385
572.93	50.065
573.27	49.448
573.61	49.458
573.95	49.250
574.28	49.490
574.62	48.200
574.96	49.413
575.29	48.167
575.63	47.024
575.97	47.914
576.30	48.670
576.64	47.767
576.98	48.760
577.31	48.108
577.65	48.430
577.98	47.240
578.32	47.543
578.66	47.277
578.99	48.776
579.33	48.274
579.67	47.757
580.00	47.144
580.34	47.916
580.67	47.024
581.01	48.095
581.35	47.083
581.68	47.160
582.02	46.439
582.35	46.920
582.69	47.451
583.02	47.259
583.36	46.843
583.70	47.673
584.03	47.635
584.37	48.102
584.70	47.915
585.04	47.133
585.37	46.639
585.71	47.784
586.04	47.799
586.38	47.834
586.72	48.396
587.05	48.270
587.39	47.430
587.72	48.152
588.06	47.827
588.39	48.671
588.73	49.157
589.06	48.501
589.40	49.877
589.73	49.102
590.07	49.013
590.40	48.834
590.73	50.729
591.07	49.697
591.40	49.886
591.74	50.093
592.07	51.480
592.41	51.640
592.74	50.703
593.08	49.361
593.41	49.263
593.75	49.275
594.08	49.231
594.41	49.133
594.75	49.608
595.08	49.318
595.42	49.080
595.75	48.674
596.09	48.719
596.42	48.922
596.75	50.773
597.09	49.580
597.42	49.789
597.75	51.079
598.09	49.017
598.42	50.071
598.76	48.862
599.09	49.538
599.42	48.190
599.76	48.725
600.09	49.229
600.42	47.305
600.76	47.806
601.09	47.843
601.42	48.188
601.76	47.849
602.09	48.680
602.42	49.284
602.76	50.611
603.09	49.347
603.42	49.063
603.76	49.014
604.09	49.833
604.42	49.249
604.76	48.654
605.09	49.173
605.42	49.763
605.75	48.561
606.09	49.244
606.42	48.731
606.75	48.757
607.09	49.580
607.42	48.830
607.75	48.485
608.08	48.597
608.42	48.933
608.75	49.125
609.08	47.653
609.41	50.285
609.75	50.132
610.08	49.406
610.41	49.517
610.74	49.141
611.07	50.555
611.41	49.679
611.74	49.891
612.07	49.721
612.40	50.084
612.73	50.463
613.07	49.325
613.40	50.546
613.73	49.656
614.06	49.941
614.39	50.732
614.72	49.528
615.06	49.943
615.39	48.672
615.72	48.208
616.05	49.449
616.38	50.059
616.71	50.684
617.05	49.812
617.38	50.452
617.71	51.339
618.04	51.051
618.37	50.687
618.70	51.766
619.03	51.849
619.36	51.620
619.69	52.100
620.03	52.555
620.36	52.683
620.69	51.811
621.02	52.494
621.35	52.511
621.68	55.266
622.01	55.704
622.34	52.596
622.67	54.469
623.00	54.545
623.33	52.283
623.66	53.386
623.99	52.153
624.32	52.820
624.65	52.031
624.99	52.578
625.32	50.948
625.65	53.243
625.98	52.500
626.31	52.468
626.64	55.135
626.97	55.607
627.30	55.000
627.63	54.977
627.96	53.818
628.29	54.493
628.62	55.670
628.95	55.544
629.28	55.682
629.61	55.486
629.94	58.610
630.26	55.649
630.59	54.869
630.92	55.005
631.25	57.654
631.58	56.628
631.91	55.239
632.24	58.580
632.57	58.145
632.90	58.672
633.23	60.387
633.56	58.868
633.89	58.179
634.22	58.333
634.55	59.001
634.88	59.438
635.20	59.452
635.53	61.732
635.86	58.696
636.19	56.753
636.52	58.356
636.85	56.193
637.18	58.161
637.51	59.756
637.83	59.916
638.16	61.593
638.49	57.637
638.82	59.212
639.15	59.143
639.48	60.553
639.81	59.613
640.13	61.715
640.46	58.740
640.79	57.984
641.12	58.605
641.45	60.809
641.77	58.917
642.10	59.446
642.43	61.279
642.76	62.903
643.09	60.381
643.41	61.290
643.74	61.979
644.07	60.847
644.40	62.996
644.73	62.983
645.05	63.168
645.38	63.077
645.71	60.878
646.04	63.197
646.36	64.962
646.69	65.957
647.02	63.477
647.35	63.800
647.67	64.529
648.00	61.942
648.33	61.272
648.66	58.071
648.98	54.915
649.31	58.692
649.64	58.692
649.96	56.081
650.29	57.876
650.62	62.894
650.94	59.150
651.27	59.152
651.60	60.612
651.92	61.260
652.25	57.553
652.58	56.373
652.90	56.584
653.23	57.587
653.56	55.035
653.88	56.387
654.21	60.681
654.54	60.413
654.86	59.712
655.19	55.484
655.52	53.229
655.84	42.968
656.17	40.149
656.49	53.550
656.82	61.402
657.15	49.378
657.47	37.136
657.80	27.508
658.13	23.042
658.45	38.874
658.78	37.625
659.10	37.193
659.43	37.471
659.75	38.071
660.08	40.695
660.41	43.040
660.73	48.615
661.06	53.818
661.38	55.040
661.71	58.643
662.03	62.731
662.36	58.711
662.68	58.513
663.01	59.615
663.33	62.264
663.66	63.397
663.98	62.592
664.31	60.976
664.63	58.945
664.96	64.133
665.28	58.629
665.61	58.645
665.93	58.295
666.26	58.499
666.58	60.092
666.91	59.016
667.23	59.606
667.56	61.481
667.88	61.654
668.21	56.853
668.53	60.914
668.86	60.459
669.18	57.614
669.50	62.725
669.83	57.750
670.15	60.500
670.48	58.897
670.80	61.675
671.13	57.349
671.45	60.969
671.77	55.556
672.10	54.725
672.42	54.382
672.75	53.204
673.07	53.832
673.39	54.475
673.72	55.165
674.04	54.468
674.37	59.584
674.69	58.411
675.01	57.442
675.34	56.618
675.66	54.286
675.98	57.828
676.31	56.927
676.63	57.732
676.95	52.758
677.28	56.931
677.60	58.396
677.92	57.143
678.25	54.988
678.57	53.828
678.89	55.275
679.22	55.275
679.54	52.116
679.86	56.317
680.18	52.720
680.51	50.924
680.83	53.125
681.15	54.902
681.48	52.340
681.80	50.435
682.12	53.533
682.44	52.371
682.77	55.000
683.09	52.206
683.41	56.140
683.73	59.296
684.06	52.792
684.38	53.237
684.70	54.734
685.02	55.628
685.34	46.025
685.67	49.802
685.99	51.697
686.31	48.881
686.63	49.515
686.96	49.593
687.28	50.924
687.60	50.924
687.92	47.257
688.24	49.053
688.56	49.670
688.89	52.511
689.21	48.837
689.53	51.407
689.85	54.430
690.17	52.941
690.49	54.353
690.82	52.334
691.14	54.047
691.46	51.750
691.78	49.282
692.10	50.000
692.42	51.606
692.74	51.896
693.06	53.253
693.39	49.754
693.71	49.302
694.03	51.208
694.35	50.743
694.67	53.690
694.99	53.100
695.31	53.258
695.63	50.270
695.95	52.809
696.27	50.142
696.59	49.258
696.91	52.991
697.23	54.441
697.56	50.777
697.88	47.307
698.20	46.973
698.52	47.837
698.84	49.123
699.16	45.910
699.48	51.832
699.80	46.429
700.12	46.832
700.44	46.608
700.76	53.628
701.08	47.937
701.40	53.947
701.72	56.667
702.04	49.320
702.36	53.770
702.68	58.725
703.00	51.735
703.32	43.413
703.64	55.521
703.96	53.165
704.28	51.056
704.60	50.342
704.91	49.342
705.23	52.982
705.55	51.301
705.87	50.000
706.19	56.175
706.51	52.344
706.83	52.747
707.15	49.153
707.47	48.503
707.79	48.138
708.11	48.148
708.43	47.200
708.74	43.716
709.06	46.626
709.38	44.807
709.70	42.532
710.02	50.699
710.34	48.227
710.66	49.438
710.98	50.699
711.29	50.172
711.61	46.454
711.93	52.434
712.25	54.717
712.57	50.391
712.89	52.653
713.20	48.387
713.52	47.154
713.84	48.905
714.16	49.324
714.48	52.901
714.80	47.475
715.11	48.797
715.43	44.369
715.75	46.667
716.07	43.273
716.39	50.853
716.70	49.200
717.02	44.758
717.34	46.320
717.66	47.273
717.97	39.815
718.29	48.889
718.61	50.450
718.93	46.639
719.24	42.678
719.56	44.643
719.88	44.706
720.20	47.436
720.51	49.561
720.83	50.628
721.15	45.714
721.46	45.992
721.78	45.887
722.10	43.023
722.42	49.130
722.73	44.344
723.05	47.005
723.37	44.344
723.68	49.289
724.00	43.981
724.32	49.065
724.63	48.869
724.95	44.292
725.27	46.009
725.58	47.032
725.90	46.847
726.22	49.345
726.53	44.672
726.85	46.667
727.16	40.081
727.48	44.355
727.80	40.183
728.11	48.889
728.43	41.152
728.74	42.105
729.06	44.541
729.38	44.574
729.69	41.600
730.01	41.841
730.32	39.841
730.64	43.846
730.96	41.313
731.27	39.768
731.59	36.027
731.90	39.474
732.22	41.196
732.53	37.193
732.85	35.915
733.16	42.491
733.48	38.060
733.80	42.909
734.11	41.135
734.43	44.043
734.74	37.695
735.06	39.871
735.37	37.700
735.69	35.211
736.00	38.519
736.32	38.811
736.63	44.815
736.95	36.187
737.26	40.942
737.58	36.131
737.89	35.849
738.21	36.641
738.52	41.803
738.83	40.598
739.15	45.455
739.46	37.387
739.78	35.907
740.09	42.857
740.41	39.394
740.72	36.255
741.04	39.526
741.35	40.807
741.66	40.323
741.98	40.306
742.29	47.668
742.61	44.509
742.92	39.706
743.23	46.269
743.55	40.415
743.86	41.546
744.18	37.500
744.49	37.222
744.80	44.624
745.12	40.513
745.43	36.898
745.74	35.294
746.06	47.701
746.37	43.889
746.68	43.784
747.00	36.464
747.31	42.408
747.62	39.474
747.94	43.868
748.25	49.261
748.56	44.949
748.88	39.891
749.19	43.523
749.50	42.353
749.82	46.000
750.13	40.777
750.44	38.197
750.75	37.200
751.07	34.310
751.38	36.328
751.69	42.857
752.01	39.496
752.32	34.711
752.63	32.751
752.94	40.800
753.26	38.356
753.57	40.284
753.88	38.140
754.19	38.326
754.51	34.728
754.82	39.167
755.13	41.150
755.44	34.632
755.75	40.161
756.07	37.339
756.38	37.238
756.69	41.509
757.00	35.461
757.31	38.062
757.63	34.314
757.94	33.030
758.25	36.310
758.56	31.351
758.87	31.845
759.18	38.629
759.50	38.790
759.81	36.293
760.12	36.299
760.43	37.874
760.74	37.425
761.05	33.654
761.36	40.356
761.67	34.347
761.99	35.117
762.30	31.273
762.61	38.211
762.92	34.222
763.23	38.605
763.54	39.086
763.85	33.937
764.16	30.435
764.47	36.522
764.78	38.710
765.10	38.976
765.41	32.441
765.72	31.773
766.03	38.796
766.34	33.333
766.65	38.281
766.96	34.222
767.27	42.458
767.58	30.189
767.89	38.312
768.20	36.486
768.51	40.805
768.82	33.125
769.13	38.889
769.44	33.962
769.75	36.765
770.06	30.583
770.37	34.043
770.68	38.462
770.99	35.533
771.30	28.866
771.61	26.457
771.92	35.377
772.23	28.365
772.54	37.059
772.85	36.986
773.16	32.258
773.47	32.484
773.78	36.527
774.09	34.211
774.39	34.559
774.70	31.579
775.01	34.615
775.32	31.746
775.63	32.283
775.94	24.528
776.25	25.926
776.56	37.273
776.87	33.333
777.18	36.000
777.48	28.846
777.79	31.481
778.10	24.528
778.41	30.392
778.72	40.566
779.03	35.088
779.34	32.773
779.65	35.211
779.95	35.252
780.26	25.806
780.57	34.058
780.88	20.183
781.19	24.074
781.50	25.410
781.80	29.927
782.11	25.641
782.42	26.207
782.73	32.867
783.04	28.800
783.34	24.800
783.65	34.959
783.96	20.492
784.27	24.370
784.57	29.907
784.88	26.786
785.19	32.990
785.50	37.895
785.81	22.000
786.11	26.733
786.42	9.412
786.73	26.042
787.04	25.510
787.34	29.630
787.65	30.189
787.96	14.433
788.26	27.723
788.57	29.565
788.88	6.422
789.19	22.314
789.49	21.739
789.80	30.172
790.11	23.171
790.41	33.708
790.72	10.465
791.03	13.953
791.33	19.481
791.64	18.293
791.95	24.390
792.25	0.000
792.56	7.407
792.87	35.211
793.17	28.916
793.48	8.235
793.79	18.750
794.09	15.000
794.40	23.913
794.70	20.870
795.01	20.183
795.32	29.921
795.62	28.431
795.93	21.569
796.23	21.212
796.54	20.930
796.85	17.391
797.15	9.375
797.46	25.424
797.76	40.984
798.07	19.737
798.37	16.129
798.68	1.563
798.99	15.385
799.29	9.091
799.60	17.391
799.90	22.857
800.21	-5.263
800.51	24.138
800.82	13.208
801.12	15.686
801.43	4.839
801.73	27.419
802.04	20.000
802.34	-3.774
802.65	-2.632
802.95	23.636
803.26	32.075
803.56	11.475
803.87	24.000
804.17	22.222
804.48	13.462
804.78	-8.163
805.09	14.894
805.39	23.729
805.70	0.000
806.00	-7.143
806.30	0.000
806.61	4.615
806.91	20.000
807.22	22.368
807.52	17.143
807.83	8.621
808.13	16.456
808.43	4.918
808.74	21.311
809.04	17.568
809.35	18.519
809.65	26.786
809.95	15.254
810.26	-6.122
810.56	-7.547
810.86	9.804
811.17	5.405
811.47	-22.222
811.77	1.961
812.08	22.727
812.38	-8.333
812.69	7.692
812.99	21.429
813.29	41.304
813.59	0.000
813.90	7.143
814.20	0.000
814.50	18.367
814.81	7.843
815.11	4.167
815.41	-14.634
815.72	-30.769
816.02	10.638
816.32	28.125
816.62	33.333
816.93	-6.061
817.23	10.811
817.53	-17.647
817.84	32.500
818.14	-8.824
818.44	0.000
818.74	-90.476
819.04	-11.429
819.35	0.000
819.65	-2.273
819.95	10.256
820.25	-66.667
820.56	-41.379
820.86	-3.571
821.16	-65.217
821.46	-2.381
821.76	11.111
822.07	0.000
822.37	-4.082
822.67	-16.279
822.97	-26.087
823.27	11.538
823.57	-18.519
823.88	-42.857
824.18	-7.692
824.48	-7.143
824.78	18.182
825.08	-86.667
825.38	2.500
825.69	-83.333
825.99	14.815
826.29	22.222
826.59	-62.963
826.89	-48.148
827.19	-28.571
827.49	-18.182
827.79	-68.182
828.09	-36.364
828.39	-82.609
828.70	-48.148
829.00	-21.429
829.30	-4.762
829.60	9.677
829.90	-50.000
830.20	-10.256
830.50	-81.818
830.80	-38.095
831.10	-5.556
831.40	-128.571
831.70	-11.111
832.00	-47.059
832.30	-13.043
832.60	-8.333
832.90	-145.455
833.20	-22.222
833.50	3.125
833.80	-15.385
834.10	40.000
834.40	-16.667
834.70	-36.364
835.00	-30.769
835.30	-30.000
835.60	-120.000
835.90	-15.000
836.20	-71.429
836.50	-26.087
836.80	-55.556
837.10	26.667
837.40	-180.000
837.70	-4.348
838.00	-71.429
838.30	2100.000
838.60	32.000
838.90	-300.000
839.19	-66.667
839.49	-500.000
839.79	-100.000
840.09	-55.556
840.39	0.000
840.69	-88.889
840.99	-25.000
841.29	-17.241
841.59	-80.000
841.88	-90.909
842.18	-183.333
842.48	-37.500
842.78	-19.231
843.08	-58.824
843.38	-40.000
843.68	-146.154
843.97	-52.941
844.27	-50.000
844.57	-33.333
844.87	-36.364
845.17	-84.211
845.47	-94.444
845.76	-8.333
846.06	-90.476
846.36	-100.000
846.66	-277.778
846.96	-45.000
847.25	-180.000
847.55	-12.500
847.85	-46.667
848.15	-200.000
848.44	10.526
848.74	-80.000
849.04	-36.842
849.34	-333.333
849.63	-83.333
849.93	-76.471
850.23	-127.273
850.53	-466.667
850.82	-180.000
851.12	-211.111
851.42	-271.429
851.71	-240.000
852.01	-92.857
852.31	-400.000
852.61	-92.308
852.90	-440.000
853.20	-166.667
853.50	-200.000
853.79	-120.000
854.09	-50.000
854.39	-68.421
854.68	-35.000
854.98	-375.000
855.28	-27.778
855.57	-192.857
855.87	-78.947
856.17	-100.000
856.46	-73.077
856.76	-80.000
857.05	-62.500
857.35	-12.500
857.65	-38.889
857.94	-112.500
858.24	-56.522
858.53	-210.000
858.83	-733.333
859.13	-154.545
859.42	-200.000
859.72	233.333
860.01	-61.538
860.31	-170.000
860.60	-187.500
860.90	-100.000
861.20	-233.333
861.49	-500.000
861.79	550.000
862.08	-29.032
862.38	-52.632
862.67	-84.615
862.97	-140.000
863.26	-91.667
863.56	-21.739
863.85	-300.000
864.15	-85.714
864.44	-50.000
864.74	-125.000
865.03	-11.111
865.33	-333.333
865.62	-1800.000
865.92	-900.000
866.21	-283.333
866.51	-190.909
866.80	-800.000
867.10	-242.857
867.39	-122.222
867.69	-166.667
867.98	200.000
868.27	-325.000
868.57	775.000
868.86	-60.000
869.16	-138.462
869.45	950.000
869.75	-66.667
870.04	-158.333
870.33	-70.588
870.63	-242.857
870.92	47.826
871.22	-125.000
871.51	620.000
871.80	-56.250
872.10	-533.333
>>>>>End Processed Spectral Data<<<<<
