SpectraSuite Data File
++++++++++++++++++++++++++++++++++++
Date: Tue May 12 19:40:52 PDT 2015
User: schluterlab
Dark Spectrum Present: Yes
Reference Spectrum Present: Yes
Number of Sampled Component Spectra: 1
Spectrometers: USB2E3373
Integration Time (usec): 3000 (USB2E3373)
Spectra Averaged: 3 (USB2E3373)
Boxcar Smoothing: 0 (USB2E3373)
Correct for Electrical Dark: No (USB2E3373)
Strobe/Lamp Enabled: No (USB2E3373)
Correct for Detector Non-linearity: No (USB2E3373)
Correct for Stray Light: No (USB2E3373)
Number of Pixels in Processed Spectrum: 2048
>>>>>Begin Processed Spectral Data<<<<<
178.53	0.000
178.91	30.000
179.29	-166.667
179.67	300.000
180.04	0.000
180.42	20.000
180.80	33.333
181.18	700.000
181.56	0.000
181.94	66.667
182.31	1300.000
182.69	28.571
183.07	0.000
183.45	191.667
183.83	180.000
184.20	133.333
184.58	500.000
184.96	283.333
185.34	66.667
185.72	-7.143
186.09	-66.667
186.47	-400.000
186.85	0.000
187.23	133.333
187.61	-100.000
187.98	100.000
188.36	50.000
188.74	0.000
189.12	-33.333
189.49	-50.000
189.87	225.000
190.25	144.444
190.63	400.000
191.00	140.000
191.38	133.333
191.76	240.000
192.14	-42.857
192.51	20.000
192.89	100.000
193.27	-20.000
193.65	33.333
194.02	-100.000
194.40	-0.000
194.78	-200.000
195.15	-71.429
195.53	400.000
195.91	160.000
196.29	-225.000
196.66	-300.000
197.04	-28.571
197.42	-20.000
197.79	-37.500
198.17	-41.667
198.55	-200.000
198.92	-88.889
199.30	650.000
199.68	0.000
200.05	-600.000
200.43	-83.333
200.81	-58.333
201.18	200.000
201.56	-200.000
201.94	-300.000
202.31	0.000
202.69	11.111
203.07	66.667
203.44	-225.000
203.82	0.000
204.19	187.500
204.57	-600.000
204.95	181.818
205.32	120.000
205.70	275.000
206.08	200.000
206.45	-120.000
206.83	200.000
207.20	-66.667
207.58	-7.692
207.96	200.000
208.33	533.333
208.71	-66.667
209.08	550.000
209.46	111.111
209.84	633.333
210.21	-500.000
210.59	-400.000
210.96	177.778
211.34	-50.000
211.71	550.000
212.09	-40.000
212.46	-100.000
212.84	-112.500
213.22	57.143
213.59	-87.500
213.97	0.000
214.34	-450.000
214.72	-100.000
215.09	500.000
215.47	53.333
215.84	0.000
216.22	-900.000
216.59	700.000
216.97	25.000
217.34	-50.000
217.72	33.333
218.09	250.000
218.47	-21.053
218.84	-162.500
219.22	-21.429
219.59	-100.000
219.97	-60.000
220.34	166.667
220.72	63.636
221.09	-700.000
221.47	0.000
221.84	150.000
222.22	-250.000
222.59	-200.000
222.97	17.391
223.34	86.667
223.72	271.429
224.09	-66.667
224.46	130.769
224.84	46.667
225.21	400.000
225.59	-150.000
225.96	5.000
226.34	216.667
226.71	110.000
227.08	-76.923
227.46	28.571
227.83	33.333
228.21	-550.000
228.58	250.000
228.95	-26.316
229.33	18.750
229.70	-33.333
230.08	-122.222
230.45	-366.667
230.82	-800.000
231.20	-4.762
231.57	-20.000
231.95	-33.333
232.32	100.000
232.69	-100.000
233.07	62.500
233.44	25.000
233.81	29.032
234.19	-40.000
234.56	-22.222
234.93	-50.000
235.31	22.222
235.68	11.111
236.05	15.385
236.43	-52.632
236.80	13.636
237.17	-50.000
237.55	-50.000
237.92	20.930
238.29	32.258
238.67	71.429
239.04	8.571
239.41	21.569
239.79	26.000
240.16	17.500
240.53	25.862
240.91	28.767
241.28	29.577
241.65	39.063
242.02	26.316
242.40	25.333
242.77	25.263
243.14	42.353
243.51	34.409
243.89	26.667
244.26	42.593
244.63	39.796
245.00	22.321
245.38	26.891
245.75	27.119
246.12	35.156
246.49	30.400
246.87	31.148
247.24	24.648
247.61	29.801
247.98	32.022
248.36	26.415
248.73	30.114
249.10	34.444
249.47	35.417
249.84	28.426
250.22	28.125
250.59	32.584
250.96	31.364
251.33	38.208
251.70	34.404
252.08	35.498
252.45	27.347
252.82	24.473
253.19	32.296
253.56	35.686
253.94	33.333
254.31	38.129
254.68	33.333
255.05	40.066
255.42	31.636
255.79	37.748
256.16	30.208
256.54	33.636
256.91	33.654
257.28	32.792
257.65	33.115
258.02	32.733
258.39	36.254
258.76	33.333
259.14	33.824
259.51	35.775
259.88	35.735
260.25	32.386
260.62	28.371
260.99	34.540
261.36	32.184
261.73	36.000
262.10	38.147
262.47	34.711
262.85	35.476
263.22	32.796
263.59	39.410
263.96	33.420
264.33	32.345
264.70	33.661
265.07	32.266
265.44	35.597
265.81	36.867
266.18	32.787
266.55	34.524
266.92	35.938
267.29	35.111
267.66	31.818
268.03	37.849
268.40	33.181
268.77	34.521
269.14	31.933
269.51	30.090
269.88	35.470
270.25	33.122
270.62	32.563
270.99	32.211
271.36	30.464
271.73	35.208
272.10	35.477
272.47	34.000
272.84	32.272
273.21	31.106
273.58	31.633
273.95	33.466
274.32	32.882
274.69	35.225
275.06	32.458
275.43	31.200
275.80	32.314
276.17	32.609
276.54	34.601
276.91	34.165
277.28	32.882
277.65	33.648
278.02	33.333
278.39	34.664
278.76	32.961
279.13	33.810
279.50	33.935
279.87	33.208
280.23	32.240
280.60	30.742
280.97	32.689
281.34	31.864
281.71	30.195
282.08	33.453
282.45	33.333
282.82	31.313
283.19	30.471
283.56	33.106
283.92	32.070
284.29	32.318
284.66	32.035
285.03	29.160
285.40	31.833
285.77	35.140
286.14	31.062
286.51	30.225
286.87	30.956
287.24	29.968
287.61	29.167
287.98	33.177
288.35	30.233
288.72	30.887
289.08	29.874
289.45	29.641
289.82	28.416
290.19	27.424
290.56	27.786
290.93	29.542
291.29	28.794
291.66	28.933
292.03	28.694
292.40	27.770
292.77	29.300
293.13	27.460
293.50	26.997
293.87	26.907
294.24	28.090
294.60	28.142
294.97	27.008
295.34	24.521
295.71	26.352
296.08	26.639
296.44	27.668
296.81	25.356
297.18	26.649
297.55	28.392
297.91	26.015
298.28	25.320
298.65	25.485
299.02	26.634
299.38	24.490
299.75	24.067
300.12	25.420
300.48	23.709
300.85	24.939
301.22	25.601
301.59	24.331
301.95	24.878
302.32	24.666
302.69	24.495
303.05	23.613
303.42	24.155
303.79	22.135
304.15	24.575
304.52	22.682
304.89	22.886
305.25	24.427
305.62	23.523
305.99	22.284
306.35	24.161
306.72	24.619
307.09	22.742
307.45	23.301
307.82	23.052
308.19	25.523
308.55	23.840
308.92	24.047
309.29	23.640
309.65	24.974
310.02	23.585
310.38	25.267
310.75	25.205
311.12	22.991
311.48	25.283
311.85	22.999
312.22	27.169
312.58	23.968
312.95	24.743
313.31	24.779
313.68	24.826
314.05	25.919
314.41	24.067
314.78	24.925
315.14	24.290
315.51	25.819
315.87	24.609
316.24	25.717
316.61	26.214
316.97	25.392
317.34	25.072
317.70	26.424
318.07	26.905
318.43	26.938
318.80	26.958
319.16	26.468
319.53	29.623
319.89	27.557
320.26	28.515
320.62	28.585
320.99	30.408
321.35	29.249
321.72	30.303
322.08	30.594
322.45	30.375
322.81	31.034
323.18	31.064
323.54	32.322
323.91	31.594
324.27	32.594
324.64	31.959
325.00	33.030
325.37	34.622
325.73	33.942
326.10	33.187
326.46	35.449
326.83	35.180
327.19	35.109
327.56	35.544
327.92	34.288
328.29	35.573
328.65	36.817
329.01	36.514
329.38	37.098
329.74	38.162
330.11	37.372
330.47	39.851
330.84	37.312
331.20	39.002
331.56	36.981
331.93	37.511
332.29	37.743
332.66	38.698
333.02	39.740
333.38	39.063
333.75	38.609
334.11	39.150
334.48	37.030
334.84	38.592
335.20	38.585
335.57	39.600
335.93	39.163
336.29	39.580
336.66	38.251
337.02	38.713
337.38	38.585
337.75	41.000
338.11	39.471
338.47	40.576
338.84	39.503
339.20	39.872
339.56	39.422
339.93	38.739
340.29	39.891
340.65	40.274
341.02	40.213
341.38	39.453
341.74	40.925
342.11	39.876
342.47	39.073
342.83	39.376
343.20	39.699
343.56	39.598
343.92	39.108
344.28	39.708
344.65	40.582
345.01	40.505
345.37	39.316
345.73	39.621
346.10	40.104
346.46	38.395
346.82	38.912
347.19	39.781
347.55	41.071
347.91	40.295
348.27	40.607
348.63	42.437
349.00	41.653
349.36	39.984
349.72	39.901
350.08	39.607
350.45	40.195
350.81	40.050
351.17	39.127
351.53	38.728
351.89	40.933
352.26	39.187
352.62	39.248
352.98	39.331
353.34	41.520
353.70	40.165
354.07	39.951
354.43	39.482
354.79	38.525
355.15	39.467
355.51	39.038
355.87	40.133
356.24	40.605
356.60	39.149
356.96	38.547
357.32	40.576
357.68	39.936
358.04	39.789
358.40	39.444
358.77	39.598
359.13	39.839
359.49	39.520
359.85	40.208
360.21	40.444
360.57	41.388
360.93	40.143
361.29	38.240
361.66	39.511
362.02	41.758
362.38	40.482
362.74	40.584
363.10	39.668
363.46	38.676
363.82	39.740
364.18	40.651
364.54	40.153
364.90	39.630
365.26	39.642
365.62	39.818
365.98	40.705
366.35	39.864
366.71	39.582
367.07	38.893
367.43	37.617
367.79	38.663
368.15	39.807
368.51	41.199
368.87	40.602
369.23	40.575
369.59	39.338
369.95	38.450
370.31	39.318
370.67	38.571
371.03	40.093
371.39	39.502
371.75	39.004
372.11	39.259
372.47	38.976
372.83	39.080
373.19	39.834
373.55	37.874
373.91	38.712
374.27	40.324
374.63	39.838
374.99	39.458
375.35	38.679
375.71	39.885
376.07	37.809
376.42	39.627
376.78	37.770
377.14	39.385
377.50	38.714
377.86	39.485
378.22	38.970
378.58	39.342
378.94	39.555
379.30	39.704
379.66	38.028
380.02	38.716
380.38	39.249
380.74	38.968
381.09	38.437
381.45	40.381
381.81	39.796
382.17	39.023
382.53	39.776
382.89	38.679
383.25	37.349
383.61	38.398
383.97	38.921
384.32	38.903
384.68	39.719
385.04	37.365
385.40	37.827
385.76	38.077
386.12	39.274
386.48	38.943
386.83	38.315
387.19	38.250
387.55	38.148
387.91	36.885
388.27	37.492
388.62	37.694
388.98	38.740
389.34	37.541
389.70	38.397
390.06	38.680
390.42	39.216
390.77	38.229
391.13	38.386
391.49	40.229
391.85	37.991
392.20	38.020
392.56	39.424
392.92	39.147
393.28	37.941
393.64	38.885
393.99	38.247
394.35	38.287
394.71	38.411
395.07	39.191
395.42	37.397
395.78	38.777
396.14	38.241
396.50	38.228
396.85	38.202
397.21	37.775
397.57	37.986
397.92	39.440
398.28	38.849
398.64	37.397
399.00	38.247
399.35	39.273
399.71	37.725
400.07	38.542
400.42	37.821
400.78	39.283
401.14	38.258
401.49	38.039
401.85	38.413
402.21	39.150
402.57	36.703
402.92	38.712
403.28	38.036
403.63	37.692
403.99	37.583
404.35	37.006
404.70	38.189
405.06	38.624
405.42	37.345
405.77	37.099
406.13	37.216
406.49	37.350
406.84	38.854
407.20	37.546
407.55	36.941
407.91	37.552
408.27	36.702
408.62	37.621
408.98	38.546
409.34	37.708
409.69	37.124
410.05	36.658
410.40	37.058
410.76	37.671
411.11	37.621
411.47	38.163
411.83	37.283
412.18	37.304
412.54	37.775
412.89	36.269
413.25	37.806
413.60	36.926
413.96	37.152
414.31	36.711
414.67	38.960
415.03	37.344
415.38	38.510
415.74	37.542
416.09	36.664
416.45	37.297
416.80	36.926
417.16	38.293
417.51	37.474
417.87	37.825
418.22	37.299
418.58	36.904
418.93	37.524
419.29	38.602
419.64	37.912
420.00	38.114
420.35	37.037
420.71	37.580
421.06	38.092
421.42	38.080
421.77	38.490
422.12	38.039
422.48	38.264
422.83	38.663
423.19	38.000
423.54	37.752
423.90	38.319
424.25	38.731
424.61	38.323
424.96	37.101
425.31	39.130
425.67	37.818
426.02	39.441
426.38	38.739
426.73	36.511
427.09	38.017
427.44	37.778
427.79	39.171
428.15	38.491
428.50	39.259
428.85	38.101
429.21	39.749
429.56	37.514
429.92	38.345
430.27	38.080
430.62	37.426
430.98	37.829
431.33	39.544
431.68	38.512
432.04	39.586
432.39	38.324
432.74	38.583
433.10	38.993
433.45	38.695
433.80	38.214
434.16	38.608
434.51	39.186
434.86	39.396
435.22	37.951
435.57	39.908
435.92	38.390
436.28	39.851
436.63	39.654
436.98	39.383
437.34	41.075
437.69	39.136
438.04	38.702
438.39	40.405
438.75	39.015
439.10	39.702
439.45	40.693
439.81	40.762
440.16	41.187
440.51	38.786
440.86	39.899
441.22	39.666
441.57	38.462
441.92	39.812
442.27	40.114
442.63	41.309
442.98	41.015
443.33	39.542
443.68	39.878
444.03	40.155
444.39	40.135
444.74	40.240
445.09	41.381
445.44	39.534
445.79	40.453
446.15	41.108
446.50	40.254
446.85	39.989
447.20	40.208
447.55	40.605
447.91	41.270
448.26	42.018
448.61	41.692
448.96	41.336
449.31	40.265
449.66	40.436
450.02	40.118
450.37	41.738
450.72	40.993
451.07	41.332
451.42	41.963
451.77	41.173
452.12	42.293
452.47	41.260
452.83	42.154
453.18	42.606
453.53	41.999
453.88	41.289
454.23	41.470
454.58	42.885
454.93	41.281
455.28	42.702
455.63	41.780
455.98	42.386
456.34	42.398
456.69	43.060
457.04	42.454
457.39	41.635
457.74	42.225
458.09	41.817
458.44	42.551
458.79	40.400
459.14	42.159
459.49	42.548
459.84	42.568
460.19	40.588
460.54	41.982
460.89	41.353
461.24	42.273
461.59	43.281
461.94	43.721
462.29	41.291
462.64	43.802
462.99	43.002
463.34	41.758
463.69	42.661
464.04	42.335
464.39	43.537
464.74	41.856
465.09	42.251
465.44	42.531
465.79	41.877
466.14	41.826
466.49	43.189
466.84	42.260
467.19	41.780
467.54	41.048
467.89	43.697
468.24	43.308
468.59	42.212
468.94	42.838
469.29	44.014
469.64	44.201
469.99	43.043
470.34	43.069
470.68	42.846
471.03	42.044
471.38	43.455
471.73	43.677
472.08	44.413
472.43	43.154
472.78	43.582
473.13	43.860
473.48	44.675
473.83	43.131
474.17	43.229
474.52	43.537
474.87	42.803
475.22	42.884
475.57	41.774
475.92	41.671
476.27	42.737
476.61	42.790
476.96	43.924
477.31	43.379
477.66	43.173
478.01	43.849
478.36	43.266
478.70	43.662
479.05	42.542
479.40	42.399
479.75	43.466
480.10	43.994
480.45	43.979
480.79	43.124
481.14	43.015
481.49	42.519
481.84	43.434
482.19	41.707
482.53	42.696
482.88	42.857
483.23	43.417
483.58	42.277
483.92	43.869
484.27	43.611
484.62	43.376
484.97	42.091
485.31	41.802
485.66	40.118
486.01	38.534
486.36	39.495
486.70	39.029
487.05	40.872
487.40	41.150
487.75	40.366
488.09	39.536
488.44	41.018
488.79	41.246
489.13	42.062
489.48	42.138
489.83	42.626
490.17	43.366
490.52	43.069
490.87	43.373
491.22	43.195
491.56	43.676
491.91	43.223
492.26	43.498
492.60	44.286
492.95	43.686
493.30	43.596
493.64	43.864
493.99	43.994
494.34	43.335
494.68	43.310
495.03	42.241
495.37	43.791
495.72	43.724
496.07	43.864
496.41	42.441
496.76	43.171
497.11	43.427
497.45	44.048
497.80	43.666
498.14	44.087
498.49	44.527
498.84	42.348
499.18	43.487
499.53	43.354
499.87	44.086
500.22	44.052
500.56	44.218
500.91	43.314
501.26	43.255
501.60	43.884
501.95	43.501
502.29	44.177
502.64	42.558
502.98	43.009
503.33	42.436
503.67	44.104
504.02	44.637
504.36	42.270
504.71	43.564
505.06	43.546
505.40	44.182
505.75	43.233
506.09	44.041
506.44	44.421
506.78	44.004
507.13	44.083
507.47	44.100
507.82	43.136
508.16	43.597
508.51	44.639
508.85	43.736
509.19	44.158
509.54	44.419
509.88	43.786
510.23	44.607
510.57	44.691
510.92	44.728
511.26	45.032
511.61	44.578
511.95	43.493
512.30	44.406
512.64	44.106
512.98	44.536
513.33	42.732
513.67	44.311
514.02	45.192
514.36	44.247
514.70	44.748
515.05	46.402
515.39	45.169
515.74	46.053
516.08	44.570
516.42	47.172
516.77	44.534
517.11	45.688
517.46	46.471
517.80	45.246
518.14	45.288
518.49	45.925
518.83	46.304
519.17	46.272
519.52	45.909
519.86	45.725
520.20	44.522
520.55	45.822
520.89	47.233
521.23	46.359
521.58	46.032
521.92	45.594
522.26	47.079
522.61	46.621
522.95	46.164
523.29	45.884
523.64	46.336
523.98	45.766
524.32	46.128
524.66	46.159
525.01	46.873
525.35	46.238
525.69	46.249
526.04	47.357
526.38	46.265
526.72	46.250
527.06	46.765
527.41	47.271
527.75	45.585
528.09	46.040
528.43	46.421
528.78	46.331
529.12	45.548
529.46	44.452
529.80	44.656
530.15	46.769
530.49	45.746
530.83	45.336
531.17	45.904
531.51	45.824
531.86	46.218
532.20	44.084
532.54	46.043
532.88	45.527
533.22	45.187
533.57	45.448
533.91	44.253
534.25	45.418
534.59	45.392
534.93	45.400
535.27	44.175
535.62	44.092
535.96	44.871
536.30	44.120
536.64	44.921
536.98	45.501
537.32	46.131
537.66	44.282
538.01	45.729
538.35	46.036
538.69	44.940
539.03	45.133
539.37	45.011
539.71	44.928
540.05	45.369
540.39	44.227
540.73	44.469
541.07	45.515
541.42	44.476
541.76	43.813
542.10	43.185
542.44	45.087
542.78	44.721
543.12	43.682
543.46	45.306
543.80	44.818
544.14	43.728
544.48	44.491
544.82	43.506
545.16	44.928
545.50	44.541
545.84	44.843
546.18	43.371
546.52	44.350
546.86	44.836
547.20	44.091
547.54	44.124
547.88	42.949
548.22	42.335
548.56	43.904
548.90	42.807
549.24	43.348
549.58	44.262
549.92	44.662
550.26	45.019
550.60	45.282
550.94	45.714
551.28	44.878
551.62	45.700
551.96	44.649
552.30	44.341
552.64	44.177
552.98	43.314
553.32	43.333
553.66	43.399
554.00	44.170
554.34	45.625
554.68	44.338
555.02	43.333
555.36	44.639
555.69	43.351
556.03	42.498
556.37	42.161
556.71	42.836
557.05	43.594
557.39	43.454
557.73	43.082
558.07	44.131
558.41	44.054
558.75	45.643
559.08	44.936
559.42	44.565
559.76	43.892
560.10	46.129
560.44	42.835
560.78	43.426
561.12	41.322
561.45	43.824
561.79	41.777
562.13	43.514
562.47	42.966
562.81	43.063
563.15	41.141
563.48	41.798
563.82	42.576
564.16	41.509
564.50	43.123
564.84	42.736
565.17	42.132
565.51	42.435
565.85	41.549
566.19	42.797
566.52	41.075
566.86	41.872
567.20	41.783
567.54	41.417
567.88	40.291
568.21	40.680
568.55	38.710
568.89	40.110
569.23	39.458
569.56	38.299
569.90	37.645
570.24	37.352
570.57	36.531
570.91	35.990
571.25	36.295
571.59	35.443
571.92	34.915
572.26	35.514
572.60	34.798
572.93	34.905
573.27	34.328
573.61	34.045
573.95	34.427
574.28	34.207
574.62	33.412
574.96	33.690
575.29	33.273
575.63	32.800
575.97	33.352
576.30	33.488
576.64	33.517
576.98	33.182
577.31	33.477
577.65	33.501
577.98	32.293
578.32	32.976
578.66	32.569
578.99	33.349
579.33	32.958
579.67	32.812
580.00	33.229
580.34	33.249
580.67	32.808
581.01	32.702
581.35	32.159
581.68	32.387
582.02	31.970
582.35	31.236
582.69	31.996
583.02	31.787
583.36	31.786
583.70	32.950
584.03	33.083
584.37	33.914
584.70	32.255
585.04	32.301
585.37	32.533
585.71	32.075
586.04	32.729
586.38	33.152
586.72	32.823
587.05	33.304
587.39	33.046
587.72	32.787
588.06	32.773
588.39	32.661
588.73	33.229
589.06	33.443
589.40	34.002
589.73	34.405
590.07	34.533
590.40	34.124
590.73	34.527
591.07	34.805
591.40	34.719
591.74	34.049
592.07	35.578
592.41	35.567
592.74	34.512
593.08	33.659
593.41	33.562
593.75	33.502
594.08	33.357
594.41	33.873
594.75	33.829
595.08	33.619
595.42	33.271
595.75	33.598
596.09	34.027
596.42	33.784
596.75	34.545
597.09	33.629
597.42	34.350
597.75	35.084
598.09	34.504
598.42	34.785
598.76	33.834
599.09	33.908
599.42	32.887
599.76	33.621
600.09	33.096
600.42	31.602
600.76	32.564
601.09	33.137
601.42	32.528
601.76	32.955
602.09	33.599
602.42	34.043
602.76	33.944
603.09	33.420
603.42	33.518
603.76	33.445
604.09	33.250
604.42	33.963
604.76	33.683
605.09	33.491
605.42	34.218
605.75	32.983
606.09	33.778
606.42	32.896
606.75	33.837
607.09	33.815
607.42	33.134
607.75	33.563
608.08	33.583
608.42	33.851
608.75	33.567
609.08	33.266
609.41	34.526
609.75	35.176
610.08	33.902
610.41	34.198
610.74	33.822
611.07	34.532
611.41	34.261
611.74	34.222
612.07	33.817
612.40	33.928
612.73	35.301
613.07	34.703
613.40	33.813
613.73	34.192
614.06	33.782
614.39	35.267
614.72	34.593
615.06	34.386
615.39	34.122
615.72	33.483
616.05	33.565
616.38	33.452
616.71	34.515
617.05	34.987
617.38	34.903
617.71	35.075
618.04	34.757
618.37	34.663
618.70	36.005
619.03	36.476
619.36	36.451
619.69	36.547
620.03	36.918
620.36	36.961
620.69	36.142
621.02	37.134
621.35	37.532
621.68	39.514
622.01	37.790
622.34	37.437
622.67	38.111
623.00	37.101
623.33	36.929
623.66	36.733
623.99	36.364
624.32	36.299
624.65	35.938
624.99	35.938
625.32	36.651
625.65	35.548
625.98	38.000
626.31	37.403
626.64	38.829
626.97	40.165
627.30	39.259
627.63	38.512
627.96	36.499
628.29	38.719
628.62	39.485
628.95	37.487
629.28	38.430
629.61	39.185
629.94	39.108
630.26	40.063
630.59	38.953
630.92	37.408
631.25	40.559
631.58	41.047
631.91	39.636
632.24	40.237
632.57	41.260
632.90	41.574
633.23	42.323
633.56	42.390
633.89	41.821
634.22	44.231
634.55	43.627
634.88	41.901
635.20	42.329
635.53	43.296
635.86	42.527
636.19	40.655
636.52	44.205
636.85	41.330
637.18	42.098
637.51	42.141
637.83	43.994
638.16	44.666
638.49	42.219
638.82	42.475
639.15	42.143
639.48	41.485
639.81	41.729
640.13	43.951
640.46	45.512
640.79	41.860
641.12	44.651
641.45	43.701
641.77	42.516
642.10	44.137
642.43	42.761
642.76	46.057
643.09	45.502
643.41	44.265
643.74	43.576
644.07	42.681
644.40	45.848
644.73	43.462
645.05	45.229
645.38	48.269
645.71	47.137
646.04	46.840
646.36	45.265
646.69	46.422
647.02	48.242
647.35	45.600
647.67	48.096
648.00	46.214
648.33	43.353
648.66	46.568
648.98	40.678
649.31	44.406
649.64	42.513
649.96	40.203
650.29	41.770
650.62	44.156
650.94	46.211
651.27	42.582
651.60	41.300
651.92	42.939
652.25	40.918
652.58	42.190
652.90	40.569
653.23	43.144
653.56	41.493
653.88	41.423
654.21	45.180
654.54	40.901
654.86	42.626
655.19	39.355
655.52	35.189
655.84	27.487
656.17	26.742
656.49	35.803
656.82	41.128
657.15	32.882
657.47	25.140
657.80	18.838
658.13	16.099
658.45	27.208
658.78	27.070
659.10	26.215
659.43	26.976
659.75	26.828
660.08	29.751
660.41	31.984
660.73	35.180
661.06	39.273
661.38	43.548
661.71	42.670
662.03	44.676
662.36	42.243
662.68	43.405
663.01	45.192
663.33	48.585
663.66	45.215
663.98	45.721
664.31	43.415
664.63	42.890
664.96	44.418
665.28	47.281
665.61	47.664
665.93	45.853
666.26	43.046
666.58	43.578
666.91	44.965
667.23	46.798
667.56	44.691
667.88	45.865
668.21	42.893
668.53	44.924
668.86	43.367
669.18	44.416
669.50	50.643
669.83	47.250
670.15	44.500
670.48	45.113
670.80	46.701
671.13	44.819
671.45	44.388
671.77	43.720
672.10	41.538
672.42	38.048
672.75	37.476
673.07	39.626
673.39	41.245
673.72	38.430
674.04	40.000
674.37	46.651
674.69	40.421
675.01	44.186
675.34	41.912
675.66	40.476
675.98	44.444
676.31	41.058
676.63	43.299
676.95	40.048
677.28	42.327
677.60	46.366
677.92	41.855
678.25	41.995
678.57	41.531
678.89	39.450
679.22	43.349
679.54	39.866
679.86	38.116
680.18	39.958
680.51	37.372
680.83	39.375
681.15	42.702
681.48	38.511
681.80	38.696
682.12	39.186
682.44	37.716
682.77	40.455
683.09	39.706
683.41	42.356
683.73	45.226
684.06	41.624
684.38	42.446
684.70	43.649
685.02	36.147
685.34	35.774
685.67	37.352
685.99	36.527
686.31	39.925
686.63	37.670
686.96	35.366
687.28	37.988
687.60	35.729
687.92	38.819
688.24	37.684
688.56	37.143
688.89	40.639
689.21	38.372
689.53	38.875
689.85	41.772
690.17	38.235
690.49	39.294
690.82	40.295
691.14	41.514
691.46	35.750
691.78	36.842
692.10	40.138
692.42	37.385
692.74	40.995
693.06	38.313
693.39	38.916
693.71	34.419
694.03	37.198
694.35	39.356
694.67	41.985
694.99	39.892
695.31	41.643
695.63	40.000
695.95	44.382
696.27	41.360
696.59	40.950
696.91	40.741
697.23	43.840
697.56	40.155
697.88	39.344
698.20	35.593
698.52	35.337
698.84	37.343
699.16	35.620
699.48	41.885
699.80	36.813
700.12	40.496
700.44	34.513
700.76	41.640
701.08	40.952
701.40	44.408
701.72	46.667
702.04	40.476
702.36	42.295
702.68	41.275
703.00	41.956
703.32	35.629
703.64	41.325
703.96	38.608
704.28	38.028
704.60	45.548
704.91	37.171
705.23	42.105
705.55	38.290
705.87	36.331
706.19	47.410
706.51	37.891
706.83	38.095
707.15	39.322
707.47	41.916
707.79	38.395
708.11	34.392
708.43	35.200
708.74	37.978
709.06	32.515
709.38	37.685
709.70	39.286
710.02	41.608
710.34	39.716
710.66	41.573
710.98	37.063
711.29	42.612
711.61	38.298
711.93	39.326
712.25	37.358
712.57	39.063
712.89	42.857
713.20	38.306
713.52	41.057
713.84	36.496
714.16	42.230
714.48	41.980
714.80	39.057
715.11	40.206
715.43	36.177
715.75	34.386
716.07	35.636
716.39	38.908
716.70	32.400
717.02	34.677
717.34	45.022
717.66	41.818
717.97	36.111
718.29	42.222
718.61	41.441
718.93	38.235
719.24	36.820
719.56	41.518
719.88	36.078
720.20	33.333
720.51	38.596
720.83	38.075
721.15	34.694
721.46	36.287
721.78	39.827
722.10	39.535
722.42	36.522
722.73	35.747
723.05	44.240
723.37	36.652
723.68	41.706
724.00	39.352
724.32	40.187
724.63	38.009
724.95	36.073
725.27	41.315
725.58	42.466
725.90	30.631
726.22	38.865
726.53	34.836
726.85	38.148
727.16	37.652
727.48	41.129
727.80	31.507
728.11	41.778
728.43	36.214
728.74	35.088
729.06	40.611
729.38	34.496
729.69	31.200
730.01	36.402
730.32	31.474
730.64	36.923
730.96	30.888
731.27	36.293
731.59	34.680
731.90	32.895
732.22	34.219
732.53	29.825
732.85	28.873
733.16	35.531
733.48	36.194
733.80	36.727
734.11	32.270
734.43	34.296
734.74	29.907
735.06	31.833
735.37	31.310
735.69	29.577
736.00	34.074
736.32	32.867
736.63	32.593
736.95	32.685
737.26	34.420
737.58	31.752
737.89	30.189
738.21	35.878
738.52	42.623
738.83	32.479
739.15	37.727
739.46	31.081
739.78	31.274
740.09	31.349
740.41	34.470
740.72	27.888
741.04	30.830
741.35	35.874
741.66	42.473
741.98	31.122
742.29	37.306
742.61	38.728
742.92	36.765
743.23	37.811
743.55	31.088
743.86	37.198
744.18	34.500
744.49	35.556
744.80	37.634
745.12	35.897
745.43	28.342
745.74	34.225
746.06	44.253
746.37	37.778
746.68	36.757
747.00	28.729
747.31	36.649
747.62	38.421
747.94	33.491
748.25	40.887
748.56	35.354
748.88	37.158
749.19	34.715
749.50	32.941
749.82	36.000
750.13	34.466
750.44	33.906
750.75	32.400
751.07	27.197
751.38	28.906
751.69	36.905
752.01	28.151
752.32	38.017
752.63	29.694
752.94	30.800
753.26	31.507
753.57	34.123
753.88	28.372
754.19	31.278
754.51	33.054
754.82	34.167
755.13	30.088
755.44	39.827
755.75	36.145
756.07	33.476
756.38	31.799
756.69	30.943
757.00	29.433
757.31	30.104
757.63	30.065
757.94	31.515
758.25	30.655
758.56	28.108
758.87	30.060
759.18	31.776
759.50	31.317
759.81	33.591
760.12	31.317
760.43	28.239
760.74	32.635
761.05	29.808
761.36	31.751
761.67	27.356
761.99	29.431
762.30	26.182
762.61	34.959
762.92	29.778
763.23	34.884
763.54	32.995
763.85	37.104
764.16	27.391
764.47	30.435
764.78	27.823
765.10	29.134
765.41	28.428
765.72	29.431
766.03	27.090
766.34	28.409
766.65	31.250
766.96	28.889
767.27	38.547
767.58	30.189
767.89	38.961
768.20	31.081
768.51	32.759
768.82	31.250
769.13	36.111
769.44	30.189
769.75	27.451
770.06	23.786
770.37	28.723
770.68	26.154
770.99	32.995
771.30	26.289
771.61	25.561
771.92	25.943
772.23	27.885
772.54	30.000
772.85	28.082
773.16	27.742
773.47	31.847
773.78	30.539
774.09	28.947
774.39	25.000
774.70	30.827
775.01	38.462
775.32	32.540
775.63	36.220
775.94	35.849
776.25	38.519
776.56	31.818
776.87	41.026
777.18	46.000
777.48	36.538
777.79	28.704
778.10	32.075
778.41	40.196
778.72	31.132
779.03	21.053
779.34	24.370
779.65	28.169
779.95	38.849
780.26	20.968
780.57	39.130
780.88	22.018
781.19	26.852
781.50	25.410
781.80	29.197
782.11	20.513
782.42	22.759
782.73	40.559
783.04	23.200
783.34	22.400
783.65	30.081
783.96	23.770
784.27	28.571
784.57	14.019
784.88	31.250
785.19	37.113
785.50	29.474
785.81	29.000
786.11	20.792
786.42	10.588
786.73	19.792
787.04	31.633
787.34	32.407
787.65	33.962
787.96	17.526
788.26	27.723
788.57	31.304
788.88	22.018
789.19	19.835
789.49	28.696
789.80	27.586
790.11	18.293
790.41	35.955
790.72	24.419
791.03	26.744
791.33	3.896
791.64	28.049
791.95	20.732
792.25	28.916
792.56	1.235
792.87	14.085
793.17	33.735
793.48	35.294
793.79	16.250
794.09	13.333
794.40	36.957
794.70	22.609
795.01	33.945
795.32	23.622
795.62	13.725
795.93	22.549
796.23	22.222
796.54	22.093
796.85	21.739
797.15	34.375
797.46	38.983
797.76	34.426
798.07	28.947
798.37	32.258
798.68	12.500
798.99	43.077
799.29	25.758
799.60	18.841
799.90	28.571
800.21	15.789
800.51	22.414
800.82	22.642
801.12	9.804
801.43	35.484
801.73	32.258
802.04	28.000
802.34	30.189
802.65	28.947
802.95	34.545
803.26	35.849
803.56	26.230
803.87	30.000
804.17	-1.852
804.48	30.769
804.78	8.163
805.09	31.915
805.39	16.949
805.70	2.083
806.00	19.643
806.30	16.949
806.61	23.077
806.91	23.077
807.22	25.000
807.52	22.857
807.83	12.069
808.13	29.114
808.43	29.508
808.74	26.230
809.04	39.189
809.35	25.926
809.65	19.643
809.95	20.339
810.26	22.449
810.56	30.189
810.86	21.569
811.17	32.432
811.47	7.407
811.77	33.333
812.08	20.455
812.38	37.500
812.69	35.897
812.99	28.571
813.29	39.130
813.59	2.857
813.90	14.286
814.20	10.909
814.50	16.327
814.81	17.647
815.11	2.083
815.41	29.268
815.72	7.692
816.02	42.553
816.32	3.125
816.62	30.303
816.93	-6.061
817.23	18.919
817.53	2.941
817.84	35.000
818.14	0.000
818.44	9.375
818.74	4.762
819.04	-14.286
819.35	45.714
819.65	31.818
819.95	46.154
820.25	38.889
820.56	-24.138
820.86	3.571
821.16	-30.435
821.46	0.000
821.76	25.926
822.07	8.696
822.37	6.122
822.67	9.302
822.97	21.739
823.27	-11.538
823.57	-7.407
823.88	39.286
824.18	25.641
824.48	42.857
824.78	33.333
825.08	-60.000
825.38	12.500
825.69	-44.444
825.99	3.704
826.29	31.111
826.59	3.704
826.89	-3.704
827.19	-17.857
827.49	-13.636
827.79	-40.909
828.09	-13.636
828.39	-52.174
828.70	18.519
829.00	7.143
829.30	16.667
829.60	25.806
829.90	3.846
830.20	25.641
830.50	-22.727
830.80	23.810
831.10	-5.556
831.40	-57.143
831.70	14.815
832.00	29.412
832.30	39.130
832.60	29.167
832.90	-54.545
833.20	38.889
833.50	3.125
833.80	15.385
834.10	84.000
834.40	20.833
834.70	0.000
835.00	11.538
835.30	40.000
835.60	-60.000
835.90	5.000
836.20	14.286
836.50	47.826
836.80	-38.889
837.10	-26.667
837.40	-140.000
837.70	-8.696
838.00	-35.714
838.30	1100.000
838.60	28.000
838.90	-100.000
839.19	-66.667
839.49	-150.000
839.79	41.176
840.09	-88.889
840.39	42.857
840.69	-22.222
840.99	-58.333
841.29	-17.241
841.59	-40.000
841.88	45.455
842.18	-66.667
842.48	37.500
842.78	26.923
843.08	-17.647
843.38	20.000
843.68	-23.077
843.97	-58.824
844.27	20.000
844.57	8.333
844.87	100.000
845.17	-68.421
845.47	-55.556
845.76	30.556
846.06	-42.857
846.36	28.571
846.66	-133.333
846.96	15.000
847.25	-160.000
847.55	-112.500
847.85	20.000
848.15	-50.000
848.44	5.263
848.74	20.000
849.04	21.053
849.34	500.000
849.63	-33.333
849.93	-11.765
850.23	-27.273
850.53	66.667
850.82	-40.000
851.12	-44.444
851.42	-228.571
851.71	40.000
852.01	57.143
852.31	66.667
852.61	46.154
852.90	-160.000
853.20	-100.000
853.50	-111.111
853.79	-30.000
854.09	-45.000
854.39	-15.789
854.68	-15.000
854.98	-150.000
855.28	55.556
855.57	-92.857
855.87	-42.105
856.17	-62.500
856.46	-7.692
856.76	6.667
857.05	-87.500
857.35	-12.500
857.65	-72.222
857.94	25.000
858.24	-21.739
858.53	-10.000
858.83	100.000
859.13	-90.909
859.42	-140.000
859.72	133.333
860.01	23.077
860.31	-60.000
860.60	-162.500
860.90	-150.000
861.20	-183.333
861.49	-175.000
861.79	650.000
862.08	22.581
862.38	-21.053
862.67	38.462
862.97	-70.000
863.26	8.333
863.56	-4.348
863.85	-183.333
864.15	14.286
864.44	68.750
864.74	-58.333
865.03	0.000
865.33	-333.333
865.62	-500.000
865.92	-350.000
866.21	83.333
866.51	27.273
866.80	-400.000
867.10	-185.714
867.39	-44.444
867.69	-58.333
867.98	100.000
868.27	-225.000
868.57	275.000
868.86	26.667
869.16	46.154
869.45	250.000
869.75	-50.000
870.04	-91.667
870.33	0.000
870.63	-57.143
870.92	78.261
871.22	-50.000
871.51	420.000
871.80	37.500
872.10	-200.000
>>>>>End Processed Spectral Data<<<<<
