SpectraSuite Data File
++++++++++++++++++++++++++++++++++++
Date: Tue May 12 19:40:48 PDT 2015
User: schluterlab
Dark Spectrum Present: Yes
Reference Spectrum Present: Yes
Number of Sampled Component Spectra: 1
Spectrometers: USB2E3373
Integration Time (usec): 3000 (USB2E3373)
Spectra Averaged: 3 (USB2E3373)
Boxcar Smoothing: 0 (USB2E3373)
Correct for Electrical Dark: No (USB2E3373)
Strobe/Lamp Enabled: No (USB2E3373)
Correct for Detector Non-linearity: No (USB2E3373)
Correct for Stray Light: No (USB2E3373)
Number of Pixels in Processed Spectrum: 2048
>>>>>Begin Processed Spectral Data<<<<<
178.53	0.000
178.91	-110.000
179.29	66.667
179.67	300.000
180.04	0.000
180.42	-20.000
180.80	-200.000
181.18	350.000
181.56	-150.000
181.94	216.667
182.31	1500.000
182.69	-71.429
183.07	0.000
183.45	150.000
183.83	240.000
184.20	183.333
184.58	200.000
184.96	150.000
185.34	-566.667
185.72	-35.714
186.09	-16.667
186.47	-1500.000
186.85	-320.000
187.23	183.333
187.61	-157.143
187.98	-360.000
188.36	550.000
188.74	-50.000
189.12	-33.333
189.49	-40.000
189.87	100.000
190.25	166.667
190.63	266.667
191.00	40.000
191.38	-266.667
191.76	220.000
192.14	-57.143
192.51	50.000
192.89	0.000
193.27	-60.000
193.65	-366.667
194.02	0.000
194.40	700.000
194.78	12.500
195.15	-242.857
195.53	133.333
195.91	260.000
196.29	-400.000
196.66	166.667
197.04	-128.571
197.42	140.000
197.79	-87.500
198.17	-50.000
198.55	200.000
198.92	0.000
199.30	450.000
199.68	-100.000
200.05	-600.000
200.43	-5.556
200.81	-100.000
201.18	316.667
201.56	-100.000
201.94	-700.000
202.31	-91.667
202.69	-100.000
203.07	-8.333
203.44	-275.000
203.82	0.000
204.19	200.000
204.57	-166.667
204.95	172.727
205.32	180.000
205.70	150.000
206.08	-700.000
206.45	60.000
206.83	900.000
207.20	-100.000
207.58	15.385
207.96	200.000
208.33	233.333
208.71	466.667
209.08	700.000
209.46	-33.333
209.84	633.333
210.21	-266.667
210.59	450.000
210.96	100.000
211.34	75.000
211.71	650.000
212.09	40.000
212.46	-50.000
212.84	-175.000
213.22	57.143
213.59	-112.500
213.97	0.000
214.34	-200.000
214.72	-200.000
215.09	900.000
215.47	13.333
215.84	-50.000
216.22	-300.000
216.59	1000.000
216.97	-8.333
217.34	-16.667
217.72	22.222
218.09	425.000
218.47	-63.158
218.84	-87.500
219.22	-7.143
219.59	-30.000
219.97	10.000
220.34	233.333
220.72	145.455
221.09	-750.000
221.47	0.000
221.84	-100.000
222.22	-500.000
222.59	-75.000
222.97	-13.043
223.34	120.000
223.72	300.000
224.09	-100.000
224.46	153.846
224.84	-6.667
225.21	-300.000
225.59	-200.000
225.96	85.000
226.34	233.333
226.71	170.000
227.08	-61.538
227.46	-171.429
227.83	-58.333
228.21	-700.000
228.58	150.000
228.95	-26.316
229.33	-18.750
229.70	-166.667
230.08	-33.333
230.45	-466.667
230.82	-500.000
231.20	19.048
231.57	-160.000
231.95	-133.333
232.32	111.111
232.69	-750.000
233.07	68.750
233.44	25.000
233.81	22.581
234.19	-60.000
234.56	-50.000
234.93	-100.000
235.31	25.926
235.68	-22.222
236.05	-11.538
236.43	31.579
236.80	4.545
237.17	-64.286
237.55	-40.000
237.92	32.558
238.29	12.903
238.67	21.429
239.04	42.857
239.41	9.804
239.79	22.000
240.16	7.500
240.53	-5.172
240.91	5.479
241.28	11.268
241.65	3.125
242.02	14.035
242.40	9.333
242.77	5.263
243.14	12.941
243.51	15.054
243.89	4.762
244.26	20.370
244.63	19.388
245.00	9.821
245.38	-2.521
245.75	8.475
246.12	20.312
246.49	4.800
246.87	1.639
247.24	8.451
247.61	19.205
247.98	14.045
248.36	13.836
248.73	16.477
249.10	9.444
249.47	5.208
249.84	11.168
250.22	10.417
250.59	13.483
250.96	17.273
251.33	21.226
251.70	13.761
252.08	19.913
252.45	15.102
252.82	10.549
253.19	12.062
253.56	15.294
253.94	12.602
254.31	19.065
254.68	13.889
255.05	14.570
255.42	15.273
255.79	18.543
256.16	14.583
256.54	16.970
256.91	18.269
257.28	15.909
257.65	13.115
258.02	16.517
258.39	16.918
258.76	18.349
259.14	16.471
259.51	17.183
259.88	17.579
260.25	14.205
260.62	10.674
260.99	13.928
261.36	13.793
261.73	16.267
262.10	14.714
262.47	14.876
262.85	15.424
263.22	12.097
263.59	17.962
263.96	14.883
264.33	14.286
264.70	14.005
265.07	13.054
265.44	17.799
265.81	19.277
266.18	14.286
266.55	15.000
266.92	18.750
267.29	15.333
267.66	15.227
268.03	15.699
268.40	14.188
268.77	17.372
269.14	14.916
269.51	16.290
269.88	13.889
270.25	13.502
270.62	15.546
270.99	13.263
271.36	14.128
271.73	16.042
272.10	16.183
272.47	14.800
272.84	14.437
273.21	12.526
273.58	15.102
273.95	16.335
274.32	17.988
274.69	15.656
275.06	16.510
275.43	13.400
275.80	15.488
276.17	14.427
276.54	17.110
276.91	18.234
277.28	17.215
277.65	14.367
278.02	14.773
278.39	17.967
278.76	16.387
279.13	15.742
279.50	14.079
279.87	16.981
280.23	14.754
280.60	11.837
280.97	15.114
281.34	16.271
281.71	14.565
282.08	15.385
282.45	15.344
282.82	14.646
283.19	13.636
283.56	15.700
283.92	15.482
284.29	17.766
284.66	15.044
285.03	12.178
285.40	16.333
285.77	15.599
286.14	13.788
286.51	13.505
286.87	15.397
287.24	12.500
287.61	13.272
287.98	14.867
288.35	15.814
288.72	16.361
289.08	14.308
289.45	13.573
289.82	13.354
290.19	14.091
290.56	14.906
290.93	15.066
291.29	13.901
291.66	13.062
292.03	14.347
292.40	13.813
292.77	12.391
293.13	13.216
293.50	13.912
293.87	14.702
294.24	13.904
294.60	14.891
294.97	11.773
295.34	11.644
295.71	14.008
296.08	13.661
296.44	13.702
296.81	12.031
297.18	12.419
297.55	11.809
297.91	13.452
298.28	12.404
298.65	10.996
299.02	13.070
299.38	12.245
299.75	12.741
300.12	12.470
300.48	12.793
300.85	11.369
301.22	13.582
301.59	11.436
301.95	13.659
302.32	12.637
302.69	10.226
303.05	10.272
303.42	11.473
303.79	11.236
304.15	11.665
304.52	12.291
304.89	9.921
305.25	11.468
305.62	12.386
305.99	11.758
306.35	10.515
306.72	12.092
307.09	12.187
307.45	9.924
307.82	12.166
308.19	13.531
308.55	12.975
308.92	11.123
309.29	11.506
309.65	12.590
310.02	13.312
310.38	11.407
310.75	11.988
311.12	12.411
311.48	12.230
311.85	11.651
312.22	12.500
312.58	13.092
312.95	13.142
313.31	11.701
313.68	12.214
314.05	14.002
314.41	13.261
314.78	12.563
315.14	14.006
315.51	14.101
315.87	14.160
316.24	13.551
316.61	15.631
316.97	13.529
317.34	14.641
317.70	14.099
318.07	14.754
318.43	15.595
318.80	14.663
319.16	15.098
319.53	15.755
319.89	16.572
320.26	17.404
320.62	17.151
320.99	18.061
321.35	16.996
321.72	19.293
322.08	17.525
322.45	19.625
322.81	20.000
323.18	19.367
323.54	21.896
323.91	20.398
324.27	20.154
324.64	21.837
325.00	21.019
325.37	22.842
325.73	21.715
326.10	22.067
326.46	22.937
326.83	23.395
327.19	22.533
327.56	25.111
327.92	23.785
328.29	23.656
328.65	27.024
329.01	25.413
329.38	26.171
329.74	24.698
330.11	25.629
330.47	26.723
330.84	26.128
331.20	27.634
331.56	28.019
331.93	26.075
332.29	27.660
332.66	28.391
333.02	28.227
333.38	27.574
333.75	28.728
334.11	28.481
334.48	27.639
334.84	27.793
335.20	28.290
335.57	29.609
335.93	29.581
336.29	29.342
336.66	28.597
337.02	29.193
337.38	29.245
337.75	29.091
338.11	30.264
338.47	29.898
338.84	30.571
339.20	29.881
339.56	28.239
339.93	29.189
340.29	29.828
340.65	29.680
341.02	29.318
341.38	28.597
341.74	30.961
342.11	29.973
342.47	29.720
342.83	28.101
343.20	29.708
343.56	29.983
343.92	29.134
344.28	29.931
344.65	30.651
345.01	29.268
345.37	30.598
345.73	30.146
346.10	31.547
346.46	31.320
346.82	30.416
347.19	31.287
347.55	31.293
347.91	29.402
348.27	31.171
348.63	30.683
349.00	31.636
349.36	31.080
349.72	30.706
350.08	29.705
350.45	30.431
350.81	30.306
351.17	30.231
351.53	30.596
351.89	30.397
352.26	29.431
352.62	31.071
352.98	31.715
353.34	31.078
353.70	30.288
354.07	31.878
354.43	29.800
354.79	31.311
355.15	31.073
355.51	31.540
355.87	30.391
356.24	31.127
356.60	31.052
356.96	31.359
357.32	30.617
357.68	30.708
358.04	29.903
358.40	31.588
358.77	30.201
359.13	30.843
359.49	29.680
359.85	31.974
360.21	30.690
360.57	30.463
360.93	31.275
361.29	31.542
361.66	30.836
362.02	31.711
362.38	31.391
362.74	30.131
363.10	30.920
363.46	31.678
363.82	31.240
364.18	30.356
364.54	30.687
364.90	30.815
365.26	29.955
365.62	29.977
365.98	31.784
366.35	30.711
366.71	29.724
367.07	30.849
367.43	29.531
367.79	30.087
368.15	30.393
368.51	30.262
368.87	30.617
369.23	31.567
369.59	30.000
369.95	30.328
370.31	30.303
370.67	30.376
371.03	31.037
371.39	30.665
371.75	29.866
372.11	30.519
372.47	29.399
372.83	31.118
373.19	30.120
373.55	30.614
373.91	30.227
374.27	31.935
374.63	30.339
374.99	29.429
375.35	30.261
375.71	31.062
376.07	30.671
376.42	31.743
376.78	31.150
377.14	30.028
377.50	29.549
377.86	29.596
378.22	29.789
378.58	30.263
378.94	29.797
379.30	30.824
379.66	30.218
380.02	30.515
380.38	30.344
380.74	29.956
381.09	30.940
381.45	30.794
381.81	29.847
382.17	29.772
382.53	29.980
382.89	30.340
383.25	29.169
383.61	29.879
383.97	29.760
384.32	30.774
384.68	29.821
385.04	30.236
385.40	30.160
385.76	30.803
386.12	29.769
386.48	30.724
386.83	30.020
387.19	30.715
387.55	29.793
387.91	29.907
388.27	30.646
388.62	30.764
388.98	30.789
389.34	29.538
389.70	29.423
390.06	30.231
390.42	30.088
390.77	29.443
391.13	30.514
391.49	30.189
391.85	30.739
392.20	30.231
392.56	29.862
392.92	30.179
393.28	29.384
393.64	29.702
393.99	30.325
394.35	31.149
394.71	30.397
395.07	29.443
395.42	30.095
395.78	30.444
396.14	30.713
396.50	29.107
396.85	29.941
397.21	29.819
397.57	29.756
397.92	30.598
398.28	30.216
398.64	29.841
399.00	29.600
399.35	28.957
399.71	29.401
400.07	30.204
400.42	30.000
400.78	30.710
401.14	29.924
401.49	28.420
401.85	29.714
402.21	29.695
402.57	29.105
402.92	30.943
403.28	30.234
403.63	29.744
403.99	29.062
404.35	29.936
404.70	29.956
405.06	29.696
405.42	29.603
405.77	29.013
406.13	29.809
406.49	29.211
406.84	30.573
407.20	29.492
407.55	30.060
407.91	29.161
408.27	30.120
408.62	29.260
408.98	30.180
409.34	29.641
409.69	29.565
410.05	29.404
410.40	28.773
410.76	29.078
411.11	29.089
411.47	29.184
411.83	28.525
412.18	28.992
412.54	29.754
412.89	29.275
413.25	30.596
413.60	29.592
413.96	29.061
414.31	28.553
414.67	30.317
415.03	28.423
415.38	28.900
415.74	30.154
416.09	29.152
416.45	29.299
416.80	28.999
417.16	29.972
417.51	28.591
417.87	30.438
418.22	30.348
418.58	28.680
418.93	30.303
419.29	29.240
419.64	29.945
420.00	29.666
420.35	28.939
420.71	30.218
421.06	30.175
421.42	29.172
421.77	30.146
422.12	28.116
422.48	28.726
422.83	29.483
423.19	30.176
423.54	28.711
423.90	29.604
424.25	29.305
424.61	29.032
424.96	29.853
425.31	29.771
425.67	30.121
426.02	29.689
426.38	29.601
426.73	28.598
427.09	28.562
427.44	29.877
427.79	31.188
428.15	29.740
428.50	30.465
428.85	29.185
429.21	31.022
429.56	29.337
429.92	30.719
430.27	28.907
430.62	29.800
430.98	29.500
431.33	30.367
431.68	29.705
432.04	30.783
432.39	30.006
432.74	29.412
433.10	30.443
433.45	30.082
433.80	31.131
434.16	30.437
434.51	30.156
434.86	29.970
435.22	29.104
435.57	31.464
435.92	29.474
436.28	29.950
436.63	30.590
436.98	30.062
437.34	31.542
437.69	30.062
438.04	30.349
438.39	31.789
438.75	29.662
439.10	30.952
439.45	31.130
439.81	29.524
440.16	30.427
440.51	30.793
440.86	31.124
441.22	30.375
441.57	31.168
441.92	30.867
442.27	31.486
442.63	31.038
442.98	30.990
443.33	30.905
443.68	30.616
444.03	31.082
444.39	31.286
444.74	30.567
445.09	31.818
445.44	30.787
445.79	31.446
446.15	31.603
446.50	31.868
446.85	31.463
447.20	31.127
447.55	30.657
447.91	32.158
448.26	31.929
448.61	31.480
448.96	31.342
449.31	31.646
449.66	31.719
450.02	31.065
450.37	32.503
450.72	31.358
451.07	32.960
451.42	32.675
451.77	31.526
452.12	31.955
452.47	33.130
452.83	32.939
453.18	32.275
453.53	32.789
453.88	33.248
454.23	32.013
454.58	34.269
454.93	32.698
455.28	34.148
455.63	32.554
455.98	33.439
456.34	32.954
456.69	32.431
457.04	32.480
457.39	33.146
457.74	32.933
458.09	31.798
458.44	33.354
458.79	31.979
459.14	32.856
459.49	32.739
459.84	33.294
460.19	32.645
460.54	32.323
460.89	32.588
461.24	33.247
461.59	32.808
461.94	33.333
462.29	32.644
462.64	33.983
462.99	33.938
463.34	33.993
463.69	35.117
464.04	34.189
464.39	34.469
464.74	32.122
465.09	33.119
465.44	33.773
465.79	32.371
466.14	33.592
466.49	34.146
466.84	33.354
467.19	33.723
467.54	32.825
467.89	33.965
468.24	32.955
468.59	32.984
468.94	33.894
469.29	33.287
469.64	33.990
469.99	33.381
470.34	33.098
470.68	33.846
471.03	33.504
471.38	32.984
471.73	34.738
472.08	34.733
472.43	34.371
472.78	34.010
473.13	34.667
473.48	34.440
473.83	35.139
474.17	34.089
474.52	33.891
474.87	33.460
475.22	33.418
475.57	34.313
475.92	33.769
476.27	33.454
476.61	34.102
476.96	34.618
477.31	35.046
477.66	34.108
478.01	34.197
478.36	34.040
478.70	34.254
479.05	34.359
479.40	33.444
479.75	34.997
480.10	35.065
480.45	34.136
480.79	34.873
481.14	34.634
481.49	34.242
481.84	33.788
482.19	34.537
482.53	33.971
482.88	33.808
483.23	34.372
483.58	34.406
483.92	34.523
484.27	35.044
484.62	35.078
484.97	32.865
485.31	33.217
485.66	32.071
486.01	31.042
486.36	30.983
486.70	31.131
487.05	31.608
487.40	31.770
487.75	32.093
488.09	32.018
488.44	33.133
488.79	32.951
489.13	33.666
489.48	34.011
489.83	34.489
490.17	34.177
490.52	34.273
490.87	35.658
491.22	34.566
491.56	34.338
491.91	34.137
492.26	35.696
492.60	35.000
492.95	35.934
493.30	34.971
493.64	35.142
493.99	34.805
494.34	35.783
494.68	33.598
495.03	34.280
495.37	34.972
495.72	34.494
496.07	34.686
496.41	34.042
496.76	34.479
497.11	34.663
497.45	34.807
497.80	34.683
498.14	35.216
498.49	35.985
498.84	34.591
499.18	35.496
499.53	34.839
499.87	35.535
500.22	35.169
500.56	35.583
500.91	35.711
501.26	35.223
501.60	34.557
501.95	34.545
502.29	35.557
502.64	34.644
502.98	35.033
503.33	33.949
503.67	35.375
504.02	34.270
504.36	34.617
504.71	35.638
505.06	34.547
505.40	34.853
505.75	34.387
506.09	35.103
506.44	34.388
506.78	33.672
507.13	35.342
507.47	36.177
507.82	36.384
508.16	35.635
508.51	35.886
508.85	34.725
509.19	34.997
509.54	35.751
509.88	36.191
510.23	34.663
510.57	35.889
510.92	36.735
511.26	35.037
511.61	35.731
511.95	36.322
512.30	36.000
512.64	34.956
512.98	36.031
513.33	35.522
513.67	34.970
514.02	35.877
514.36	35.943
514.70	36.066
515.05	36.951
515.39	35.634
515.74	38.095
516.08	36.284
516.42	36.358
516.77	36.832
517.11	35.352
517.46	36.102
517.80	36.248
518.14	36.496
518.49	36.934
518.83	36.965
519.17	36.311
519.52	36.477
519.86	37.239
520.20	37.070
520.55	37.402
520.89	38.259
521.23	37.275
521.58	36.574
521.92	36.048
522.26	37.388
522.61	37.406
522.95	36.644
523.29	36.167
523.64	36.228
523.98	36.022
524.32	36.902
524.66	36.778
525.01	37.732
525.35	36.662
525.69	36.820
526.04	37.773
526.38	37.971
526.72	36.875
527.06	37.553
527.41	36.712
527.75	37.330
528.09	36.280
528.43	37.491
528.78	36.688
529.12	36.781
529.46	36.346
529.80	35.671
530.15	37.179
530.49	37.169
530.83	37.166
531.17	36.935
531.51	36.617
531.86	35.574
532.20	36.436
532.54	36.403
532.88	37.236
533.22	37.069
533.57	36.759
533.91	36.958
534.25	37.067
534.59	35.351
534.93	35.796
535.27	35.354
535.62	35.179
535.96	35.869
536.30	35.908
536.64	36.123
536.98	36.357
537.32	37.500
537.66	35.484
538.01	36.082
538.35	35.927
538.69	35.173
539.03	35.833
539.37	34.458
539.71	36.739
540.05	36.107
540.39	36.020
540.73	37.216
541.07	35.588
541.42	36.921
541.76	36.403
542.10	36.227
542.44	36.055
542.78	35.850
543.12	34.440
543.46	35.618
543.80	35.454
544.14	36.344
544.48	35.860
544.82	35.131
545.16	35.362
545.50	35.444
545.84	35.406
546.18	34.757
546.52	35.972
546.86	35.960
547.20	35.152
547.54	35.481
547.88	34.473
548.22	34.529
548.56	35.307
548.90	35.018
549.24	36.257
549.58	35.544
549.92	35.038
550.26	35.907
550.60	35.845
550.94	36.984
551.28	35.285
551.62	37.592
551.96	36.422
552.30	34.651
552.64	35.011
552.98	34.918
553.32	34.697
553.66	34.750
554.00	34.981
554.34	36.172
554.68	35.327
555.02	35.079
555.36	33.757
555.69	34.512
556.03	33.999
556.37	34.734
556.71	34.465
557.05	34.141
557.39	35.181
557.73	34.041
558.07	34.742
558.41	34.238
558.75	35.104
559.08	37.106
559.42	34.448
559.76	35.046
560.10	36.430
560.44	35.471
560.78	34.560
561.12	34.485
561.45	34.003
561.79	34.655
562.13	34.322
562.47	34.021
562.81	34.041
563.15	33.384
563.48	33.184
563.82	33.988
564.16	33.962
564.50	32.880
564.84	33.664
565.17	33.190
565.51	33.005
565.85	33.169
566.19	33.612
566.52	34.409
566.86	32.855
567.20	33.333
567.54	32.036
567.88	32.403
568.21	31.008
568.55	31.636
568.89	31.099
569.23	31.024
569.56	30.345
569.90	29.936
570.24	29.590
570.57	29.082
570.91	28.967
571.25	29.855
571.59	28.230
571.92	27.969
572.26	27.584
572.60	28.608
572.93	28.225
573.27	28.034
573.61	27.422
573.95	27.129
574.28	26.483
574.62	26.839
574.96	26.493
575.29	26.433
575.63	26.288
575.97	26.748
576.30	27.444
576.64	26.268
576.98	26.274
577.31	26.213
577.65	26.528
577.98	25.987
578.32	25.917
578.66	25.843
578.99	26.655
579.33	26.515
579.67	26.213
580.00	26.402
580.34	26.335
580.67	26.043
581.01	26.252
581.35	25.539
581.68	25.576
582.02	25.322
582.35	25.132
582.69	25.415
583.02	25.529
583.36	25.754
583.70	26.308
584.03	26.238
584.37	26.806
584.70	26.667
585.04	25.976
585.37	25.530
585.71	25.579
586.04	25.867
586.38	25.906
586.72	26.082
587.05	26.560
587.39	25.983
587.72	26.480
588.06	26.044
588.39	26.088
588.73	26.390
589.06	26.359
589.40	26.646
589.73	26.627
590.07	26.481
590.40	27.442
590.73	27.947
591.07	27.186
591.40	27.775
591.74	26.726
592.07	28.367
592.41	27.460
592.74	27.013
593.08	25.995
593.41	26.191
593.75	26.458
594.08	26.207
594.41	26.752
594.75	26.390
595.08	26.646
595.42	27.037
595.75	26.591
596.09	27.142
596.42	27.104
596.75	27.500
597.09	26.539
597.42	26.889
597.75	27.720
598.09	27.154
598.42	28.159
598.76	27.231
599.09	26.261
599.42	26.042
599.76	26.324
600.09	25.939
600.42	25.508
600.76	25.327
601.09	25.529
601.42	26.731
601.76	25.812
602.09	26.309
602.42	26.574
602.76	26.134
603.09	25.936
603.42	26.363
603.76	26.395
604.09	26.023
604.42	26.320
604.76	26.426
605.09	25.980
605.42	26.398
605.75	25.720
606.09	26.756
606.42	25.766
606.75	26.599
607.09	26.726
607.42	27.031
607.75	26.079
608.08	26.380
608.42	27.110
608.75	26.463
609.08	25.442
609.41	26.387
609.75	25.856
610.08	26.460
610.41	26.667
610.74	27.098
611.07	26.547
611.41	26.338
611.74	27.421
612.07	26.618
612.40	26.797
612.73	27.662
613.07	26.952
613.40	26.509
613.73	26.976
614.06	26.347
614.39	27.534
614.72	27.745
615.06	26.866
615.39	26.559
615.72	26.260
616.05	27.072
616.38	26.987
616.71	26.741
617.05	27.324
617.38	27.548
617.71	26.911
618.04	26.347
618.37	26.750
618.70	27.785
619.03	29.152
619.36	28.940
619.69	26.827
620.03	28.452
620.36	28.193
620.69	28.307
621.02	28.424
621.35	29.191
621.68	30.153
622.01	28.966
622.34	29.229
622.67	28.752
623.00	28.665
623.33	28.504
623.66	29.482
623.99	28.389
624.32	28.594
624.65	28.203
624.99	27.109
625.32	28.515
625.65	27.222
625.98	29.917
626.31	30.823
626.64	30.450
626.97	29.963
627.30	30.093
627.63	30.326
627.96	29.236
628.29	30.306
628.62	29.691
628.95	31.679
629.28	30.888
629.61	31.243
629.94	30.602
630.26	31.485
630.59	32.461
630.92	29.821
631.25	30.168
631.58	31.512
631.91	29.954
632.24	31.953
632.57	31.629
632.90	34.317
633.23	34.194
633.56	33.333
633.89	32.850
634.22	31.923
634.55	32.326
634.88	33.333
635.20	33.014
635.53	36.872
635.86	32.745
636.19	32.606
636.52	33.154
636.85	29.726
637.18	33.420
637.51	34.959
637.83	33.799
638.16	32.575
638.49	33.429
638.82	33.896
639.15	34.857
639.48	34.207
639.81	34.277
640.13	31.853
640.46	33.386
640.79	32.713
641.12	33.178
641.45	34.370
641.77	32.006
642.10	35.993
642.43	32.828
642.76	37.097
643.09	36.851
643.41	33.871
643.74	33.333
644.07	34.039
644.40	35.379
644.73	34.622
645.05	37.023
645.38	36.923
645.71	37.977
646.04	37.918
646.36	32.386
646.69	36.750
647.02	35.547
647.35	38.400
647.67	37.475
648.00	36.117
648.33	32.370
648.66	35.436
648.98	32.542
649.31	35.628
649.64	31.670
649.96	32.264
650.29	30.796
650.62	32.282
650.94	34.011
651.27	32.755
651.60	33.270
651.92	34.542
652.25	35.182
652.58	32.316
652.90	32.028
653.23	34.552
653.56	32.465
653.88	34.307
654.21	36.106
654.54	33.396
654.86	33.094
655.19	30.645
655.52	30.067
655.84	20.604
656.17	19.911
656.49	27.372
656.82	31.493
657.15	25.200
657.47	19.036
657.80	14.069
658.13	11.786
658.45	19.903
658.78	20.048
659.10	19.681
659.43	20.585
659.75	20.247
660.08	22.346
660.41	24.284
660.73	27.701
661.06	31.455
661.38	31.452
661.71	34.573
662.03	37.269
662.36	34.368
662.68	33.573
663.01	38.942
663.33	36.557
663.66	37.321
663.98	40.587
664.31	37.317
664.63	33.028
664.96	36.817
665.28	35.461
665.61	33.879
665.93	34.332
666.26	35.982
666.58	37.844
666.91	36.534
667.23	33.744
667.56	34.815
667.88	38.847
668.21	31.980
668.53	36.294
668.86	38.520
669.18	33.503
669.50	39.589
669.83	36.750
670.15	35.250
670.48	35.338
670.80	36.294
671.13	33.494
671.45	34.439
671.77	35.024
672.10	31.648
672.42	31.673
672.75	30.097
673.07	29.346
673.39	31.323
673.72	34.091
674.04	32.340
674.37	34.411
674.69	32.009
675.01	32.326
675.34	32.353
675.66	31.667
675.98	34.848
676.31	32.242
676.63	33.247
676.95	33.573
677.28	33.168
677.60	34.085
677.92	33.835
678.25	28.770
678.57	29.930
678.89	30.275
679.22	34.633
679.54	28.953
679.86	32.548
680.18	30.962
680.51	28.542
680.83	28.542
681.15	32.680
681.48	33.404
681.80	28.478
682.12	33.405
682.44	28.448
682.77	29.773
683.09	33.824
683.41	35.088
683.73	31.910
684.06	29.695
684.38	30.935
684.70	33.718
685.02	30.519
685.34	26.778
685.67	27.273
685.99	29.341
686.31	28.731
686.63	31.068
686.96	28.455
687.28	29.774
687.60	27.310
687.92	31.013
688.24	29.895
688.56	28.791
688.89	31.963
689.21	27.907
689.53	32.225
689.85	33.924
690.17	31.127
690.49	31.059
690.82	29.484
691.14	32.115
691.46	30.750
691.78	31.818
692.10	30.275
692.42	33.028
692.74	30.806
693.06	30.843
693.39	29.803
693.71	27.907
694.03	28.986
694.35	30.446
694.67	32.316
694.99	31.806
695.31	29.745
695.63	28.649
695.95	30.337
696.27	32.295
696.59	33.531
696.91	31.054
697.23	32.665
697.56	29.534
697.88	27.635
698.20	26.877
698.52	29.087
698.84	29.825
699.16	27.968
699.48	32.723
699.80	26.374
700.12	26.722
700.44	28.909
700.76	31.546
701.08	24.444
701.40	33.224
701.72	33.667
702.04	34.014
702.36	26.885
702.68	33.221
703.00	31.230
703.32	26.946
703.64	34.385
703.96	36.076
704.28	29.577
704.60	31.849
704.91	30.921
705.23	30.175
705.55	33.086
705.87	31.295
706.19	38.247
706.51	34.375
706.83	31.502
707.15	30.169
707.47	29.940
707.79	24.928
708.11	29.101
708.43	26.667
708.74	27.869
709.06	30.061
709.38	29.377
709.70	28.571
710.02	29.720
710.34	27.305
710.66	29.963
710.98	31.469
711.29	34.708
711.61	31.915
711.93	34.082
712.25	32.830
712.57	32.422
712.89	33.061
713.20	27.419
713.52	28.455
713.84	28.102
714.16	33.784
714.48	34.471
714.80	29.966
715.11	31.271
715.43	30.717
715.75	30.877
716.07	28.364
716.39	33.106
716.70	34.400
717.02	29.839
717.34	34.199
717.66	30.000
717.97	31.019
718.29	30.667
718.61	30.180
718.93	28.571
719.24	29.707
719.56	33.482
719.88	30.588
720.20	29.487
720.51	30.263
720.83	38.075
721.15	30.204
721.46	25.738
721.78	29.870
722.10	29.070
722.42	28.696
722.73	24.434
723.05	28.111
723.37	28.054
723.68	35.071
724.00	25.000
724.32	31.776
724.63	27.602
724.95	24.658
725.27	31.455
725.58	33.333
725.90	26.126
726.22	27.511
726.53	28.689
726.85	30.000
727.16	31.579
727.48	33.871
727.80	26.941
728.11	23.111
728.43	29.218
728.74	23.246
729.06	26.638
729.38	31.395
729.69	25.200
730.01	28.452
730.32	23.506
730.64	26.154
730.96	22.780
731.27	27.027
731.59	25.253
731.90	22.697
732.22	25.249
732.53	24.211
732.85	18.662
733.16	29.304
733.48	24.254
733.80	28.000
734.11	25.177
734.43	29.603
734.74	22.118
735.06	21.543
735.37	23.323
735.69	23.592
736.00	26.296
736.32	25.524
736.63	26.667
736.95	19.455
737.26	26.087
737.58	26.642
737.89	26.038
738.21	24.809
738.52	29.508
738.83	26.496
739.15	25.455
739.46	20.721
739.78	23.552
740.09	19.048
740.41	26.894
740.72	23.904
741.04	26.087
741.35	28.700
741.66	32.796
741.98	23.980
742.29	27.979
742.61	15.607
742.92	25.980
743.23	32.338
743.55	24.870
743.86	30.918
744.18	28.500
744.49	33.333
744.80	30.108
745.12	23.077
745.43	29.412
745.74	25.134
746.06	36.207
746.37	25.000
746.68	31.892
747.00	23.757
747.31	29.319
747.62	28.947
747.94	31.132
748.25	28.571
748.56	27.273
748.88	21.858
749.19	30.052
749.50	27.059
749.82	32.500
750.13	27.184
750.44	28.326
750.75	25.200
751.07	23.013
751.38	19.531
751.69	22.619
752.01	26.050
752.32	27.273
752.63	22.271
752.94	22.400
753.26	21.918
753.57	20.379
753.88	24.651
754.19	18.943
754.51	23.849
754.82	21.250
755.13	25.221
755.44	23.810
755.75	24.096
756.07	21.459
756.38	23.013
756.69	24.528
757.00	23.050
757.31	24.221
757.63	22.876
757.94	20.303
758.25	22.321
758.56	21.351
758.87	22.619
759.18	24.299
759.50	25.979
759.81	21.236
760.12	25.979
760.43	22.924
760.74	21.856
761.05	22.756
761.36	24.332
761.67	21.277
761.99	25.418
762.30	24.727
762.61	26.829
762.92	22.222
763.23	20.930
763.54	22.335
763.85	21.267
764.16	24.783
764.47	23.478
764.78	25.806
765.10	21.260
765.41	21.405
765.72	21.070
766.03	24.749
766.34	26.894
766.65	22.656
766.96	23.111
767.27	30.726
767.58	30.818
767.89	29.221
768.20	19.595
768.51	25.287
768.82	23.750
769.13	28.241
769.44	20.755
769.75	19.608
770.06	16.505
770.37	20.745
770.68	22.564
770.99	22.335
771.30	18.557
771.61	16.143
771.92	28.774
772.23	17.308
772.54	24.118
772.85	15.753
773.16	23.226
773.47	26.752
773.78	29.940
774.09	21.053
774.39	27.941
774.70	18.045
775.01	26.154
775.32	23.016
775.63	25.984
775.94	12.264
776.25	17.778
776.56	28.182
776.87	26.496
777.18	30.000
777.48	12.500
777.79	11.111
778.10	20.755
778.41	25.490
778.72	26.415
779.03	28.070
779.34	18.487
779.65	18.310
779.95	25.180
780.26	16.935
780.57	21.739
780.88	19.266
781.19	32.407
781.50	18.033
781.80	23.358
782.11	20.513
782.42	17.931
782.73	23.077
783.04	21.600
783.34	17.600
783.65	25.203
783.96	16.393
784.27	16.807
784.57	14.953
784.88	27.679
785.19	25.773
785.50	27.368
785.81	23.000
786.11	15.842
786.42	2.353
786.73	20.833
787.04	21.429
787.34	28.704
787.65	24.528
787.96	9.278
788.26	24.752
788.57	16.522
788.88	11.009
789.19	13.223
789.49	15.652
789.80	19.828
790.11	10.976
790.41	16.854
790.72	1.163
791.03	16.279
791.33	15.584
791.64	24.390
791.95	3.659
792.25	14.458
792.56	4.938
792.87	21.127
793.17	27.711
793.48	12.941
793.79	18.750
794.09	3.333
794.40	19.565
794.70	22.609
795.01	16.514
795.32	11.811
795.62	23.529
795.93	17.647
796.23	12.121
796.54	22.093
796.85	13.043
797.15	7.813
797.46	5.085
797.76	36.066
798.07	18.421
798.37	17.742
798.68	6.250
798.99	21.538
799.29	6.061
799.60	18.841
799.90	18.571
800.21	1.754
800.51	29.310
800.82	16.981
801.12	7.843
801.43	16.129
801.73	12.903
802.04	18.000
802.34	13.208
802.65	2.632
802.95	40.000
803.26	28.302
803.56	14.754
803.87	6.000
804.17	-9.259
804.48	23.077
804.78	10.204
805.09	40.426
805.39	30.508
805.70	2.083
806.00	14.286
806.30	16.949
806.61	18.462
806.91	4.615
807.22	-2.632
807.52	5.714
807.83	-12.069
808.13	21.519
808.43	8.197
808.74	31.148
809.04	14.865
809.35	9.259
809.65	8.929
809.95	23.729
810.26	14.286
810.56	28.302
810.86	25.490
811.17	27.027
811.47	18.519
811.77	25.490
812.08	4.545
812.38	12.500
812.69	-7.692
812.99	35.714
813.29	10.870
813.59	0.000
813.90	23.810
814.20	0.000
814.50	14.286
814.81	0.000
815.11	27.083
815.41	29.268
815.72	3.846
816.02	19.149
816.32	31.250
816.62	12.121
816.93	6.061
817.23	5.405
817.53	5.882
817.84	37.500
818.14	0.000
818.44	-12.500
818.74	-38.095
819.04	11.429
819.35	25.714
819.65	25.000
819.95	15.385
820.25	-22.222
820.56	-24.138
820.86	-17.857
821.16	-4.348
821.46	-19.048
821.76	11.111
822.07	0.000
822.37	-8.163
822.67	-16.279
822.97	26.087
823.27	3.846
823.57	25.926
823.88	7.143
824.18	0.000
824.48	21.429
824.78	9.091
825.08	-80.000
825.38	30.000
825.69	-22.222
825.99	0.000
826.29	44.444
826.59	-25.926
826.89	14.815
827.19	-3.571
827.49	9.091
827.79	-68.182
828.09	22.727
828.39	-8.696
828.70	0.000
829.00	10.714
829.30	35.714
829.60	6.452
829.90	0.000
830.20	12.821
830.50	36.364
830.80	23.810
831.10	-11.111
831.40	-57.143
831.70	-40.741
832.00	-11.765
832.30	39.130
832.60	-16.667
832.90	-54.545
833.20	-38.889
833.50	0.000
833.80	0.000
834.10	28.000
834.40	-33.333
834.70	9.091
835.00	38.462
835.30	15.000
835.60	-60.000
835.90	30.000
836.20	-78.571
836.50	-4.348
836.80	-22.222
837.10	73.333
837.40	-60.000
837.70	17.391
838.00	35.714
838.30	1000.000
838.60	68.000
838.90	-100.000
839.19	55.556
839.49	-300.000
839.79	-70.588
840.09	-122.222
840.39	21.429
840.69	-22.222
840.99	-83.333
841.29	-34.483
841.59	-80.000
841.88	54.545
842.18	-100.000
842.48	37.500
842.78	-15.385
843.08	-17.647
843.38	-25.000
843.68	-38.462
843.97	-64.706
844.27	0.000
844.57	16.667
844.87	-18.182
845.17	-84.211
845.47	-16.667
845.76	25.000
846.06	-9.524
846.36	21.429
846.66	-222.222
846.96	-55.000
847.25	-100.000
847.55	-137.500
847.85	-13.333
848.15	-75.000
848.44	-42.105
848.74	20.000
849.04	-21.053
849.34	66.667
849.63	-33.333
849.93	76.471
850.23	-27.273
850.53	-66.667
850.82	40.000
851.12	-77.778
851.42	28.571
851.71	100.000
852.01	-64.286
852.31	-133.333
852.61	-38.462
852.90	-200.000
853.20	-144.444
853.50	-33.333
853.79	-30.000
854.09	-35.000
854.39	-21.053
854.68	20.000
854.98	-150.000
855.28	22.222
855.57	-50.000
855.87	-21.053
856.17	-68.750
856.46	15.385
856.76	-33.333
857.05	6.250
857.35	45.833
857.65	-5.556
857.94	37.500
858.24	34.783
858.53	-100.000
858.83	-400.000
859.13	-127.273
859.42	-70.000
859.72	83.333
860.01	15.385
860.31	70.000
860.60	-100.000
860.90	-25.000
861.20	-166.667
861.49	-425.000
861.79	100.000
862.08	41.935
862.38	-31.579
862.67	-61.538
862.97	-110.000
863.26	41.667
863.56	0.000
863.85	-100.000
864.15	-14.286
864.44	56.250
864.74	-66.667
865.03	-44.444
865.33	-200.000
865.62	-1200.000
865.92	-450.000
866.21	-50.000
866.51	-27.273
866.80	-366.667
867.10	-114.286
867.39	-100.000
867.69	-150.000
867.98	120.000
868.27	-250.000
868.57	400.000
868.86	-53.333
869.16	15.385
869.45	750.000
869.75	-100.000
870.04	-175.000
870.33	29.412
870.63	-185.714
870.92	21.739
871.22	-37.500
871.51	440.000
871.80	-18.750
872.10	-66.667
>>>>>End Processed Spectral Data<<<<<
