SpectraSuite Data File
++++++++++++++++++++++++++++++++++++
Date: Tue May 12 19:40:59 PDT 2015
User: schluterlab
Dark Spectrum Present: Yes
Reference Spectrum Present: Yes
Number of Sampled Component Spectra: 1
Spectrometers: USB2E3373
Integration Time (usec): 3000 (USB2E3373)
Spectra Averaged: 3 (USB2E3373)
Boxcar Smoothing: 0 (USB2E3373)
Correct for Electrical Dark: No (USB2E3373)
Strobe/Lamp Enabled: No (USB2E3373)
Correct for Detector Non-linearity: No (USB2E3373)
Correct for Stray Light: No (USB2E3373)
Number of Pixels in Processed Spectrum: 2048
>>>>>Begin Processed Spectral Data<<<<<
178.53	0.000
178.91	-20.000
179.29	16.667
179.67	200.000
180.04	0.000
180.42	20.000
180.80	-66.667
181.18	400.000
181.56	50.000
181.94	166.667
182.31	900.000
182.69	14.286
183.07	0.000
183.45	116.667
183.83	80.000
184.20	100.000
184.58	350.000
184.96	200.000
185.34	-233.333
185.72	-35.714
186.09	-100.000
186.47	-1500.000
186.85	40.000
187.23	133.333
187.61	-100.000
187.98	-200.000
188.36	350.000
188.74	-175.000
189.12	22.222
189.49	10.000
189.87	150.000
190.25	155.556
190.63	233.333
191.00	200.000
191.38	-333.333
191.76	260.000
192.14	28.571
192.51	-80.000
192.89	40.000
193.27	-40.000
193.65	-400.000
194.02	-150.000
194.40	600.000
194.78	-75.000
195.15	-57.143
195.53	300.000
195.91	360.000
196.29	-275.000
196.66	-66.667
197.04	-185.714
197.42	300.000
197.79	-62.500
198.17	8.333
198.55	200.000
198.92	-155.556
199.30	-100.000
199.68	50.000
200.05	-450.000
200.43	16.667
200.81	-83.333
201.18	216.667
201.56	-350.000
201.94	-1000.000
202.31	-16.667
202.69	77.778
203.07	58.333
203.44	-375.000
203.82	0.000
204.19	212.500
204.57	-266.667
204.95	81.818
205.32	100.000
205.70	250.000
206.08	-900.000
206.45	-120.000
206.83	1800.000
207.20	-166.667
207.58	-7.692
207.96	533.333
208.33	566.667
208.71	500.000
209.08	700.000
209.46	11.111
209.84	-33.333
210.21	-300.000
210.59	-450.000
210.96	211.111
211.34	-400.000
211.71	850.000
212.09	-220.000
212.46	-150.000
212.84	-50.000
213.22	128.571
213.59	-25.000
213.97	0.000
214.34	-250.000
214.72	-900.000
215.09	700.000
215.47	6.667
215.84	-100.000
216.22	-1000.000
216.59	800.000
216.97	58.333
217.34	-183.333
217.72	44.444
218.09	150.000
218.47	0.000
218.84	-75.000
219.22	21.429
219.59	-40.000
219.97	30.000
220.34	-50.000
220.72	172.727
221.09	-450.000
221.47	0.000
221.84	750.000
222.22	-150.000
222.59	-150.000
222.97	26.087
223.34	133.333
223.72	300.000
224.09	16.667
224.46	138.462
224.84	-66.667
225.21	0.000
225.59	-250.000
225.96	75.000
226.34	183.333
226.71	170.000
227.08	15.385
227.46	-57.143
227.83	-41.667
228.21	-550.000
228.58	216.667
228.95	31.579
229.33	37.500
229.70	-150.000
230.08	-111.111
230.45	-366.667
230.82	-1500.000
231.20	28.571
231.57	-200.000
231.95	-300.000
232.32	22.222
232.69	-150.000
233.07	68.750
233.44	-62.500
233.81	19.355
234.19	-220.000
234.56	-11.111
234.93	16.667
235.31	7.407
235.68	33.333
236.05	3.846
236.43	-15.789
236.80	18.182
237.17	21.429
237.55	0.000
237.92	18.605
238.29	54.839
238.67	42.857
239.04	34.286
239.41	35.294
239.79	44.000
240.16	32.500
240.53	32.759
240.91	43.836
241.28	35.211
241.65	60.937
242.02	49.123
242.40	37.333
242.77	41.053
243.14	61.176
243.51	37.634
243.89	31.429
244.26	52.778
244.63	55.102
245.00	41.964
245.38	34.454
245.75	48.305
246.12	46.094
246.49	44.000
246.87	42.623
247.24	44.366
247.61	47.020
247.98	46.629
248.36	49.686
248.73	46.591
249.10	48.333
249.47	47.917
249.84	47.716
250.22	46.354
250.59	51.124
250.96	48.182
251.33	53.774
251.70	54.128
252.08	53.680
252.45	49.388
252.82	44.726
253.19	52.529
253.56	52.549
253.94	50.407
254.31	51.439
254.68	53.472
255.05	50.993
255.42	51.636
255.79	52.649
256.16	54.861
256.54	53.636
256.91	55.128
257.28	48.052
257.65	46.230
258.02	52.853
258.39	56.193
258.76	53.517
259.14	47.647
259.51	54.366
259.88	54.755
260.25	49.432
260.62	47.753
260.99	52.368
261.36	52.299
261.73	47.200
262.10	56.403
262.47	58.127
262.85	53.213
263.22	52.957
263.59	55.764
263.96	53.003
264.33	53.908
264.70	50.860
265.07	54.187
265.44	52.693
265.81	54.458
266.18	53.396
266.55	55.000
266.92	52.679
267.29	52.000
267.66	49.545
268.03	52.258
268.40	51.487
268.77	51.225
269.14	52.101
269.51	54.751
269.88	51.923
270.25	52.110
270.62	50.840
270.99	50.737
271.36	51.876
271.73	51.458
272.10	52.905
272.47	50.600
272.84	46.709
273.21	50.731
273.58	50.408
273.95	51.793
274.32	51.451
274.69	51.859
275.06	52.908
275.43	51.600
275.80	52.772
276.17	52.767
276.54	52.662
276.91	53.743
277.28	54.932
277.65	51.229
278.02	51.326
278.39	51.361
278.76	53.818
279.13	52.952
279.50	54.152
279.87	50.189
280.23	50.820
280.60	50.353
280.97	51.494
281.34	49.153
281.71	46.004
282.08	48.479
282.45	48.677
282.82	50.168
283.19	50.673
283.56	51.024
283.92	49.289
284.29	52.284
284.66	49.912
285.03	46.827
285.40	51.000
285.77	53.366
286.14	49.128
286.51	49.518
286.87	48.947
287.24	49.679
287.61	47.068
287.98	50.391
288.35	48.527
288.72	47.706
289.08	42.767
289.45	47.582
289.82	46.118
290.19	47.121
290.56	46.744
290.93	46.529
291.29	46.809
291.66	44.242
292.03	45.481
292.40	44.317
292.77	43.440
293.13	44.934
293.50	42.149
293.87	42.857
294.24	44.382
294.60	42.760
294.97	42.936
295.34	40.685
295.71	40.777
296.08	40.847
296.44	43.215
296.81	40.880
297.18	41.915
297.55	40.829
297.91	40.736
298.28	39.642
298.65	41.527
299.02	40.444
299.38	38.903
299.75	39.254
300.12	40.647
300.48	39.437
300.85	37.897
301.22	37.740
301.59	39.538
301.95	39.390
302.32	38.032
302.69	39.239
303.05	39.433
303.42	39.130
303.79	37.303
304.15	38.845
304.52	37.430
304.89	39.233
305.25	37.844
305.62	37.045
305.99	36.730
306.35	37.248
306.72	37.908
307.09	36.888
307.45	35.922
307.82	37.247
308.19	38.614
308.55	37.553
308.92	36.441
309.29	36.192
309.65	35.294
310.02	34.801
310.38	37.100
310.75	36.475
311.12	36.419
311.48	38.232
311.85	36.069
312.22	36.364
312.58	36.153
312.95	37.372
313.31	36.775
313.68	36.246
314.05	37.934
314.41	36.149
314.78	37.186
315.14	37.414
315.51	35.551
315.87	37.402
316.24	36.597
316.61	36.893
316.97	37.647
317.34	37.895
317.70	35.761
318.07	37.030
318.43	36.862
318.80	36.612
319.16	37.838
319.53	36.698
319.89	35.417
320.26	36.971
320.62	37.500
320.99	37.143
321.35	37.352
321.72	38.485
322.08	37.426
322.45	38.955
322.81	37.833
323.18	35.954
323.54	37.251
323.91	36.812
324.27	36.162
324.64	37.113
325.00	37.580
325.37	37.410
325.73	35.766
326.10	36.165
326.46	36.446
326.83	37.643
327.19	37.467
327.56	37.931
327.92	37.240
328.29	36.559
328.65	38.701
329.01	37.706
329.38	36.547
329.74	35.933
330.11	37.092
330.47	36.685
330.84	36.748
331.20	37.153
331.56	36.604
331.93	34.584
332.29	35.153
332.66	36.528
333.02	36.769
333.38	36.121
333.75	35.956
334.11	34.991
334.48	35.510
334.84	35.493
335.20	36.437
335.57	37.148
335.93	36.651
336.29	36.106
336.66	36.430
337.02	36.355
337.38	35.943
337.75	37.000
338.11	36.098
338.47	36.583
338.84	35.820
339.20	35.655
339.56	35.974
339.93	35.405
340.29	36.718
340.65	36.530
341.02	34.898
341.38	35.922
341.74	36.388
342.11	35.986
342.47	34.615
342.83	34.692
343.20	36.958
343.56	35.052
343.92	36.045
344.28	35.763
344.65	36.216
345.01	37.282
345.37	36.581
345.73	35.573
346.10	37.424
346.46	35.462
346.82	37.128
347.19	37.679
347.55	37.075
347.91	37.428
348.27	37.405
348.63	37.165
349.00	36.728
349.36	37.263
349.72	36.700
350.08	37.725
350.45	36.859
350.81	37.407
351.17	36.656
351.53	36.795
351.89	38.342
352.26	37.154
352.62	35.977
352.98	37.573
353.34	37.093
353.70	37.037
354.07	37.727
354.43	37.229
354.79	35.492
355.15	37.127
355.51	37.490
355.87	37.802
356.24	37.827
356.60	36.811
356.96	36.651
357.32	37.942
357.68	37.550
358.04	35.900
358.40	38.462
358.77	36.867
359.13	36.867
359.49	35.760
359.85	37.090
360.21	36.479
360.57	36.842
360.93	37.688
361.29	37.617
361.66	36.199
362.02	38.226
362.38	38.151
362.74	37.048
363.10	36.727
363.46	37.171
363.82	37.366
364.18	36.715
364.54	37.939
364.90	37.778
365.26	36.811
365.62	37.245
365.98	37.781
366.35	37.746
366.71	37.267
367.07	37.860
367.43	36.101
367.79	36.119
368.15	36.249
368.51	37.603
368.87	36.858
369.23	36.942
369.59	36.544
369.95	36.513
370.31	37.727
370.67	37.218
371.03	37.384
371.39	38.369
371.75	36.181
372.11	37.037
372.47	35.635
372.83	37.400
373.19	37.877
373.55	37.275
373.91	35.985
374.27	38.926
374.63	36.966
374.99	35.578
375.35	36.502
375.71	36.155
376.07	37.102
376.42	36.929
376.78	36.307
377.14	37.919
377.50	37.688
377.86	37.674
378.22	37.913
378.58	38.355
378.94	38.834
379.30	37.580
379.66	36.236
380.02	35.855
380.38	37.977
380.74	37.166
381.09	37.484
381.45	36.825
381.81	36.224
382.17	38.958
382.53	38.067
382.89	36.498
383.25	36.081
383.61	36.300
383.97	37.622
384.32	37.097
384.68	38.378
385.04	36.155
385.40	35.655
385.76	37.065
386.12	37.228
386.48	36.921
386.83	37.459
387.19	36.590
387.55	36.528
387.91	37.695
388.27	36.404
388.62	37.047
388.98	37.277
389.34	36.890
389.70	37.756
390.06	37.030
390.42	37.323
390.77	38.364
391.13	37.411
391.49	38.073
391.85	36.926
392.20	37.492
392.56	37.066
392.92	38.033
393.28	36.984
393.64	37.049
393.99	36.364
394.35	37.703
394.71	38.079
395.07	38.329
395.42	37.079
395.78	37.702
396.14	38.641
396.50	38.875
396.85	37.079
397.21	36.093
397.57	38.315
397.92	37.532
398.28	37.950
398.64	36.000
399.00	37.086
399.35	36.811
399.71	36.946
400.07	36.566
400.42	37.436
400.78	36.468
401.14	37.626
401.49	37.976
401.85	37.778
402.21	37.373
402.57	35.158
402.92	38.446
403.28	36.736
403.63	37.115
403.99	36.856
404.35	36.242
404.70	37.049
405.06	37.632
405.42	37.215
405.77	36.385
406.13	36.559
406.49	36.341
406.84	38.418
407.20	37.299
407.55	37.141
407.91	37.133
408.27	37.434
408.62	36.334
408.98	37.516
409.34	37.516
409.69	36.656
410.05	35.751
410.40	36.480
410.76	36.986
411.11	35.294
411.47	36.327
411.83	36.768
412.18	37.958
412.54	37.128
412.89	36.658
413.25	37.492
413.60	36.480
413.96	37.411
414.31	36.265
414.67	36.935
415.03	37.068
415.38	36.351
415.74	36.199
416.09	36.664
416.45	37.084
416.80	35.744
417.16	36.883
417.51	36.919
417.87	37.688
418.22	37.032
418.58	36.144
418.93	37.524
419.29	36.906
419.64	37.363
420.00	36.477
420.35	36.660
420.71	36.172
421.06	36.275
421.42	36.826
421.77	38.490
422.12	36.680
422.48	37.179
422.83	35.441
423.19	36.882
423.54	36.591
423.90	37.021
424.25	36.979
424.61	36.581
424.96	36.057
425.31	37.923
425.67	36.061
426.02	36.708
426.38	36.744
426.73	36.012
427.09	36.179
427.44	36.481
427.79	36.696
428.15	35.384
428.50	36.872
428.85	35.856
429.21	36.402
429.56	35.912
429.92	36.344
430.27	36.053
430.62	36.777
430.98	35.680
431.33	37.152
431.68	36.214
432.04	36.939
432.39	35.116
432.74	35.737
433.10	37.235
433.45	36.542
433.80	36.964
434.16	34.925
434.51	36.511
434.86	35.227
435.22	35.914
435.57	37.203
435.92	35.789
436.28	35.305
436.63	37.269
436.98	35.802
437.34	36.532
437.69	35.494
438.04	36.178
438.39	37.141
438.75	35.323
439.10	36.964
439.45	37.227
439.81	36.063
440.16	36.240
440.51	35.688
440.86	35.985
441.22	35.259
441.57	36.296
441.92	35.947
442.27	37.429
442.63	36.343
442.98	36.858
443.33	36.722
443.68	35.607
444.03	36.546
444.39	36.231
444.74	37.836
445.09	37.131
445.44	35.277
445.79	36.030
446.15	36.851
446.50	37.131
446.85	37.019
447.20	36.160
447.55	35.893
447.91	36.743
448.26	36.914
448.61	36.495
448.96	37.079
449.31	36.468
449.66	34.867
450.02	36.154
450.37	36.756
450.72	35.847
451.07	36.124
451.42	36.693
451.77	36.003
452.12	36.090
452.47	35.976
452.83	36.862
453.18	36.057
453.53	37.622
453.88	36.311
454.23	36.997
454.58	37.010
454.93	35.559
455.28	36.253
455.63	36.257
455.98	36.675
456.34	35.968
456.69	35.816
457.04	35.236
457.39	35.830
457.74	35.588
458.09	35.594
458.44	37.032
458.79	35.453
459.14	36.553
459.49	36.433
459.84	35.196
460.19	36.273
460.54	35.101
460.89	35.294
461.24	37.013
461.59	36.656
461.94	36.358
462.29	35.025
462.64	35.585
462.99	36.041
463.34	35.311
463.69	37.517
464.04	35.728
464.39	35.820
464.74	34.848
465.09	35.434
465.44	35.153
465.79	35.680
466.14	35.740
466.49	36.169
466.84	35.934
467.19	35.283
467.54	34.947
467.89	35.075
468.24	34.848
468.59	35.209
468.94	35.306
469.29	35.502
469.64	35.594
469.99	34.751
470.34	33.168
470.68	34.538
471.03	34.526
471.38	34.854
471.73	34.956
472.08	35.231
472.43	35.201
472.78	33.285
473.13	35.789
473.48	35.201
473.83	35.931
474.17	33.556
474.52	35.164
474.87	34.091
475.22	34.689
475.57	33.843
475.92	34.565
476.27	34.237
476.61	33.629
476.96	34.914
477.31	34.018
477.66	34.515
478.01	33.843
478.36	32.722
478.70	35.099
479.05	32.850
479.40	33.665
479.75	34.492
480.10	34.416
480.45	34.188
480.79	33.679
481.14	34.317
481.49	33.830
481.84	34.697
482.19	34.146
482.53	33.480
482.88	34.215
483.23	34.673
483.58	33.812
483.92	34.724
484.27	33.833
484.62	34.371
484.97	34.315
485.31	34.532
485.66	34.882
486.01	34.664
486.36	35.683
486.70	35.468
487.05	34.469
487.40	34.181
487.75	34.240
488.09	33.271
488.44	34.406
488.79	33.410
489.13	33.624
489.48	33.790
489.83	33.842
490.17	34.130
490.52	32.218
490.87	34.026
491.22	32.890
491.56	32.856
491.91	33.333
492.26	33.758
492.60	33.265
492.95	33.419
493.30	33.194
493.64	33.266
493.99	34.240
494.34	34.161
494.68	33.152
495.03	32.505
495.37	33.401
495.72	33.070
496.07	33.671
496.41	32.658
496.76	32.521
497.11	33.038
497.45	33.199
497.80	32.606
498.14	32.154
498.49	32.835
498.84	31.551
499.18	32.019
499.53	33.022
499.87	33.794
500.22	32.104
500.56	32.810
500.91	32.774
501.26	33.071
501.60	33.028
501.95	33.060
502.29	33.556
502.64	31.857
502.98	32.812
503.33	32.152
503.67	32.414
504.02	33.146
504.36	31.844
504.71	31.755
505.06	31.655
505.40	34.048
505.75	32.438
506.09	32.719
506.44	33.584
506.78	32.441
507.13	31.650
507.47	31.634
507.82	31.808
508.16	32.238
508.51	32.604
508.85	32.527
509.19	32.584
509.54	31.671
509.88	31.415
510.23	31.742
510.57	31.743
510.92	32.143
511.26	31.189
511.61	31.792
511.95	32.389
512.30	32.000
512.64	32.375
512.98	31.955
513.33	30.832
513.67	30.599
514.02	30.649
514.36	30.724
514.70	31.512
515.05	32.134
515.39	31.556
515.74	31.266
516.08	30.508
516.42	31.200
516.77	31.925
517.11	30.887
517.46	33.104
517.80	32.036
518.14	32.891
518.49	31.630
518.83	31.388
519.17	30.398
519.52	31.605
519.86	32.426
520.20	31.146
520.55	30.809
520.89	32.254
521.23	31.062
521.58	30.952
521.92	30.841
522.26	31.684
522.61	31.331
522.95	30.616
523.29	30.634
523.64	30.529
523.98	29.906
524.32	32.997
524.66	31.543
525.01	31.890
525.35	31.053
525.69	30.557
526.04	32.699
526.38	30.021
526.72	32.917
527.06	31.857
527.41	31.396
527.75	31.515
528.09	31.188
528.43	30.971
528.78	30.468
529.12	30.822
529.46	31.362
529.80	31.586
530.15	30.855
530.49	30.474
530.83	31.092
531.17	29.873
531.51	30.193
531.86	30.462
532.20	30.231
532.54	30.360
532.88	31.855
533.22	31.466
533.57	31.931
533.91	32.691
534.25	31.500
534.59	31.843
534.93	30.087
535.27	31.785
535.62	31.398
535.96	31.333
536.30	31.733
536.64	32.189
536.98	32.227
537.32	29.911
537.66	31.085
538.01	31.517
538.35	30.982
538.69	30.998
539.03	32.084
539.37	30.294
539.71	32.681
540.05	30.825
540.39	32.099
540.73	31.136
541.07	30.588
541.42	31.504
541.76	31.007
542.10	31.492
542.44	32.009
542.78	29.545
543.12	30.181
543.46	30.700
543.80	30.379
544.14	31.039
544.48	30.596
544.82	30.731
545.16	30.725
545.50	31.587
545.84	31.236
546.18	31.835
546.52	30.822
546.86	31.370
547.20	31.136
547.54	30.629
547.88	30.199
548.22	31.294
548.56	31.219
548.90	31.228
549.24	31.213
549.58	31.669
549.92	30.677
550.26	31.197
550.60	31.086
550.94	30.794
551.28	30.163
551.62	31.040
551.96	30.112
552.30	30.078
552.64	30.729
552.98	30.238
553.32	30.758
553.66	30.121
554.00	30.811
554.34	31.484
554.68	29.745
555.02	29.921
555.36	29.388
555.69	29.977
556.03	30.007
556.37	29.407
556.71	30.090
557.05	30.469
557.39	30.281
557.73	29.324
558.07	29.421
558.41	28.651
558.75	30.373
559.08	30.809
559.42	30.518
559.76	30.244
560.10	31.866
560.44	30.325
560.78	30.503
561.12	30.128
561.45	30.655
561.79	29.883
562.13	30.986
562.47	29.587
562.81	30.326
563.15	29.430
563.48	29.588
563.82	30.131
564.16	29.681
564.50	29.298
564.84	30.971
565.17	30.830
565.51	31.738
565.85	30.775
566.19	29.367
566.52	31.039
566.86	30.533
567.20	30.805
567.54	30.951
567.88	31.068
568.21	31.243
568.55	30.617
568.89	31.703
569.23	31.576
569.56	31.954
569.90	32.248
570.24	31.994
570.57	32.543
570.91	32.606
571.25	32.851
571.59	32.721
571.92	31.907
572.26	31.626
572.60	32.008
572.93	32.253
573.27	31.603
573.61	32.621
573.95	32.447
574.28	32.386
574.62	32.238
574.96	32.203
575.29	31.673
575.63	31.946
575.97	31.418
576.30	32.736
576.64	32.001
576.98	32.462
577.31	32.487
577.65	33.142
577.98	31.966
578.32	32.461
578.66	32.370
578.99	32.726
579.33	31.399
579.67	31.455
580.00	31.724
580.34	31.978
580.67	32.223
581.01	31.606
581.35	32.428
581.68	32.140
582.02	32.424
582.35	32.615
582.69	33.043
583.02	32.262
583.36	32.116
583.70	32.401
584.03	31.886
584.37	32.287
584.70	31.603
585.04	31.440
585.37	31.996
585.71	33.082
586.04	32.289
586.38	32.634
586.72	31.704
587.05	32.121
587.39	32.099
587.72	32.453
588.06	32.436
588.39	31.814
588.73	31.793
589.06	31.763
589.40	32.313
589.73	32.049
590.07	31.514
590.40	31.514
590.73	32.112
591.07	31.169
591.40	31.293
591.74	30.924
592.07	31.184
592.41	31.818
592.74	32.723
593.08	32.344
593.41	32.053
593.75	31.648
594.08	31.927
594.41	32.065
594.75	31.676
595.08	31.788
595.42	31.543
595.75	32.083
596.09	31.865
596.42	31.459
596.75	31.727
597.09	30.597
597.42	30.643
597.75	31.473
598.09	31.039
598.42	30.715
598.76	31.375
599.09	31.176
599.42	30.685
599.76	31.385
600.09	31.712
600.42	30.859
600.76	31.139
601.09	31.608
601.42	30.837
601.76	30.722
602.09	31.295
602.42	31.090
602.76	31.283
603.09	31.201
603.42	31.175
603.76	31.011
604.09	31.078
604.42	31.945
604.76	31.036
605.09	30.184
605.42	31.090
605.75	30.059
606.09	30.533
606.42	30.446
606.75	31.217
607.09	31.576
607.42	31.023
607.75	30.028
608.08	31.478
608.42	30.844
608.75	30.965
609.08	29.884
609.41	31.467
609.75	30.384
610.08	29.716
610.41	30.789
610.74	30.384
611.07	30.619
611.41	29.872
611.74	31.066
612.07	30.636
612.40	30.306
612.73	29.514
613.07	30.593
613.40	29.730
613.73	30.241
614.06	30.035
614.39	31.517
614.72	30.401
615.06	30.827
615.39	29.561
615.72	30.347
616.05	30.377
616.38	29.300
616.71	29.602
617.05	29.334
617.38	31.161
617.71	30.568
618.04	30.880
618.37	29.562
618.70	29.620
619.03	30.529
619.36	30.339
619.69	29.082
620.03	30.664
620.36	29.705
620.69	29.120
621.02	29.612
621.35	29.447
621.68	29.343
622.01	29.857
622.34	28.559
622.67	29.174
623.00	29.238
623.33	28.898
623.66	29.721
623.99	29.107
624.32	28.991
624.65	28.281
624.99	28.828
625.32	28.673
625.65	28.423
625.98	29.500
626.31	28.571
626.64	29.459
626.97	29.779
627.30	27.593
627.63	27.349
627.96	27.933
628.29	28.298
628.62	28.969
628.95	28.828
629.28	26.756
629.61	28.631
629.94	27.593
630.26	29.184
630.59	27.644
630.92	26.449
631.25	28.715
631.58	25.581
631.91	27.904
632.24	28.166
632.57	29.489
632.90	27.675
633.23	28.387
633.56	27.925
633.89	27.045
634.22	27.564
634.55	28.121
634.88	26.640
635.20	29.863
635.53	26.955
635.86	30.435
636.19	26.057
636.52	27.493
636.85	26.597
637.18	27.332
637.51	27.371
637.83	28.771
638.16	27.881
638.49	26.513
638.82	25.738
639.15	26.143
639.48	27.511
639.81	26.230
640.13	25.574
640.46	27.087
640.79	26.047
641.12	24.961
641.45	25.350
641.77	24.363
642.10	25.896
642.43	27.441
642.76	25.627
643.09	24.048
643.41	23.656
643.74	26.042
644.07	25.926
644.40	27.978
644.73	25.046
645.05	25.000
645.38	27.115
645.71	25.954
646.04	26.208
646.36	25.189
646.69	29.207
647.02	27.539
647.35	29.600
647.67	29.259
648.00	26.408
648.33	25.819
648.66	28.015
648.98	26.102
649.31	26.678
649.64	27.194
649.96	27.027
650.29	24.248
650.62	25.417
650.94	28.651
651.27	25.048
651.60	22.753
651.92	24.237
652.25	25.048
652.58	26.032
652.90	25.623
653.23	23.218
653.56	24.653
653.88	25.547
654.21	26.465
654.54	23.452
654.86	27.338
655.19	25.645
655.52	30.178
655.84	32.198
656.17	33.472
656.49	45.930
656.82	53.650
657.15	42.625
657.47	31.713
657.80	22.781
658.13	18.538
658.45	30.805
658.78	30.603
659.10	30.397
659.43	29.869
659.75	28.976
660.08	28.899
660.41	26.950
660.73	27.562
661.06	25.636
661.38	25.605
661.71	23.851
662.03	25.000
662.36	22.196
662.68	22.782
663.01	24.519
663.33	26.887
663.66	26.555
663.98	27.384
664.31	25.122
664.63	25.229
664.96	23.515
665.28	25.059
665.61	28.738
665.93	26.037
666.26	26.049
666.58	27.982
666.91	23.185
667.23	24.384
667.56	23.951
667.88	24.561
668.21	24.619
668.53	25.888
668.86	27.041
669.18	24.873
669.50	24.936
669.83	21.750
670.15	25.000
670.48	24.812
670.80	27.665
671.13	22.651
671.45	25.510
671.77	26.812
672.10	24.176
672.42	25.697
672.75	28.155
673.07	25.234
673.39	27.626
673.72	25.620
674.04	24.894
674.37	26.328
674.69	24.299
675.01	29.767
675.34	21.569
675.66	21.905
675.98	25.253
676.31	26.700
676.63	21.649
676.95	23.261
677.28	25.495
677.60	28.321
677.92	25.815
678.25	25.986
678.57	25.290
678.89	27.064
679.22	27.982
679.54	23.385
679.86	28.051
680.18	24.686
680.51	24.435
680.83	26.667
681.15	28.758
681.48	26.596
681.80	23.696
682.12	25.268
682.44	25.000
682.77	28.182
683.09	26.225
683.41	25.815
683.73	25.879
684.06	25.381
684.38	24.460
684.70	27.021
685.02	27.056
685.34	24.059
685.67	28.063
685.99	27.345
686.31	27.052
686.63	27.767
686.96	26.220
687.28	24.435
687.60	25.257
687.92	24.473
688.24	25.684
688.56	24.176
688.89	26.941
689.21	22.791
689.53	24.808
689.85	24.810
690.17	26.471
690.49	24.235
690.82	24.816
691.14	27.154
691.46	23.250
691.78	28.947
692.10	30.505
692.42	29.358
692.74	26.066
693.06	23.373
693.39	25.123
693.71	23.023
694.03	23.671
694.35	23.515
694.67	24.936
694.99	22.911
695.31	27.195
695.63	23.514
695.95	26.685
696.27	28.895
696.59	23.739
696.91	22.792
697.23	25.788
697.56	23.316
697.88	26.230
698.20	24.697
698.52	24.519
698.84	24.311
699.16	23.219
699.48	25.916
699.80	23.901
700.12	23.967
700.44	23.009
700.76	27.760
701.08	22.222
701.40	26.316
701.72	25.667
702.04	26.190
702.36	27.869
702.68	27.517
703.00	24.921
703.32	21.856
703.64	23.975
703.96	25.000
704.28	21.831
704.60	26.712
704.91	25.329
705.23	26.316
705.55	23.420
705.87	20.863
706.19	23.904
706.51	15.625
706.83	19.780
707.15	23.729
707.47	26.647
707.79	27.221
708.11	25.926
708.43	27.733
708.74	24.044
709.06	24.233
709.38	21.958
709.70	24.675
710.02	23.427
710.34	21.986
710.66	23.970
710.98	24.476
711.29	25.086
711.61	22.695
711.93	25.843
712.25	24.906
712.57	27.344
712.89	24.082
713.20	20.161
713.52	19.512
713.84	20.803
714.16	25.676
714.48	27.986
714.80	23.569
715.11	26.804
715.43	25.597
715.75	23.158
716.07	25.455
716.39	23.891
716.70	19.200
717.02	20.161
717.34	29.004
717.66	20.455
717.97	17.593
718.29	17.333
718.61	21.171
718.93	27.311
719.24	24.268
719.56	25.893
719.88	23.529
720.20	18.376
720.51	24.123
720.83	23.013
721.15	24.898
721.46	19.831
721.78	26.840
722.10	27.519
722.42	23.913
722.73	20.814
723.05	19.816
723.37	23.982
723.68	25.118
724.00	25.926
724.32	25.234
724.63	30.317
724.95	21.918
725.27	26.761
725.58	24.201
725.90	19.820
726.22	21.834
726.53	26.639
726.85	26.667
727.16	28.340
727.48	24.194
727.80	24.201
728.11	25.778
728.43	29.218
728.74	22.807
729.06	24.454
729.38	27.519
729.69	22.400
730.01	25.105
730.32	22.311
730.64	26.154
730.96	19.691
731.27	25.097
731.59	23.232
731.90	26.645
732.22	24.585
732.53	22.105
732.85	27.113
733.16	31.502
733.48	26.119
733.80	26.182
734.11	23.404
734.43	24.549
734.74	23.053
735.06	27.974
735.37	24.920
735.69	22.887
736.00	25.556
736.32	27.622
736.63	26.296
736.95	24.514
737.26	28.986
737.58	20.438
737.89	25.283
738.21	27.863
738.52	31.557
738.83	24.786
739.15	24.091
739.46	16.667
739.78	23.166
740.09	25.397
740.41	25.000
740.72	22.709
741.04	23.320
741.35	25.112
741.66	30.108
741.98	19.898
742.29	25.389
742.61	26.590
742.92	23.039
743.23	28.358
743.55	22.798
743.86	24.638
744.18	25.000
744.49	22.778
744.80	29.032
745.12	22.051
745.43	21.390
745.74	22.995
746.06	28.161
746.37	20.556
746.68	24.865
747.00	17.127
747.31	27.225
747.62	29.474
747.94	23.113
748.25	28.571
748.56	21.212
748.88	20.219
749.19	31.088
749.50	27.059
749.82	27.000
750.13	24.757
750.44	30.043
750.75	24.800
751.07	21.339
751.38	21.875
751.69	31.746
752.01	25.210
752.32	28.926
752.63	25.328
752.94	31.200
753.26	26.941
753.57	29.858
753.88	23.256
754.19	21.145
754.51	23.431
754.82	24.167
755.13	20.796
755.44	26.407
755.75	28.916
756.07	23.605
756.38	24.268
756.69	30.189
757.00	26.596
757.31	26.644
757.63	27.451
757.94	25.455
758.25	28.571
758.56	26.757
758.87	24.405
759.18	28.972
759.50	28.114
759.81	27.799
760.12	28.826
760.43	26.578
760.74	28.144
761.05	27.885
761.36	33.234
761.67	23.708
761.99	29.097
762.30	25.818
762.61	23.171
762.92	26.667
763.23	20.465
763.54	27.919
763.85	24.434
764.16	23.043
764.47	25.217
764.78	24.597
765.10	26.378
765.41	28.428
765.72	32.776
766.03	24.749
766.34	24.242
766.65	26.953
766.96	28.444
767.27	32.961
767.58	25.157
767.89	27.922
768.20	27.703
768.51	30.460
768.82	22.500
769.13	25.463
769.44	28.774
769.75	27.941
770.06	27.184
770.37	26.596
770.68	24.103
770.99	23.858
771.30	20.103
771.61	18.834
771.92	28.774
772.23	22.596
772.54	25.294
772.85	17.808
773.16	22.581
773.47	25.478
773.78	26.946
774.09	23.684
774.39	20.588
774.70	21.805
775.01	22.308
775.32	19.841
775.63	22.047
775.94	19.811
776.25	22.222
776.56	21.818
776.87	24.786
777.18	22.000
777.48	22.115
777.79	19.444
778.10	22.642
778.41	26.471
778.72	26.415
779.03	23.684
779.34	14.286
779.65	21.831
779.95	30.935
780.26	20.161
780.57	19.565
780.88	14.679
781.19	24.074
781.50	20.492
781.80	35.766
782.11	19.231
782.42	22.069
782.73	32.867
783.04	22.400
783.34	28.800
783.65	27.642
783.96	9.836
784.27	19.328
784.57	20.561
784.88	21.429
785.19	31.959
785.50	22.105
785.81	23.000
786.11	14.851
786.42	5.882
786.73	29.167
787.04	21.429
787.34	20.370
787.65	29.245
787.96	13.402
788.26	20.792
788.57	30.435
788.88	22.018
789.19	19.835
789.49	16.522
789.80	39.655
790.11	24.390
790.41	17.978
790.72	5.814
791.03	18.605
791.33	1.299
791.64	29.268
791.95	23.171
792.25	7.229
792.56	14.815
792.87	11.268
793.17	22.892
793.48	22.353
793.79	15.000
794.09	-1.667
794.40	26.087
794.70	18.261
795.01	33.028
795.32	31.496
795.62	23.529
795.93	34.314
796.23	15.152
796.54	15.116
796.85	4.348
797.15	-3.125
797.46	1.695
797.76	9.836
798.07	15.789
798.37	8.065
798.68	3.125
798.99	24.615
799.29	12.121
799.60	10.145
799.90	7.143
800.21	-12.281
800.51	32.759
800.82	-5.660
801.12	9.804
801.43	8.065
801.73	4.839
802.04	20.000
802.34	1.887
802.65	-10.526
802.95	23.636
803.26	45.283
803.56	16.393
803.87	14.000
804.17	1.852
804.48	32.692
804.78	-12.245
805.09	34.043
805.39	25.424
805.70	-10.417
806.00	10.714
806.30	13.559
806.61	-1.538
806.91	29.231
807.22	22.368
807.52	34.286
807.83	-3.448
808.13	25.316
808.43	11.475
808.74	26.230
809.04	32.432
809.35	31.481
809.65	14.286
809.95	25.424
810.26	16.327
810.56	11.321
810.86	17.647
811.17	29.730
811.47	-25.926
811.77	-1.961
812.08	20.455
812.38	33.333
812.69	-2.564
812.99	7.143
813.29	17.391
813.59	-11.429
813.90	14.286
814.20	10.909
814.50	16.327
814.81	17.647
815.11	0.000
815.41	12.195
815.72	-15.385
816.02	21.277
816.32	56.250
816.62	-6.061
816.93	-30.303
817.23	10.811
817.53	23.529
817.84	35.000
818.14	0.000
818.44	15.625
818.74	-38.095
819.04	20.000
819.35	48.571
819.65	11.364
819.95	41.026
820.25	5.556
820.56	-27.586
820.86	-3.571
821.16	-17.391
821.46	23.810
821.76	1.852
822.07	39.130
822.37	-20.408
822.67	-11.628
822.97	8.696
823.27	3.846
823.57	0.000
823.88	-10.714
824.18	-5.128
824.48	42.857
824.78	24.242
825.08	-53.333
825.38	12.500
825.69	-44.444
825.99	14.815
826.29	37.778
826.59	-18.519
826.89	14.815
827.19	14.286
827.49	-45.455
827.79	-59.091
828.09	50.000
828.39	30.435
828.70	-37.037
829.00	-3.571
829.30	21.429
829.60	-19.355
829.90	0.000
830.20	10.256
830.50	-18.182
830.80	-9.524
831.10	-16.667
831.40	-57.143
831.70	-7.407
832.00	-35.294
832.30	30.435
832.60	-4.167
832.90	-54.545
833.20	11.111
833.50	0.000
833.80	-11.538
834.10	44.000
834.40	29.167
834.70	0.000
835.00	11.538
835.30	-15.000
835.60	-40.000
835.90	40.000
836.20	-21.429
836.50	-26.087
836.80	-5.556
837.10	-26.667
837.40	-150.000
837.70	-8.696
838.00	14.286
838.30	1600.000
838.60	24.000
838.90	-180.000
839.19	-77.778
839.49	-300.000
839.79	5.882
840.09	-66.667
840.39	25.000
840.69	-27.778
840.99	-50.000
841.29	6.897
841.59	33.333
841.88	-90.909
842.18	-250.000
842.48	12.500
842.78	11.538
843.08	5.882
843.38	-5.000
843.68	-53.846
843.97	0.000
844.27	-50.000
844.57	12.500
844.87	-90.909
845.17	-15.789
845.47	-55.556
845.76	25.000
846.06	14.286
846.36	-14.286
846.66	-122.222
846.96	-30.000
847.25	-160.000
847.55	-50.000
847.85	-66.667
848.15	-75.000
848.44	-5.263
848.74	26.667
849.04	-57.895
849.34	-166.667
849.63	-216.667
849.93	29.412
850.23	-27.273
850.53	-200.000
850.82	20.000
851.12	-33.333
851.42	-114.286
851.71	-200.000
852.01	-42.857
852.31	-300.000
852.61	53.846
852.90	-100.000
853.20	-88.889
853.50	-177.778
853.79	-40.000
854.09	-70.000
854.39	-10.526
854.68	0.000
854.98	125.000
855.28	44.444
855.57	-78.571
855.87	0.000
856.17	-50.000
856.46	42.308
856.76	-33.333
857.05	12.500
857.35	-4.167
857.65	-27.778
857.94	62.500
858.24	-4.348
858.53	-80.000
858.83	-66.667
859.13	-90.909
859.42	-120.000
859.72	250.000
860.01	38.462
860.31	-110.000
860.60	-162.500
860.90	-350.000
861.20	-216.667
861.49	-325.000
861.79	350.000
862.08	22.581
862.38	-52.632
862.67	0.000
862.97	-90.000
863.26	-25.000
863.56	-4.348
863.85	33.333
864.15	-35.714
864.44	25.000
864.74	-58.333
865.03	-155.556
865.33	100.000
865.62	-1000.000
865.92	-500.000
866.21	-33.333
866.51	-72.727
866.80	-200.000
867.10	-142.857
867.39	-100.000
867.69	-8.333
867.98	80.000
868.27	-150.000
868.57	475.000
868.86	-33.333
869.16	30.769
869.45	600.000
869.75	-116.667
870.04	-75.000
870.33	29.412
870.63	-57.143
870.92	95.652
871.22	-25.000
871.51	480.000
871.80	-18.750
872.10	-200.000
>>>>>End Processed Spectral Data<<<<<
