SpectraSuite Data File
++++++++++++++++++++++++++++++++++++
Date: Tue May 12 19:57:43 PDT 2015
User: schluterlab
Dark Spectrum Present: Yes
Reference Spectrum Present: Yes
Number of Sampled Component Spectra: 1
Spectrometers: USB2E3373
Integration Time (usec): 3000 (USB2E3373)
Spectra Averaged: 3 (USB2E3373)
Boxcar Smoothing: 0 (USB2E3373)
Correct for Electrical Dark: No (USB2E3373)
Strobe/Lamp Enabled: No (USB2E3373)
Correct for Detector Non-linearity: No (USB2E3373)
Correct for Stray Light: No (USB2E3373)
Number of Pixels in Processed Spectrum: 2048
>>>>>Begin Processed Spectral Data<<<<<
178.53	0.000
178.91	-110.000
179.29	-283.333
179.67	866.667
180.04	0.000
180.42	-260.000
180.80	-633.333
181.18	1650.000
181.56	-650.000
181.94	366.667
182.31	1300.000
182.69	-42.857
183.07	0.000
183.45	275.000
183.83	400.000
184.20	400.000
184.58	1400.000
184.96	566.667
185.34	-766.667
185.72	-107.143
186.09	-266.667
186.47	-2500.000
186.85	-180.000
187.23	233.333
187.61	-214.286
187.98	-540.000
188.36	700.000
188.74	-375.000
189.12	-211.111
189.49	-200.000
189.87	500.000
190.25	211.111
190.63	733.333
191.00	380.000
191.38	-466.667
191.76	620.000
192.14	-185.714
192.51	-180.000
192.89	-240.000
193.27	-180.000
193.65	-500.000
194.02	-183.333
194.40	500.000
194.78	-162.500
195.15	-257.143
195.53	666.667
195.91	480.000
196.29	-600.000
196.66	-666.667
197.04	-385.714
197.42	360.000
197.79	-362.500
198.17	-233.333
198.55	-1000.000
198.92	-322.222
199.30	750.000
199.68	-500.000
200.05	-1550.000
200.43	-50.000
200.81	-191.667
201.18	466.667
201.56	-1100.000
201.94	-1500.000
202.31	-141.667
202.69	-44.444
203.07	-100.000
203.44	-650.000
203.82	0.000
204.19	387.500
204.57	-700.000
204.95	190.909
205.32	380.000
205.70	750.000
206.08	-1400.000
206.45	-360.000
206.83	3000.000
207.20	-166.667
207.58	-107.692
207.96	633.333
208.33	966.667
208.71	666.667
209.08	1200.000
209.46	-44.444
209.84	900.000
210.21	-866.667
210.59	650.000
210.96	288.889
211.34	-500.000
211.71	1600.000
212.09	-360.000
212.46	-175.000
212.84	-250.000
213.22	242.857
213.59	-175.000
213.97	0.000
214.34	-750.000
214.72	-300.000
215.09	600.000
215.47	-120.000
215.84	-125.000
216.22	-2100.000
216.59	2200.000
216.97	-100.000
217.34	-333.333
217.72	-61.111
218.09	475.000
218.47	-89.474
218.84	-275.000
219.22	-142.857
219.59	-160.000
219.97	-110.000
220.34	450.000
220.72	190.909
221.09	-950.000
221.47	0.000
221.84	1000.000
222.22	-625.000
222.59	-400.000
222.97	-73.913
223.34	153.333
223.72	400.000
224.09	-200.000
224.46	215.385
224.84	-73.333
225.21	-950.000
225.59	-450.000
225.96	-10.000
226.34	400.000
226.71	390.000
227.08	-115.385
227.46	-114.286
227.83	0.000
228.21	-1300.000
228.58	316.667
228.95	-5.263
229.33	-37.500
229.70	-200.000
230.08	-244.444
230.45	-833.333
230.82	-1800.000
231.20	-80.952
231.57	-540.000
231.95	-633.333
232.32	211.111
232.69	-1100.000
233.07	-43.750
233.44	-250.000
233.81	-35.484
234.19	-420.000
234.56	-116.667
234.93	-400.000
235.31	-25.926
235.68	-29.630
236.05	-61.538
236.43	-63.158
236.80	-100.000
237.17	-142.857
237.55	-100.000
237.92	-6.977
238.29	-61.290
238.67	-50.000
239.04	-22.857
239.41	-17.647
239.79	-16.000
240.16	-20.000
240.53	-31.034
240.91	-10.959
241.28	-5.634
241.65	-10.938
242.02	-28.070
242.40	-22.667
242.77	4.211
243.14	2.353
243.51	-2.151
243.89	-21.905
244.26	-9.259
244.63	-5.102
245.00	-11.607
245.38	-4.202
245.75	-6.780
246.12	0.000
246.49	-0.800
246.87	-7.377
247.24	-8.451
247.61	-1.987
247.98	2.247
248.36	0.629
248.73	1.705
249.10	1.667
249.47	-4.167
249.84	-3.553
250.22	-7.812
250.59	-1.124
250.96	-1.364
251.33	4.245
251.70	1.376
252.08	3.463
252.45	3.673
252.82	-1.266
253.19	-0.778
253.56	4.314
253.94	5.285
254.31	11.511
254.68	2.778
255.05	7.947
255.42	3.273
255.79	5.298
256.16	5.903
256.54	7.273
256.91	7.692
257.28	6.169
257.65	0.000
258.02	5.105
258.39	6.042
258.76	4.587
259.14	2.059
259.51	8.169
259.88	8.069
260.25	2.557
260.62	4.494
260.99	5.850
261.36	4.598
261.73	8.000
262.10	8.174
262.47	4.408
262.85	7.712
263.22	5.376
263.59	6.702
263.96	5.744
264.33	2.426
264.70	6.880
265.07	7.389
265.44	9.133
265.81	7.470
266.18	7.728
266.55	7.143
266.92	9.375
267.29	7.333
267.66	4.091
268.03	9.247
268.40	6.407
268.77	5.568
269.14	4.412
269.51	7.919
269.88	6.624
270.25	6.962
270.62	8.193
270.99	6.737
271.36	7.064
271.73	6.250
272.10	6.432
272.47	4.800
272.84	4.883
273.21	4.802
273.58	4.694
273.95	6.175
274.32	8.897
274.69	7.045
275.06	6.754
275.43	5.400
275.80	7.075
276.17	6.126
276.54	8.365
276.91	6.334
277.28	7.737
277.65	6.049
278.02	7.197
278.39	7.441
278.76	8.194
279.13	9.123
279.50	7.762
279.87	7.170
280.23	9.472
280.60	5.830
280.97	7.206
281.34	6.271
281.71	3.197
282.08	7.871
282.45	3.704
282.82	6.061
283.19	6.734
283.56	7.850
283.92	8.689
284.29	7.614
284.66	5.841
285.03	3.945
285.40	7.833
285.77	6.897
286.14	7.448
286.51	7.878
286.87	7.293
287.24	4.327
287.61	6.636
287.98	10.172
288.35	6.977
288.72	7.492
289.08	5.503
289.45	6.708
289.82	7.609
290.19	6.515
290.56	7.815
290.93	6.942
291.29	6.950
291.66	7.022
292.03	9.326
292.40	9.065
292.77	5.248
293.13	7.489
293.50	6.887
293.87	5.409
294.24	6.320
294.60	7.104
294.97	4.294
295.34	6.301
295.71	5.687
296.08	5.874
296.44	6.851
296.81	4.528
297.18	7.633
297.55	4.648
297.91	6.472
298.28	5.882
298.65	5.692
299.02	5.672
299.38	7.143
299.75	7.722
300.12	5.995
300.48	5.282
300.85	5.012
301.22	6.250
301.59	5.109
301.95	6.707
302.32	6.440
302.69	4.518
303.05	6.257
303.42	6.039
303.79	4.382
304.15	6.342
304.52	5.140
304.89	4.397
305.25	4.702
305.62	5.795
305.99	5.487
306.35	4.251
306.72	8.061
307.09	5.114
307.45	4.962
307.82	6.403
308.19	5.941
308.55	6.013
308.92	4.767
309.29	4.916
309.65	5.573
310.02	4.822
310.38	5.437
310.75	5.738
311.12	6.409
311.48	6.783
311.85	6.586
312.22	6.405
312.58	6.244
312.95	5.852
313.31	5.801
313.68	5.462
314.05	7.349
314.41	5.403
314.78	5.427
315.14	5.485
315.51	6.157
315.87	7.422
316.24	5.935
316.61	6.990
316.97	6.569
317.34	6.029
317.70	5.135
318.07	5.400
318.43	6.049
318.80	6.557
319.16	3.914
319.53	6.698
319.89	6.061
320.26	6.588
320.62	6.686
320.99	6.429
321.35	7.016
321.72	7.677
322.08	7.228
322.45	7.594
322.81	6.700
323.18	8.054
323.54	7.109
323.91	7.495
324.27	5.882
324.64	6.560
325.00	6.460
325.37	7.914
325.73	6.022
326.10	7.881
326.46	7.616
326.83	7.124
327.19	6.987
327.56	7.692
327.92	6.510
328.29	7.348
328.65	7.721
329.01	7.248
329.38	6.703
329.74	6.778
330.11	6.337
330.47	6.890
330.84	7.519
331.20	6.100
331.56	6.132
331.93	7.228
332.29	7.586
332.66	6.691
333.02	6.778
333.38	7.077
333.75	6.953
334.11	6.962
334.48	6.082
334.84	6.291
335.20	6.893
335.57	7.357
335.93	6.047
336.29	6.399
336.66	6.922
337.02	6.800
337.38	6.226
337.75	7.091
338.11	7.566
338.47	6.592
338.84	5.801
339.20	7.149
339.56	6.803
339.93	6.306
340.29	8.160
340.65	6.484
341.02	6.554
341.38	7.237
341.74	6.495
342.11	8.134
342.47	6.294
342.83	6.071
343.20	5.924
343.56	6.031
343.92	6.562
344.28	5.660
344.65	6.507
345.01	6.882
345.37	7.179
345.73	6.029
346.10	7.779
346.46	6.989
346.82	7.307
347.19	6.560
347.55	6.803
347.91	5.487
348.27	6.487
348.63	6.914
349.00	6.427
349.36	6.843
349.72	6.732
350.08	6.874
350.45	7.079
350.81	7.184
351.17	4.695
351.53	5.153
351.89	5.181
352.26	5.935
352.62	7.032
352.98	6.611
353.34	6.349
353.70	5.761
354.07	7.084
354.43	5.509
354.79	6.230
355.15	5.973
355.51	6.275
355.87	7.327
356.24	7.271
356.60	5.509
356.96	5.924
357.32	6.914
357.68	7.558
358.04	6.564
358.40	6.547
358.77	6.908
359.13	6.988
359.49	6.240
359.85	6.795
360.21	6.661
360.57	6.858
360.93	6.492
361.29	5.763
361.66	5.363
362.02	5.965
362.38	6.993
362.74	6.380
363.10	6.486
363.46	5.944
363.82	6.662
364.18	5.829
364.54	6.183
364.90	5.704
365.26	6.334
365.62	5.829
365.98	6.297
366.35	6.203
366.71	7.020
367.07	6.421
367.43	6.426
367.79	5.087
368.15	5.930
368.51	6.742
368.87	6.021
369.23	6.359
369.59	6.397
369.95	5.216
370.31	5.455
370.67	6.842
371.03	6.347
371.39	6.495
371.75	4.903
372.11	5.778
372.47	5.642
372.83	6.574
373.19	6.175
373.55	5.464
373.91	5.833
374.27	6.034
374.63	6.406
374.99	5.710
375.35	5.225
375.71	6.169
376.07	6.431
376.42	6.432
376.78	5.854
377.14	5.936
377.50	5.746
377.86	6.685
378.22	6.407
378.58	6.974
378.94	5.959
379.30	5.985
379.66	5.506
380.02	6.167
380.38	5.789
380.74	6.029
381.09	5.654
381.45	5.968
381.81	6.378
382.17	6.580
382.53	5.523
382.89	6.094
383.25	6.341
383.61	5.467
383.97	6.108
384.32	5.935
384.68	6.513
385.04	5.347
385.40	5.815
385.76	6.705
386.12	5.875
386.48	5.610
386.83	5.596
387.19	6.513
387.55	5.699
387.91	5.545
388.27	6.078
388.62	5.440
388.98	5.916
389.34	5.725
389.70	5.064
390.06	5.875
390.42	6.423
390.77	6.372
391.13	6.376
391.49	6.199
391.85	5.722
392.20	6.337
392.56	4.912
392.92	5.195
393.28	6.523
393.64	4.940
393.99	5.065
394.35	5.970
394.71	5.762
395.07	6.101
395.42	5.714
395.78	5.444
396.14	4.930
396.50	6.080
396.85	5.618
397.21	5.692
397.57	5.662
397.92	5.725
398.28	5.935
398.64	5.587
399.00	6.210
399.35	5.686
399.71	5.808
400.07	6.300
400.42	6.987
400.78	5.630
401.14	5.934
401.49	5.497
401.85	6.603
402.21	6.409
402.57	4.765
402.92	5.578
403.28	5.722
403.63	5.449
403.99	6.209
404.35	5.732
404.70	5.066
405.06	5.580
405.42	5.075
405.77	5.648
406.13	5.854
406.49	5.426
406.84	6.787
407.20	6.258
407.55	5.745
407.91	5.315
408.27	5.652
408.62	6.174
408.98	6.178
409.34	6.018
409.69	5.418
410.05	5.570
410.40	5.267
410.76	5.915
411.11	6.012
411.47	6.395
411.83	5.924
412.18	5.694
412.54	7.050
412.89	5.117
413.25	5.768
413.60	6.250
413.96	5.502
414.31	5.672
414.67	7.157
415.03	5.533
415.38	5.292
415.74	7.119
416.09	5.100
416.45	5.662
416.80	5.494
417.16	5.783
417.51	7.009
417.87	6.703
418.22	6.083
418.58	5.667
418.93	6.576
419.29	5.495
419.64	7.005
420.00	6.352
420.35	6.591
420.71	6.722
421.06	5.840
421.42	5.960
421.77	5.907
422.12	6.556
422.48	7.025
422.83	6.201
423.19	6.588
423.54	6.109
423.90	5.995
424.25	6.284
424.61	6.194
424.96	6.265
425.31	6.099
425.67	6.667
426.02	6.087
426.38	4.698
426.73	6.231
427.09	5.187
427.44	5.247
427.79	6.002
428.15	5.897
428.50	6.533
428.85	6.350
429.21	6.754
429.56	6.133
429.92	6.274
430.27	5.707
430.62	5.841
430.98	6.609
431.33	6.396
431.68	6.236
432.04	6.789
432.39	6.655
432.74	6.135
433.10	6.489
433.45	6.713
433.80	6.667
434.16	5.984
434.51	6.968
434.86	6.042
435.22	6.228
435.57	6.464
435.92	5.449
436.28	6.102
436.63	6.261
436.98	6.420
437.34	7.038
437.69	6.235
438.04	5.769
438.39	6.593
438.75	6.154
439.10	7.560
439.45	7.253
439.81	5.778
440.16	6.432
440.51	6.753
440.86	6.250
441.22	6.611
441.57	6.439
441.92	6.350
442.27	6.171
442.63	6.603
442.98	6.663
443.33	6.639
443.68	7.210
444.03	6.495
444.39	6.299
444.74	6.697
445.09	5.962
445.44	6.006
445.79	6.311
446.15	6.414
446.50	6.478
446.85	6.656
447.20	6.455
447.55	6.457
447.91	6.878
448.26	6.944
448.61	6.344
448.96	6.860
449.31	6.269
449.66	6.538
450.02	7.041
450.37	7.351
450.72	6.583
451.07	5.999
451.42	6.983
451.77	6.242
452.12	6.078
452.47	6.775
452.83	6.787
453.18	6.617
453.53	7.120
453.88	6.382
454.23	6.454
454.58	7.441
454.93	6.403
455.28	6.789
455.63	6.693
455.98	7.424
456.34	6.698
456.69	6.567
457.04	5.906
457.39	6.617
457.74	6.953
458.09	6.534
458.44	7.174
458.79	6.478
459.14	6.500
459.49	6.369
459.84	7.432
460.19	6.817
460.54	6.629
460.89	6.647
461.24	7.208
461.59	7.445
461.94	6.969
462.29	6.642
462.64	6.616
462.99	6.962
463.34	7.033
463.69	7.750
464.04	7.184
464.39	6.559
464.74	6.944
465.09	7.460
465.44	7.139
465.79	7.220
466.14	6.504
466.49	7.020
466.84	7.371
467.19	6.693
467.54	6.565
467.89	7.185
468.24	7.071
468.59	7.199
468.94	6.859
469.29	6.990
469.64	6.710
469.99	6.705
470.34	5.728
470.68	6.769
471.03	7.007
471.38	6.208
471.73	7.195
472.08	7.616
472.43	6.846
472.78	6.817
473.13	7.789
473.48	7.538
473.83	8.322
474.17	6.671
474.52	7.435
474.87	7.134
475.22	7.624
475.57	7.521
475.92	7.447
476.27	7.414
476.61	6.974
476.96	7.825
477.31	7.135
477.66	7.902
478.01	6.769
478.36	7.049
478.70	7.775
479.05	7.197
479.40	6.965
479.75	7.908
480.10	8.171
480.45	7.330
480.79	7.473
481.14	6.747
481.49	7.404
481.84	7.323
482.19	7.268
482.53	8.186
482.88	7.626
483.23	7.638
483.58	7.079
483.92	8.090
484.27	7.551
484.62	7.921
484.97	7.557
485.31	7.425
485.66	7.160
486.01	7.390
486.36	7.241
486.70	7.418
487.05	7.652
487.40	7.128
487.75	7.501
488.09	7.456
488.44	7.214
488.79	7.645
489.13	7.523
489.48	7.244
489.83	7.628
490.17	7.361
490.52	7.457
490.87	8.210
491.22	8.136
491.56	7.856
491.91	7.380
492.26	8.363
492.60	8.367
492.95	7.854
493.30	7.789
493.64	7.454
493.99	7.649
494.34	8.262
494.68	6.838
495.03	7.404
495.37	7.603
495.72	7.753
496.07	7.505
496.41	7.510
496.76	7.784
497.11	8.075
497.45	8.187
497.80	7.840
498.14	8.131
498.49	8.169
498.84	7.285
499.18	7.421
499.53	8.359
499.87	7.783
500.22	8.208
500.56	9.158
500.91	8.285
501.26	7.979
501.60	8.206
501.95	8.188
502.29	8.209
502.64	7.765
502.98	7.774
503.33	8.387
503.67	7.657
504.02	7.814
504.36	8.166
504.71	7.926
505.06	7.713
505.40	8.043
505.75	8.636
506.09	8.072
506.44	8.208
506.78	7.334
507.13	7.655
507.47	8.366
507.82	8.092
508.16	8.463
508.51	8.589
508.85	8.571
509.19	8.338
509.54	8.669
509.88	7.825
510.23	8.427
510.57	7.780
510.92	7.823
511.26	7.984
511.61	8.904
511.95	8.271
512.30	8.522
512.64	8.856
512.98	8.033
513.33	7.562
513.67	6.946
514.02	8.173
514.36	8.422
514.70	9.168
515.05	8.902
515.39	8.281
515.74	8.396
516.08	8.286
516.42	8.888
516.77	8.509
517.11	8.563
517.46	8.807
517.80	8.870
518.14	9.614
518.49	9.832
518.83	8.495
519.17	9.319
519.52	8.932
519.86	9.563
520.20	7.962
520.55	9.922
520.89	9.919
521.23	8.951
521.58	8.796
521.92	8.211
522.26	8.935
522.61	9.625
522.95	9.247
523.29	8.300
523.64	9.091
523.98	9.005
524.32	9.966
524.66	9.585
525.01	8.935
525.35	9.166
525.69	9.704
526.04	9.725
526.38	9.184
526.72	9.792
527.06	10.127
527.41	9.072
527.75	8.184
528.09	8.557
528.43	9.213
528.78	8.735
529.12	9.452
529.46	9.435
529.80	9.258
530.15	9.382
530.49	9.833
530.83	8.677
531.17	8.616
531.51	9.350
531.86	9.384
532.20	9.380
532.54	10.144
532.88	8.945
533.22	9.483
533.57	9.103
533.91	9.704
534.25	10.183
534.59	9.491
534.93	9.469
535.27	9.226
535.62	9.183
535.96	9.421
536.30	8.768
536.64	9.084
536.98	10.103
537.32	9.598
537.66	9.897
538.01	8.984
538.35	10.255
538.69	9.130
539.03	9.084
539.37	8.973
539.71	10.290
540.05	8.900
540.39	10.240
540.73	9.377
541.07	9.265
541.42	8.838
541.76	9.928
542.10	9.613
542.44	9.465
542.78	7.845
543.12	9.025
543.46	8.867
543.80	9.650
544.14	9.749
544.48	9.474
544.82	9.723
545.16	8.913
545.50	10.189
545.84	9.656
546.18	8.839
546.52	9.762
546.86	9.640
547.20	10.076
547.54	9.325
547.88	9.829
548.22	9.212
548.56	9.725
548.90	9.965
549.24	10.088
549.58	10.209
549.92	9.925
550.26	10.734
550.60	9.437
550.94	9.286
551.28	8.862
551.62	10.401
551.96	9.425
552.30	8.760
552.64	9.391
552.98	10.327
553.32	8.561
553.66	9.408
554.00	10.116
554.34	9.922
554.68	9.729
555.02	9.603
555.36	9.134
555.69	9.608
556.03	10.939
556.37	9.227
556.71	9.427
557.05	10.469
557.39	9.558
557.73	10.456
558.07	10.563
558.41	9.976
558.75	10.705
559.08	10.468
559.42	9.365
559.76	10.447
560.10	10.595
560.44	9.184
560.78	9.241
561.12	9.166
561.45	9.896
561.79	9.692
562.13	9.414
562.47	9.709
562.81	10.083
563.15	9.202
563.48	8.464
563.82	9.461
564.16	8.563
564.50	8.954
564.84	10.489
565.17	8.941
565.51	10.134
565.85	10.070
566.19	9.882
566.52	9.247
566.86	10.383
567.20	9.780
567.54	9.572
567.88	9.405
568.21	9.672
568.55	9.677
568.89	9.231
569.23	8.936
569.56	8.828
569.90	9.722
570.24	9.259
570.57	8.766
570.91	9.134
571.25	8.953
571.59	9.082
571.92	8.651
572.26	8.824
572.60	8.756
572.93	8.906
573.27	8.696
573.61	8.449
573.95	8.798
574.28	8.634
574.62	8.633
574.96	8.527
575.29	8.467
575.63	8.327
575.97	8.207
576.30	9.023
576.64	8.297
576.98	8.136
577.31	8.636
577.65	8.387
577.98	8.444
578.32	8.475
578.66	8.423
578.99	8.469
579.33	8.463
579.67	8.529
580.00	8.749
580.34	8.566
580.67	8.469
581.01	8.543
581.35	8.550
581.68	8.642
582.02	8.485
582.35	8.503
582.69	8.597
583.02	8.567
583.36	8.365
583.70	8.891
584.03	8.598
584.37	8.792
584.70	8.511
585.04	8.318
585.37	8.740
585.71	8.484
586.04	8.752
586.38	8.771
586.72	8.802
587.05	8.518
587.39	8.843
587.72	8.641
588.06	8.915
588.39	9.115
588.73	9.057
589.06	8.237
589.40	9.117
589.73	9.237
590.07	8.943
590.40	9.411
590.73	9.538
591.07	9.524
591.40	9.228
591.74	8.862
592.07	9.217
592.41	9.747
592.74	9.374
593.08	8.866
593.41	9.016
593.75	9.370
594.08	8.652
594.41	9.495
594.75	9.201
595.08	8.882
595.42	9.350
595.75	9.697
596.09	8.727
596.42	9.133
596.75	9.273
597.09	9.375
597.42	9.010
597.75	9.475
598.09	9.410
598.42	9.702
598.76	8.925
599.09	9.622
599.42	8.694
599.76	8.670
600.09	9.213
600.42	8.398
600.76	8.930
601.09	8.588
601.42	9.179
601.76	8.807
602.09	9.594
602.42	9.249
602.76	8.770
603.09	9.051
603.42	9.327
603.76	8.728
604.09	9.691
604.42	9.317
604.76	8.763
605.09	8.928
605.42	9.242
605.75	9.091
606.09	9.067
606.42	9.055
606.75	9.325
607.09	9.235
607.42	9.637
607.75	8.586
608.08	9.775
608.42	8.729
608.75	9.405
609.08	8.026
609.41	9.850
609.75	9.057
610.08	9.199
610.41	8.855
610.74	9.403
611.07	8.990
611.41	8.940
611.74	9.684
612.07	9.152
612.40	9.861
612.73	8.854
613.07	8.632
613.40	8.971
613.73	8.820
614.06	9.016
614.39	9.432
614.72	8.914
615.06	10.103
615.39	9.931
615.72	9.015
616.05	9.391
616.38	9.668
616.71	9.266
617.05	9.422
617.38	9.935
617.71	9.667
618.04	9.921
618.37	9.876
618.70	9.647
619.03	10.515
619.36	9.720
619.69	9.642
620.03	9.840
620.36	10.582
620.69	10.643
621.02	9.976
621.35	9.702
621.68	9.901
622.01	8.467
622.34	9.631
622.67	8.600
623.00	9.173
623.33	11.102
623.66	9.960
623.99	10.686
624.32	9.611
624.65	9.766
624.99	8.750
625.32	9.005
625.65	9.287
625.98	10.833
626.31	10.823
626.64	10.811
626.97	11.029
627.30	9.907
627.63	11.163
627.96	10.428
628.29	10.803
628.62	10.619
628.95	11.088
629.28	10.434
629.61	11.390
629.94	11.411
630.26	10.879
630.59	11.832
630.92	9.484
631.25	9.944
631.58	11.279
631.91	10.820
632.24	10.888
632.57	11.058
632.90	12.669
633.23	12.645
633.56	11.698
633.89	10.158
634.22	9.615
634.55	9.855
634.88	10.977
635.20	11.096
635.53	11.453
635.86	13.043
636.19	11.460
636.52	11.590
636.85	10.691
637.18	11.140
637.51	10.569
637.83	10.754
638.16	9.957
638.49	11.816
638.82	11.252
639.15	10.429
639.48	11.208
639.81	9.091
640.13	11.332
640.46	11.339
640.79	10.543
641.12	11.473
641.45	12.442
641.77	10.828
642.10	11.238
642.43	11.448
642.76	11.649
643.09	11.419
643.41	11.649
643.74	11.111
644.07	11.640
644.40	10.469
644.73	10.866
645.05	12.595
645.38	12.308
645.71	10.496
646.04	12.268
646.36	10.038
646.69	13.153
647.02	12.891
647.35	12.400
647.67	15.431
648.00	14.175
648.33	12.909
648.66	13.729
648.98	13.390
649.31	11.360
649.64	9.811
649.96	9.459
650.29	8.142
650.62	12.059
650.94	12.384
651.27	12.139
651.60	11.663
651.92	11.641
652.25	11.472
652.58	10.233
652.90	10.854
653.23	10.420
653.56	11.111
653.88	10.401
654.21	10.019
654.54	10.882
654.86	13.669
655.19	10.000
655.52	10.022
655.84	8.987
656.17	8.536
656.49	11.363
656.82	13.459
657.15	10.858
657.47	8.182
657.80	5.970
658.13	4.934
658.45	8.293
658.78	8.019
659.10	7.501
659.43	7.904
659.75	6.901
660.08	7.536
660.41	8.292
660.73	8.864
661.06	8.909
661.38	11.492
661.71	12.035
662.03	11.343
662.36	9.069
662.68	9.592
663.01	12.500
663.33	12.736
663.66	13.158
663.98	11.247
664.31	10.488
664.63	10.321
664.96	11.876
665.28	10.875
665.61	12.383
665.93	10.369
666.26	13.245
666.58	12.615
666.91	13.817
667.23	12.315
667.56	12.593
667.88	9.774
668.21	10.152
668.53	13.198
668.86	11.224
669.18	9.137
669.50	11.825
669.83	8.500
670.15	7.750
670.48	13.784
670.80	9.645
671.13	10.120
671.45	11.735
671.77	11.594
672.10	9.011
672.42	9.761
672.75	7.961
673.07	10.654
673.39	11.284
673.72	11.777
674.04	6.809
674.37	12.009
674.69	10.514
675.01	12.093
675.34	8.824
675.66	10.238
675.98	8.838
676.31	11.083
676.63	10.052
676.95	9.832
677.28	13.861
677.60	10.276
677.92	13.283
678.25	10.673
678.57	11.137
678.89	10.321
679.22	10.780
679.54	6.904
679.86	11.135
680.18	10.251
680.51	7.187
680.83	9.167
681.15	11.547
681.48	11.064
681.80	10.435
682.12	11.349
682.44	8.621
682.77	9.318
683.09	9.314
683.41	10.025
683.73	12.563
684.06	9.137
684.38	6.715
684.70	13.395
685.02	8.874
685.34	6.485
685.67	7.510
685.99	10.978
686.31	9.328
686.63	8.738
686.96	7.520
687.28	7.392
687.60	9.240
687.92	8.228
688.24	11.158
688.56	7.912
688.89	11.872
689.21	8.140
689.53	8.951
689.85	11.899
690.17	8.333
690.49	11.765
690.82	10.074
691.14	12.272
691.46	10.500
691.78	8.852
692.10	12.156
692.42	10.321
692.74	10.900
693.06	10.602
693.39	7.389
693.71	9.535
694.03	10.628
694.35	8.911
694.67	11.196
694.99	10.243
695.31	7.365
695.63	9.189
695.95	8.146
696.27	10.482
696.59	7.418
696.91	6.838
697.23	8.883
697.56	11.658
697.88	8.431
698.20	7.748
698.52	6.971
698.84	10.025
699.16	9.763
699.48	12.042
699.80	10.165
700.12	8.815
700.44	5.310
700.76	12.618
701.08	7.619
701.40	10.526
701.72	11.333
702.04	8.163
702.36	10.164
702.68	9.732
703.00	6.940
703.32	6.587
703.64	11.672
703.96	9.177
704.28	0.704
704.60	9.247
704.91	9.211
705.23	8.421
705.55	8.922
705.87	6.835
706.19	12.351
706.51	5.469
706.83	8.791
707.15	5.763
707.47	9.880
707.79	8.596
708.11	11.111
708.43	7.733
708.74	11.202
709.06	8.896
709.38	7.418
709.70	5.519
710.02	7.343
710.34	0.709
710.66	8.240
710.98	9.441
711.29	10.653
711.61	6.383
711.93	8.614
712.25	6.792
712.57	9.375
712.89	4.082
713.20	7.258
713.52	3.659
713.84	6.204
714.16	12.838
714.48	9.898
714.80	6.734
715.11	10.653
715.43	8.191
715.75	4.912
716.07	4.727
716.39	8.532
716.70	8.400
717.02	10.484
717.34	12.121
717.66	6.818
717.97	4.630
718.29	11.556
718.61	4.955
718.93	7.983
719.24	10.460
719.56	7.589
719.88	3.137
720.20	2.991
720.51	8.333
720.83	7.113
721.15	7.347
721.46	7.173
721.78	2.597
722.10	9.690
722.42	12.174
722.73	6.787
723.05	7.834
723.37	4.072
723.68	5.687
724.00	7.870
724.32	7.477
724.63	6.787
724.95	7.763
725.27	11.268
725.58	10.046
725.90	-0.901
726.22	6.114
726.53	7.787
726.85	8.889
727.16	9.312
727.48	9.274
727.80	2.740
728.11	7.556
728.43	6.584
728.74	3.947
729.06	10.917
729.38	6.589
729.69	6.400
730.01	5.858
730.32	5.578
730.64	7.692
730.96	5.792
731.27	4.633
731.59	8.081
731.90	8.224
732.22	5.316
732.53	6.316
732.85	2.113
733.16	8.059
733.48	2.985
733.80	8.364
734.11	4.610
734.43	7.581
734.74	8.411
735.06	7.074
735.37	3.195
735.69	2.817
736.00	7.778
736.32	9.091
736.63	6.667
736.95	5.447
737.26	8.333
737.58	3.285
737.89	3.019
738.21	9.542
738.52	9.016
738.83	8.120
739.15	5.455
739.46	-0.450
739.78	3.861
740.09	4.365
740.41	3.030
740.72	3.187
741.04	6.719
741.35	6.726
741.66	5.914
741.98	1.531
742.29	4.663
742.61	1.734
742.92	3.922
743.23	9.453
743.55	3.109
743.86	10.145
744.18	0.000
744.49	3.889
744.80	5.376
745.12	4.615
745.43	5.348
745.74	4.278
746.06	10.345
746.37	2.222
746.68	4.865
747.00	-5.525
747.31	4.188
747.62	7.368
747.94	12.264
748.25	9.852
748.56	6.566
748.88	6.557
749.19	10.363
749.50	4.706
749.82	9.000
750.13	2.427
750.44	9.442
750.75	5.600
751.07	5.439
751.38	5.078
751.69	9.127
752.01	6.723
752.32	5.785
752.63	4.367
752.94	9.600
753.26	5.479
753.57	0.948
753.88	5.116
754.19	0.000
754.51	-1.255
754.82	5.417
755.13	0.442
755.44	6.061
755.75	8.032
756.07	4.292
756.38	5.439
756.69	10.189
757.00	6.028
757.31	8.997
757.63	7.190
757.94	4.545
758.25	4.464
758.56	4.324
758.87	4.464
759.18	10.592
759.50	3.203
759.81	2.703
760.12	5.338
760.43	5.648
760.74	8.084
761.05	5.769
761.36	8.012
761.67	7.599
761.99	7.358
762.30	7.273
762.61	2.846
762.92	8.000
763.23	8.372
763.54	4.569
763.85	7.240
764.16	4.783
764.47	6.522
764.78	4.032
765.10	7.480
765.41	7.358
765.72	4.682
766.03	8.361
766.34	8.712
766.65	8.203
766.96	5.333
767.27	12.849
767.58	6.918
767.89	5.844
768.20	6.081
768.51	4.598
768.82	-0.625
769.13	4.167
769.44	5.660
769.75	0.000
770.06	-0.971
770.37	5.319
770.68	4.103
770.99	6.091
771.30	3.093
771.61	0.448
771.92	8.019
772.23	3.365
772.54	3.529
772.85	6.849
773.16	3.226
773.47	5.732
773.78	9.581
774.09	-0.658
774.39	-2.941
774.70	3.759
775.01	-2.308
775.32	1.587
775.63	2.362
775.94	-5.660
776.25	-2.963
776.56	0.909
776.87	9.402
777.18	10.000
777.48	-6.731
777.79	4.630
778.10	-2.830
778.41	-2.941
778.72	-1.887
779.03	1.754
779.34	-4.202
779.65	10.563
779.95	9.353
780.26	-7.258
780.57	2.899
780.88	-0.917
781.19	-8.333
781.50	-0.820
781.80	-1.460
782.11	-2.564
782.42	0.690
782.73	9.091
783.04	-1.600
783.34	0.800
783.65	0.813
783.96	-15.574
784.27	2.521
784.57	-2.804
784.88	-5.357
785.19	3.093
785.50	-3.158
785.81	-8.000
786.11	-4.950
786.42	-34.118
786.73	-8.333
787.04	-4.082
787.34	-3.704
787.65	8.491
787.96	-18.557
788.26	-2.970
788.57	6.087
788.88	-16.514
789.19	-4.132
789.49	-5.217
789.80	-2.586
790.11	-21.951
790.41	2.247
790.72	-9.302
791.03	-10.465
791.33	-19.481
791.64	-3.659
791.95	-2.439
792.25	-9.639
792.56	-8.642
792.87	-9.859
793.17	13.253
793.48	-27.059
793.79	-10.000
794.09	-33.333
794.40	5.435
794.70	-3.478
795.01	-10.092
795.32	3.150
795.62	0.000
795.93	-5.882
796.23	4.040
796.54	-15.116
796.85	-15.942
797.15	-18.750
797.46	-25.424
797.76	-11.475
798.07	-6.579
798.37	-9.677
798.68	-28.125
798.99	1.538
799.29	-16.667
799.60	-15.942
799.90	0.000
800.21	-17.544
800.51	-3.448
800.82	-37.736
801.12	-19.608
801.43	-27.419
801.73	1.613
802.04	8.000
802.34	-9.434
802.65	-28.947
802.95	-5.455
803.26	-30.189
803.56	-13.115
803.87	-16.000
804.17	-33.333
804.48	-21.154
804.78	-48.980
805.09	-14.894
805.39	-6.780
805.70	-47.917
806.00	-7.143
806.30	-22.034
806.61	-26.154
806.91	-41.538
807.22	-14.474
807.52	-10.000
807.83	-18.966
808.13	1.266
808.43	-18.033
808.74	-13.115
809.04	5.405
809.35	-14.815
809.65	1.786
809.95	0.000
810.26	-30.612
810.56	-28.302
810.86	-13.725
811.17	-32.432
811.47	-77.778
811.77	-23.529
812.08	-18.182
812.38	-62.500
812.69	-33.333
812.99	-2.381
813.29	21.739
813.59	-31.429
813.90	-30.952
814.20	-18.182
814.50	-8.163
814.81	-17.647
815.11	-10.417
815.41	-24.390
815.72	-61.538
816.02	-12.766
816.32	6.250
816.62	6.061
816.93	-69.697
817.23	-32.432
817.53	-32.353
817.84	-15.000
818.14	-58.824
818.44	-37.500
818.74	-119.048
819.04	-34.286
819.35	-45.714
819.65	-25.000
819.95	-30.769
820.25	-72.222
820.56	-44.828
820.86	-64.286
821.16	-95.652
821.46	-28.571
821.76	-12.963
822.07	-69.565
822.37	-32.653
822.67	-41.860
822.97	-73.913
823.27	-57.692
823.57	-55.556
823.88	-53.571
824.18	-58.974
824.48	-57.143
824.78	-54.545
825.08	-80.000
825.38	-27.500
825.69	-155.556
825.99	-66.667
826.29	6.667
826.59	-44.444
826.89	-40.741
827.19	-50.000
827.49	-72.727
827.79	-100.000
828.09	-27.273
828.39	-117.391
828.70	-74.074
829.00	-17.857
829.30	-28.571
829.60	-22.581
829.90	-53.846
830.20	-43.590
830.50	-86.364
830.80	-90.476
831.10	-83.333
831.40	-100.000
831.70	-66.667
832.00	-82.353
832.30	-30.435
832.60	-16.667
832.90	-163.636
833.20	-88.889
833.50	-53.125
833.80	-34.615
834.10	-20.000
834.40	-45.833
834.70	-95.455
835.00	-38.462
835.30	-100.000
835.60	-240.000
835.90	-75.000
836.20	-107.143
836.50	-21.739
836.80	-155.556
837.10	-133.333
837.40	-250.000
837.70	-60.870
838.00	-42.857
838.30	2300.000
838.60	24.000
838.90	-400.000
839.19	-111.111
839.49	-1150.000
839.79	-35.294
840.09	-166.667
840.39	-3.571
840.69	-61.111
840.99	-91.667
841.29	-51.724
841.59	-53.333
841.88	-81.818
842.18	-316.667
842.48	-93.750
842.78	-61.538
843.08	-135.294
843.38	-65.000
843.68	-146.154
843.97	-105.882
844.27	-100.000
844.57	-12.500
844.87	-90.909
845.17	-115.789
845.47	-111.111
845.76	-5.556
846.06	-38.095
846.36	-50.000
846.66	-222.222
846.96	-55.000
847.25	-380.000
847.55	-250.000
847.85	-120.000
848.15	-450.000
848.44	-78.947
848.74	-100.000
849.04	-52.632
849.34	-733.333
849.63	-183.333
849.93	-52.941
850.23	-100.000
850.53	-633.333
850.82	-320.000
851.12	-300.000
851.42	-157.143
851.71	-200.000
852.01	-142.857
852.31	-366.667
852.61	-100.000
852.90	-400.000
853.20	-266.667
853.50	-211.111
853.79	-220.000
854.09	-90.000
854.39	-63.158
854.68	-55.000
854.98	-625.000
855.28	-55.556
855.57	-164.286
855.87	-126.316
856.17	-118.750
856.46	-34.615
856.76	-120.000
857.05	-62.500
857.35	-58.333
857.65	-66.667
857.94	-212.500
858.24	-91.304
858.53	-300.000
858.83	-766.667
859.13	-181.818
859.42	-240.000
859.72	350.000
860.01	-100.000
860.31	-240.000
860.60	-287.500
860.90	-500.000
861.20	-416.667
861.49	-150.000
861.79	750.000
862.08	-22.581
862.38	-89.474
862.67	0.000
862.97	-290.000
863.26	-125.000
863.56	-65.217
863.85	-283.333
864.15	-35.714
864.44	-100.000
864.74	-216.667
865.03	-322.222
865.33	-466.667
865.62	-2100.000
865.92	-1100.000
866.21	-300.000
866.51	-90.909
866.80	-766.667
867.10	-400.000
867.39	-133.333
867.69	-100.000
867.98	260.000
868.27	-475.000
868.57	450.000
868.86	-53.333
869.16	-23.077
869.45	900.000
869.75	-333.333
870.04	-183.333
870.33	-105.882
870.63	-85.714
870.92	26.087
871.22	-187.500
871.51	580.000
871.80	-106.250
872.10	-666.667
>>>>>End Processed Spectral Data<<<<<
