SpectraSuite Data File
++++++++++++++++++++++++++++++++++++
Date: Tue May 12 19:50:36 PDT 2015
User: schluterlab
Dark Spectrum Present: Yes
Reference Spectrum Present: Yes
Number of Sampled Component Spectra: 1
Spectrometers: USB2E3373
Integration Time (usec): 3000 (USB2E3373)
Spectra Averaged: 3 (USB2E3373)
Boxcar Smoothing: 0 (USB2E3373)
Correct for Electrical Dark: No (USB2E3373)
Strobe/Lamp Enabled: No (USB2E3373)
Correct for Detector Non-linearity: No (USB2E3373)
Correct for Stray Light: No (USB2E3373)
Number of Pixels in Processed Spectrum: 2048
>>>>>Begin Processed Spectral Data<<<<<
178.53	0.000
178.91	-140.000
179.29	-350.000
179.67	666.667
180.04	0.000
180.42	-260.000
180.80	-233.333
181.18	750.000
181.56	-600.000
181.94	433.333
182.31	1900.000
182.69	-185.714
183.07	0.000
183.45	241.667
183.83	540.000
184.20	350.000
184.58	1550.000
184.96	466.667
185.34	-566.667
185.72	-85.714
186.09	-100.000
186.47	-2600.000
186.85	-140.000
187.23	158.333
187.61	-271.429
187.98	-540.000
188.36	600.000
188.74	-300.000
189.12	-200.000
189.49	-180.000
189.87	300.000
190.25	244.444
190.63	900.000
191.00	460.000
191.38	-866.667
191.76	400.000
192.14	-185.714
192.51	-90.000
192.89	-260.000
193.27	-360.000
193.65	-800.000
194.02	-183.333
194.40	2500.000
194.78	-125.000
195.15	-314.286
195.53	733.333
195.91	400.000
196.29	-475.000
196.66	-533.333
197.04	-328.571
197.42	160.000
197.79	-300.000
198.17	-125.000
198.55	-1200.000
198.92	-255.556
199.30	1400.000
199.68	-450.000
200.05	-1200.000
200.43	-72.222
200.81	-183.333
201.18	366.667
201.56	-750.000
201.94	-1900.000
202.31	-116.667
202.69	-88.889
203.07	-116.667
203.44	-675.000
203.82	0.000
204.19	325.000
204.57	-633.333
204.95	200.000
205.32	460.000
205.70	400.000
206.08	-2600.000
206.45	-300.000
206.83	1900.000
207.20	-155.556
207.58	-69.231
207.96	533.333
208.33	533.333
208.71	666.667
209.08	800.000
209.46	-33.333
209.84	733.333
210.21	-466.667
210.59	600.000
210.96	311.111
211.34	-575.000
211.71	1700.000
212.09	-380.000
212.46	-300.000
212.84	-112.500
213.22	257.143
213.59	-237.500
213.97	0.000
214.34	-750.000
214.72	-800.000
215.09	800.000
215.47	-86.667
215.84	-75.000
216.22	-1100.000
216.59	1400.000
216.97	-100.000
217.34	-200.000
217.72	11.111
218.09	400.000
218.47	-63.158
218.84	-212.500
219.22	-57.143
219.59	-200.000
219.97	-70.000
220.34	383.333
220.72	209.091
221.09	-850.000
221.47	0.000
221.84	1150.000
222.22	-450.000
222.59	-500.000
222.97	-26.087
223.34	173.333
223.72	371.429
224.09	-166.667
224.46	230.769
224.84	-60.000
225.21	-850.000
225.59	-425.000
225.96	-40.000
226.34	333.333
226.71	220.000
227.08	-92.308
227.46	-128.571
227.83	-41.667
228.21	-750.000
228.58	433.333
228.95	-36.842
229.33	-50.000
229.70	-300.000
230.08	-200.000
230.45	-566.667
230.82	-1300.000
231.20	-47.619
231.57	-520.000
231.95	-766.667
232.32	333.333
232.69	-1750.000
233.07	0.000
233.44	-125.000
233.81	12.903
234.19	-640.000
234.56	-5.556
234.93	-216.667
235.31	-25.926
235.68	0.000
236.05	-80.769
236.43	-84.211
236.80	-63.636
237.17	-121.429
237.55	-95.000
237.92	-9.302
238.29	-6.452
238.67	-25.000
239.04	-22.857
239.41	3.922
239.79	-8.000
240.16	-35.000
240.53	-6.897
240.91	-12.329
241.28	8.451
241.65	1.563
242.02	-1.754
242.40	-13.333
242.77	12.632
243.14	12.941
243.51	2.151
243.89	11.429
244.26	11.111
244.63	6.122
245.00	6.250
245.38	0.840
245.75	5.932
246.12	13.281
246.49	8.800
246.87	9.016
247.24	3.521
247.61	12.583
247.98	12.921
248.36	8.176
248.73	15.341
249.10	11.111
249.47	10.938
249.84	13.706
250.22	9.375
250.59	9.551
250.96	8.636
251.33	18.868
251.70	13.761
252.08	20.346
252.45	11.020
252.82	10.549
253.19	16.732
253.56	18.431
253.94	17.073
254.31	21.942
254.68	17.014
255.05	22.185
255.42	14.182
255.79	18.543
256.16	15.278
256.54	18.788
256.91	22.115
257.28	15.584
257.65	14.426
258.02	20.420
258.39	18.127
258.76	15.902
259.14	16.176
259.51	21.127
259.88	18.732
260.25	14.205
260.62	14.045
260.99	15.599
261.36	17.241
261.73	17.867
262.10	20.981
262.47	17.631
262.85	17.738
263.22	16.398
263.59	22.252
263.96	18.538
264.33	14.286
264.70	18.919
265.07	18.966
265.44	18.735
265.81	20.241
266.18	19.672
266.55	20.952
266.92	19.866
267.29	18.444
267.66	17.045
268.03	20.645
268.40	19.680
268.77	19.822
269.14	18.908
269.51	18.326
269.88	19.444
270.25	19.198
270.62	20.588
270.99	18.316
271.36	17.881
271.73	17.917
272.10	17.220
272.47	20.200
272.84	17.197
273.21	19.207
273.58	15.714
273.95	18.924
274.32	18.762
274.69	18.787
275.06	21.013
275.43	14.800
275.80	22.180
276.17	17.391
276.54	18.821
276.91	20.345
277.28	19.536
277.65	18.526
278.02	19.318
278.39	17.967
278.76	19.553
279.13	19.857
279.50	19.134
279.87	18.113
280.23	18.033
280.60	16.431
280.97	16.872
281.34	18.136
281.71	17.407
282.08	19.320
282.45	17.284
282.82	17.845
283.19	17.003
283.56	20.478
283.92	17.852
284.29	18.613
284.66	18.230
285.03	17.153
285.40	18.833
285.77	19.540
286.14	18.225
286.51	16.881
286.87	19.611
287.24	15.705
287.61	17.438
287.98	19.562
288.35	16.279
288.72	18.349
289.08	17.296
289.45	16.381
289.82	16.615
290.19	16.667
290.56	17.945
290.93	18.021
291.29	15.887
291.66	16.994
292.03	18.795
292.40	18.561
292.77	17.347
293.13	15.565
293.50	16.529
293.87	15.534
294.24	15.590
294.60	15.984
294.97	14.127
295.34	14.658
295.71	14.979
296.08	14.891
296.44	16.996
296.81	16.300
297.18	14.489
297.55	14.824
297.91	14.594
298.28	13.427
298.65	14.489
299.02	15.166
299.38	13.648
299.75	15.315
300.12	14.868
300.48	14.671
300.85	13.081
301.22	14.183
301.59	14.355
301.95	15.976
302.32	15.067
302.69	13.436
303.05	13.932
303.42	15.580
303.79	13.371
304.15	15.855
304.52	14.190
304.89	13.641
305.25	14.106
305.62	15.455
305.99	12.878
306.35	15.324
306.72	14.052
307.09	14.472
307.45	12.513
307.82	13.554
308.19	13.421
308.55	13.713
308.92	12.712
309.29	12.657
309.65	13.622
310.02	12.683
310.38	14.392
310.75	13.115
311.12	12.920
311.48	13.258
311.85	12.057
312.22	13.740
312.58	14.602
312.95	12.526
313.31	13.373
313.68	12.512
314.05	14.399
314.41	14.342
314.78	12.864
315.14	14.594
315.51	14.697
315.87	16.016
316.24	13.650
316.61	14.854
316.97	13.039
317.34	14.354
317.70	12.885
318.07	13.597
318.43	14.178
318.80	13.206
319.16	14.166
319.53	13.396
319.89	13.920
320.26	14.946
320.62	14.729
320.99	15.612
321.35	14.229
321.72	14.444
322.08	14.950
322.45	14.694
322.81	15.369
323.18	14.957
323.54	16.114
323.91	14.801
324.27	13.211
324.64	14.714
325.00	15.196
325.37	15.558
325.73	14.690
326.10	14.623
326.46	14.597
326.83	15.128
327.19	15.022
327.56	15.208
327.92	15.278
328.29	15.681
328.65	15.725
329.01	15.321
329.38	15.886
329.74	16.156
330.11	15.377
330.47	15.177
330.84	14.380
331.20	16.266
331.56	14.623
331.93	15.279
332.29	15.079
332.66	15.823
333.02	15.227
333.38	16.085
333.75	15.737
334.11	15.642
334.48	14.669
334.84	15.305
335.20	14.145
335.57	15.531
335.93	15.070
336.29	14.625
336.66	15.209
337.02	15.322
337.38	14.906
337.75	15.273
338.11	16.864
338.47	14.485
338.84	13.904
339.20	15.949
339.56	14.911
339.93	15.676
340.29	14.143
340.65	15.982
341.02	13.818
341.38	14.916
341.74	15.214
342.11	14.235
342.47	14.860
342.83	14.831
343.20	14.235
343.56	14.073
343.92	15.486
344.28	14.065
344.65	14.041
345.01	14.024
345.37	14.274
345.73	13.953
346.10	14.434
346.46	13.891
346.82	13.679
347.19	15.055
347.55	15.051
347.91	14.906
348.27	14.153
348.63	15.385
349.00	15.526
349.36	14.922
349.72	14.368
350.08	13.912
350.45	13.995
350.81	15.194
351.17	12.521
351.53	13.527
351.89	14.335
352.26	13.415
352.62	14.473
352.98	14.644
353.34	13.200
353.70	13.086
354.07	13.839
354.43	13.439
354.79	13.443
355.15	13.721
355.51	14.751
355.87	15.404
356.24	14.542
356.60	13.606
356.96	13.586
357.32	14.650
357.68	15.115
358.04	14.830
358.40	13.830
358.77	13.655
359.13	13.896
359.49	12.480
359.85	14.708
360.21	14.433
360.57	13.477
360.93	14.252
361.29	13.084
361.66	13.013
362.02	12.716
362.38	14.297
362.74	14.450
363.10	13.952
363.46	12.415
363.82	14.089
364.18	14.156
364.54	13.817
364.90	13.630
365.26	13.636
365.62	14.610
365.98	14.318
366.35	14.221
366.71	13.667
367.07	13.579
367.43	13.718
367.79	12.791
368.15	13.714
368.51	14.532
368.87	14.244
369.23	13.323
369.59	13.088
369.95	14.009
370.31	12.348
370.67	14.286
371.03	13.313
371.39	13.973
371.75	12.704
372.11	13.111
372.47	12.769
372.83	14.390
373.19	13.931
373.55	12.799
373.91	13.561
374.27	14.790
374.63	14.433
374.99	13.177
375.35	12.772
375.71	13.989
376.07	13.004
376.42	13.624
376.78	12.683
377.14	12.849
377.50	13.406
377.86	13.858
378.22	12.616
378.58	13.618
378.94	14.080
379.30	13.642
379.66	12.996
380.02	13.795
380.38	12.595
380.74	13.922
381.09	13.024
381.45	13.016
381.81	13.074
382.17	13.550
382.53	13.281
382.89	13.278
383.25	13.063
383.61	12.969
383.97	14.360
384.32	13.484
384.68	13.155
385.04	12.794
385.40	13.163
385.76	13.219
386.12	12.937
386.48	12.851
386.83	13.167
387.19	13.282
387.55	12.565
387.91	11.838
388.27	12.988
388.62	12.824
388.98	14.249
389.34	12.101
389.70	13.782
390.06	13.399
390.42	12.779
390.77	12.676
391.13	13.012
391.49	13.881
391.85	13.240
392.20	13.333
392.56	12.312
392.92	13.420
393.28	13.465
393.64	13.616
393.99	12.857
394.35	13.498
394.71	12.914
395.07	14.058
395.42	12.190
395.78	12.634
396.14	12.592
396.50	13.583
396.85	13.681
397.21	13.389
397.57	12.706
397.92	12.468
398.28	12.890
398.64	13.079
399.00	13.697
399.35	11.899
399.71	12.814
400.07	12.539
400.42	14.231
400.78	13.500
401.14	14.520
401.49	12.992
401.85	13.778
402.21	13.261
402.57	11.848
402.92	13.413
403.28	13.069
403.63	13.654
403.99	12.682
404.35	12.548
404.70	12.730
405.06	12.151
405.42	13.858
405.77	12.723
406.13	12.664
406.49	12.871
406.84	13.325
407.20	13.321
407.55	13.293
407.91	12.727
408.27	12.832
408.62	13.119
408.98	14.028
409.34	12.996
409.69	12.241
410.05	13.083
410.40	12.909
410.76	12.827
411.11	12.670
411.47	12.993
411.83	13.651
412.18	13.024
412.54	12.484
412.89	12.759
413.25	12.915
413.60	13.393
413.96	13.916
414.31	12.683
414.67	13.437
415.03	13.278
415.38	13.301
415.74	13.566
416.09	12.061
416.45	13.163
416.80	11.961
417.16	13.822
417.51	13.116
417.87	14.159
418.22	14.305
418.58	13.753
418.93	13.733
419.29	13.094
419.64	13.668
420.00	13.425
420.35	13.183
420.71	14.085
421.06	13.628
421.42	13.425
421.77	13.520
422.12	13.290
422.48	13.649
422.83	12.827
423.19	13.647
423.54	13.317
423.90	13.782
424.25	13.897
424.61	13.548
424.96	13.391
425.31	13.164
425.67	13.455
426.02	13.043
426.38	12.741
426.73	13.084
427.09	13.329
427.44	13.148
427.79	15.037
428.15	13.253
428.50	13.882
428.85	13.534
429.21	14.405
429.56	13.481
429.92	13.683
430.27	13.120
430.62	13.899
430.98	13.111
431.33	13.459
431.68	13.129
432.04	13.061
432.39	13.131
432.74	13.852
433.10	13.341
433.45	14.440
433.80	13.988
434.16	13.291
434.51	14.270
434.86	13.535
435.22	14.028
435.57	13.522
435.92	13.313
436.28	13.636
436.63	13.417
436.98	13.889
437.34	14.459
437.69	13.889
438.04	12.861
438.39	13.903
438.75	13.785
439.10	13.810
439.45	14.570
439.81	13.968
440.16	14.719
440.51	14.002
440.86	14.268
441.22	13.580
441.57	14.416
441.92	14.025
442.27	14.114
442.63	14.616
442.98	14.364
443.33	14.454
443.68	13.422
444.03	14.485
444.39	13.743
444.74	13.566
445.09	14.109
445.44	13.936
445.79	14.887
446.15	13.703
446.50	13.939
446.85	14.356
447.20	14.059
447.55	13.322
447.91	14.345
448.26	14.421
448.61	14.320
448.96	13.838
449.31	13.984
449.66	14.407
450.02	13.905
450.37	14.459
450.72	13.944
451.07	14.239
451.42	15.020
451.77	13.934
452.12	14.035
452.47	14.363
452.83	14.259
453.18	14.652
453.53	15.545
453.88	14.869
454.23	14.249
454.58	15.013
454.93	13.896
455.28	14.325
455.63	15.465
455.98	14.467
456.34	14.401
456.69	14.692
457.04	14.698
457.39	14.794
457.74	14.665
458.09	14.437
458.44	15.328
458.79	14.782
459.14	15.385
459.49	14.650
459.84	15.339
460.19	15.197
460.54	14.141
460.89	14.235
461.24	15.260
461.59	15.710
461.94	14.924
462.29	14.411
462.64	15.460
462.99	15.736
463.34	14.945
463.69	15.638
464.04	14.240
464.39	15.048
464.74	16.093
465.09	15.241
465.44	14.397
465.79	14.440
466.14	14.141
466.49	15.348
466.84	15.172
467.19	14.555
467.54	14.523
467.89	15.349
468.24	15.025
468.59	15.249
468.94	14.055
469.29	15.433
469.64	16.047
469.99	15.934
470.34	15.842
470.68	16.154
471.03	15.255
471.38	15.183
471.73	15.407
472.08	15.587
472.43	15.906
472.78	14.648
473.13	15.579
473.48	16.044
473.83	15.918
474.17	15.143
474.52	16.008
474.87	15.657
475.22	16.455
475.57	15.864
475.92	14.952
476.27	15.913
476.61	15.662
476.96	15.708
477.31	15.925
477.66	16.328
478.01	15.480
478.36	16.218
478.70	16.169
479.05	16.135
479.40	16.142
479.75	16.040
480.10	15.476
480.45	16.283
480.79	16.347
481.14	16.131
481.49	15.887
481.84	15.657
482.19	15.268
482.53	15.833
482.88	15.658
483.23	16.181
483.58	15.396
483.92	15.628
484.27	16.118
484.62	16.030
484.97	15.598
485.31	15.120
485.66	14.231
486.01	14.306
486.36	14.047
486.70	14.338
487.05	15.032
487.40	14.732
487.75	14.801
488.09	15.194
488.44	15.311
488.79	15.558
489.13	14.879
489.48	15.945
489.83	16.227
490.17	16.034
490.52	16.635
490.87	16.271
491.22	17.110
491.56	16.156
491.91	17.018
492.26	16.675
492.60	17.449
492.95	16.427
493.30	16.675
493.64	16.126
493.99	17.454
494.34	17.283
494.68	16.848
495.03	15.669
495.37	17.689
495.72	16.825
496.07	16.988
496.41	16.156
496.76	16.285
497.11	16.544
497.45	17.579
497.80	17.757
498.14	17.265
498.49	17.565
498.84	16.509
499.18	17.125
499.53	17.134
499.87	17.153
500.22	17.247
500.56	18.053
500.91	18.091
501.26	17.743
501.60	17.329
501.95	16.735
502.29	17.188
502.64	16.775
502.98	17.012
503.33	17.074
503.67	16.794
504.02	17.875
504.36	16.846
504.71	17.447
505.06	17.515
505.40	17.802
505.75	17.746
506.09	17.281
506.44	18.777
506.78	17.452
507.13	18.024
507.47	17.839
507.82	17.299
508.16	17.094
508.51	18.435
508.85	18.407
509.19	17.992
509.54	17.847
509.88	17.376
510.23	18.202
510.57	18.342
510.92	18.027
511.26	17.921
511.61	18.664
511.95	17.525
512.30	18.145
512.64	18.240
512.98	18.783
513.33	16.940
513.67	18.084
514.02	18.329
514.36	18.683
514.70	18.640
515.05	18.841
515.39	19.197
515.74	19.110
516.08	18.958
516.42	18.769
516.77	18.199
517.11	19.083
517.46	19.425
517.80	19.655
518.14	19.608
518.49	19.728
518.83	20.104
519.17	20.116
519.52	20.050
519.86	20.329
520.20	19.236
520.55	19.974
520.89	19.366
521.23	20.040
521.58	20.238
521.92	19.493
522.26	19.794
522.61	20.683
522.95	20.342
523.29	19.501
523.64	19.946
523.98	19.556
524.32	20.539
524.66	20.530
525.01	20.550
525.35	19.836
525.69	20.096
526.04	20.437
526.38	20.288
526.72	20.208
527.06	20.394
527.41	20.907
527.75	20.101
528.09	20.085
528.43	19.702
528.78	20.126
529.12	19.247
529.46	20.797
529.80	19.469
530.15	19.597
530.49	21.060
530.83	19.306
531.17	20.198
531.51	19.486
531.86	21.078
532.20	21.212
532.54	20.216
532.88	19.855
533.22	21.049
533.57	19.241
533.91	20.165
534.25	20.434
534.59	19.601
534.93	19.610
535.27	19.731
535.62	19.581
535.96	19.400
536.30	19.137
536.64	20.672
536.98	20.354
537.32	20.387
537.66	20.381
538.01	20.471
538.35	20.873
538.69	19.250
539.03	21.125
539.37	19.095
539.71	20.435
540.05	20.622
540.39	21.278
540.73	20.879
541.07	20.147
541.42	19.886
541.76	20.576
542.10	20.014
542.44	20.376
542.78	18.695
543.12	19.639
543.46	19.821
543.80	20.515
544.14	20.143
544.48	20.070
544.82	20.014
545.16	19.710
545.50	20.233
545.84	20.775
546.18	19.700
546.52	20.292
546.86	19.740
547.20	21.439
547.54	20.015
547.88	19.943
548.22	19.480
548.56	21.001
548.90	20.351
549.24	20.760
549.58	21.684
549.92	20.376
550.26	21.313
550.60	21.174
550.94	20.397
551.28	20.244
551.62	21.867
551.96	21.086
552.30	20.233
552.64	20.060
552.98	19.688
553.32	19.318
553.66	19.803
554.00	21.004
554.34	20.625
554.68	20.494
555.02	20.238
555.36	19.380
555.69	19.370
556.03	19.956
556.37	20.480
556.71	20.060
557.05	20.313
557.39	20.000
557.73	20.362
558.07	21.283
558.41	19.553
558.75	20.664
559.08	21.106
559.42	22.157
559.76	21.146
560.10	21.760
560.44	19.952
560.78	20.436
561.12	19.910
561.45	20.164
561.79	20.191
562.13	19.496
562.47	20.566
562.81	21.001
563.15	21.065
563.48	19.625
563.82	20.087
564.16	19.158
564.50	19.771
564.84	19.773
565.17	20.029
565.51	19.704
565.85	20.352
566.19	20.181
566.52	19.498
566.86	18.648
567.20	19.494
567.54	19.911
567.88	18.629
568.21	18.581
568.55	19.298
568.89	18.297
569.23	18.273
569.56	17.931
569.90	17.173
570.24	17.179
570.57	16.253
570.91	16.485
571.25	17.355
571.59	16.361
571.92	16.062
572.26	16.199
572.60	16.196
572.93	16.077
573.27	15.866
573.61	16.125
573.95	15.615
574.28	15.421
574.62	15.597
574.96	15.046
575.29	15.256
575.63	15.159
575.97	14.894
576.30	16.021
576.64	15.436
576.98	15.044
577.31	15.570
577.65	15.576
577.98	14.641
578.32	14.847
578.66	15.259
578.99	15.787
579.33	15.060
579.67	15.676
580.00	15.472
580.34	15.430
580.67	15.615
581.01	15.118
581.35	14.946
581.68	14.588
582.02	14.773
582.35	14.796
582.69	14.960
583.02	15.019
583.36	14.962
583.70	15.769
584.03	15.303
584.37	15.472
584.70	15.348
585.04	14.859
585.37	15.155
585.71	15.282
586.04	14.785
586.38	15.772
586.72	15.455
587.05	15.617
587.39	15.533
587.72	15.115
588.06	15.503
588.39	15.805
588.73	15.522
589.06	15.881
589.40	16.755
589.73	16.193
590.07	16.338
590.40	16.410
590.73	17.201
591.07	16.277
591.40	16.948
591.74	17.397
592.07	16.714
592.41	17.198
592.74	16.915
593.08	15.740
593.41	16.078
593.75	15.774
594.08	16.053
594.41	15.976
594.75	16.484
595.08	16.245
595.42	16.260
595.75	16.212
596.09	16.773
596.42	16.237
596.75	17.000
597.09	16.698
597.42	16.471
597.75	17.308
598.09	16.854
598.42	17.037
598.76	16.302
599.09	15.882
599.42	16.680
599.76	16.124
600.09	16.331
600.42	15.352
600.76	16.205
601.09	15.882
601.42	16.184
601.76	15.544
602.09	16.590
602.42	16.717
602.76	16.885
603.09	15.666
603.42	16.099
603.76	15.904
604.09	16.416
604.42	16.316
604.76	16.796
605.09	15.872
605.42	16.256
605.75	15.989
606.09	16.133
606.42	16.317
606.75	16.874
607.09	16.744
607.42	16.797
607.75	16.667
608.08	16.885
608.42	16.974
608.75	16.458
609.08	16.204
609.41	17.367
609.75	17.483
610.08	17.106
610.41	16.539
610.74	16.785
611.07	17.345
611.41	16.649
611.74	17.519
612.07	16.183
612.40	17.827
612.73	16.898
613.07	17.733
613.40	17.539
613.73	17.297
614.06	18.150
614.39	17.516
614.72	17.296
615.06	17.796
615.39	17.379
615.72	16.517
616.05	16.812
616.38	17.794
616.71	17.289
617.05	17.588
617.38	17.548
617.71	18.027
618.04	18.265
618.37	17.266
618.70	18.274
619.03	19.362
619.36	19.735
619.69	18.507
620.03	19.146
620.36	19.577
620.69	18.921
621.02	18.369
621.35	19.574
621.68	19.352
622.01	19.519
622.34	18.844
622.67	19.815
623.00	19.247
623.33	19.685
623.66	19.522
623.99	18.740
624.32	18.983
624.65	18.750
624.99	19.297
625.32	19.826
625.65	18.495
625.98	20.250
626.31	18.615
626.64	19.189
626.97	20.864
627.30	20.741
627.63	20.558
627.96	21.043
628.29	21.319
628.62	22.577
628.95	20.908
629.28	22.107
629.61	21.003
629.94	21.577
630.26	20.711
630.59	22.827
630.92	20.969
631.25	20.335
631.58	21.279
631.91	20.501
632.24	22.249
632.57	22.117
632.90	23.616
633.23	23.226
633.56	22.767
633.89	22.032
634.22	22.436
634.55	21.945
634.88	23.561
635.20	21.918
635.53	24.721
635.86	24.728
636.19	20.873
636.52	23.181
636.85	21.643
637.18	25.259
637.51	23.848
637.83	21.089
638.16	23.755
638.49	23.487
638.82	24.332
639.15	24.857
639.48	21.106
639.81	22.504
640.13	26.187
640.46	23.465
640.79	21.860
641.12	21.240
641.45	23.328
641.77	22.771
642.10	24.430
642.43	26.431
642.76	24.552
643.09	24.394
643.41	25.090
643.74	24.306
644.07	23.986
644.40	23.827
644.73	23.389
645.05	24.237
645.38	23.654
645.71	24.618
646.04	27.881
646.36	25.379
646.69	25.919
647.02	29.687
647.35	26.400
647.67	27.655
648.00	28.155
648.33	26.012
648.66	26.902
648.98	23.390
649.31	23.752
649.64	23.236
649.96	23.480
650.29	21.416
650.62	23.377
650.94	26.063
651.27	25.434
651.60	23.518
651.92	25.763
652.25	21.797
652.58	20.646
652.90	23.665
653.23	21.207
653.56	22.049
653.88	22.263
654.21	24.764
654.54	22.326
654.86	24.820
655.19	22.258
655.52	19.933
655.84	15.001
656.17	13.870
656.49	18.379
656.82	21.348
657.15	16.880
657.47	12.966
657.80	9.734
658.13	8.068
658.45	13.530
658.78	13.134
659.10	12.703
659.43	13.555
659.75	13.437
660.08	14.679
660.41	15.400
660.73	16.898
661.06	20.545
661.38	24.798
661.71	24.726
662.03	26.157
662.36	24.344
662.68	23.501
663.01	28.846
663.33	25.472
663.66	25.359
663.98	24.694
664.31	25.366
664.63	22.018
664.96	27.316
665.28	26.241
665.61	25.467
665.93	25.346
666.26	24.724
666.58	26.835
666.91	28.571
667.23	24.631
667.56	26.667
667.88	24.812
668.21	24.873
668.53	27.919
668.86	25.000
669.18	25.381
669.50	29.820
669.83	26.500
670.15	25.000
670.48	26.817
670.80	25.381
671.13	24.096
671.45	24.490
671.77	25.604
672.10	21.319
672.42	21.315
672.75	21.748
673.07	23.364
673.39	21.401
673.72	22.521
674.04	22.766
674.37	22.171
674.69	23.131
675.01	29.535
675.34	21.569
675.66	23.095
675.98	23.232
676.31	22.922
676.63	18.814
676.95	24.940
677.28	23.515
677.60	24.812
677.92	25.564
678.25	22.042
678.57	21.578
678.89	22.018
679.22	23.624
679.54	21.381
679.86	22.270
680.18	20.921
680.51	19.507
680.83	18.750
681.15	23.094
681.48	20.426
681.80	21.957
682.12	23.126
682.44	19.181
682.77	22.500
683.09	23.284
683.41	23.810
683.73	22.362
684.06	22.843
684.38	21.823
684.70	24.249
685.02	20.996
685.34	18.828
685.67	21.146
685.99	21.158
686.31	19.403
686.63	20.388
686.96	21.545
687.28	20.534
687.60	20.534
687.92	18.354
688.24	21.684
688.56	18.901
688.89	24.201
689.21	17.907
689.53	21.995
689.85	23.038
690.17	19.853
690.49	24.471
690.82	19.656
691.14	23.760
691.46	24.250
691.78	21.531
692.10	21.101
692.42	21.101
692.74	21.564
693.06	22.651
693.39	19.951
693.71	18.372
694.03	21.256
694.35	21.040
694.67	21.883
694.99	24.528
695.31	20.680
695.63	21.622
695.95	22.472
696.27	24.929
696.59	22.552
696.91	21.083
697.23	22.350
697.56	21.762
697.88	20.375
698.20	16.465
698.52	21.154
698.84	18.797
699.16	20.844
699.48	24.084
699.80	22.253
700.12	20.386
700.44	20.944
700.76	24.921
701.08	19.683
701.40	24.671
701.72	25.333
702.04	21.769
702.36	27.213
702.68	25.168
703.00	21.136
703.32	22.156
703.64	23.659
703.96	20.886
704.28	20.070
704.60	25.342
704.91	20.724
705.23	18.246
705.55	19.331
705.87	25.540
706.19	21.116
706.51	22.266
706.83	23.443
707.15	20.339
707.47	20.659
707.79	20.630
708.11	18.783
708.43	20.000
708.74	21.585
709.06	19.325
709.38	18.991
709.70	19.481
710.02	20.629
710.34	17.730
710.66	25.094
710.98	18.881
711.29	20.275
711.61	14.539
711.93	26.217
712.25	25.660
712.57	23.437
712.89	24.082
713.20	19.758
713.52	17.480
713.84	22.263
714.16	18.581
714.48	21.843
714.80	17.172
715.11	20.962
715.43	22.184
715.75	19.298
716.07	25.455
716.39	20.819
716.70	16.400
717.02	18.548
717.34	20.779
717.66	19.545
717.97	18.056
718.29	19.111
718.61	17.568
718.93	16.807
719.24	22.176
719.56	22.321
719.88	15.686
720.20	16.239
720.51	17.105
720.83	18.410
721.15	22.041
721.46	21.941
721.78	19.048
722.10	18.992
722.42	21.304
722.73	14.932
723.05	18.894
723.37	19.005
723.68	14.218
724.00	18.981
724.32	22.430
724.63	16.290
724.95	20.548
725.27	22.066
725.58	21.461
725.90	15.315
726.22	18.777
726.53	16.393
726.85	20.000
727.16	20.648
727.48	22.177
727.80	13.699
728.11	20.000
728.43	19.753
728.74	15.789
729.06	17.467
729.38	21.318
729.69	18.000
730.01	19.247
730.32	14.343
730.64	17.308
730.96	16.988
731.27	17.375
731.59	15.152
731.90	12.171
732.22	17.940
732.53	15.439
732.85	13.380
733.16	19.048
733.48	14.179
733.80	20.000
734.11	16.667
734.43	19.856
734.74	16.199
735.06	17.042
735.37	15.974
735.69	13.380
736.00	16.667
736.32	16.084
736.63	14.815
736.95	11.284
737.26	18.841
737.58	17.518
737.89	15.094
738.21	17.557
738.52	20.082
738.83	14.530
739.15	12.273
739.46	10.811
739.78	18.147
740.09	12.302
740.41	16.288
740.72	19.522
741.04	16.996
741.35	17.040
741.66	17.742
741.98	10.204
742.29	14.508
742.61	16.763
742.92	15.196
743.23	23.383
743.55	17.617
743.86	20.290
744.18	11.500
744.49	23.889
744.80	15.054
745.12	13.846
745.43	12.834
745.74	13.904
746.06	20.690
746.37	11.111
746.68	22.703
747.00	11.050
747.31	22.513
747.62	22.632
747.94	20.283
748.25	22.660
748.56	20.707
748.88	16.940
749.19	21.244
749.50	16.471
749.82	21.000
750.13	12.136
750.44	13.734
750.75	14.400
751.07	15.481
751.38	13.672
751.69	19.444
752.01	14.706
752.32	16.529
752.63	16.157
752.94	16.000
753.26	14.155
753.57	14.218
753.88	13.953
754.19	14.537
754.51	11.715
754.82	14.583
755.13	13.717
755.44	18.615
755.75	16.064
756.07	16.309
756.38	10.460
756.69	15.849
757.00	13.830
757.31	17.993
757.63	15.033
757.94	11.818
758.25	15.476
758.56	12.703
758.87	13.988
759.18	19.938
759.50	15.658
759.81	15.444
760.12	13.879
760.43	14.618
760.74	13.473
761.05	13.462
761.36	16.024
761.67	16.717
761.99	15.050
762.30	13.818
762.61	13.821
762.92	12.889
763.23	15.349
763.54	12.183
763.85	21.267
764.16	10.000
764.47	11.739
764.78	12.903
765.10	12.992
765.41	12.040
765.72	12.375
766.03	14.381
766.34	12.121
766.65	18.359
766.96	17.778
767.27	17.318
767.58	18.868
767.89	16.883
768.20	13.514
768.51	10.920
768.82	10.000
769.13	18.056
769.44	13.208
769.75	12.255
770.06	10.680
770.37	13.298
770.68	14.359
770.99	12.183
771.30	16.495
771.61	12.108
771.92	12.736
772.23	9.615
772.54	10.000
772.85	12.329
773.16	12.258
773.47	12.739
773.78	17.964
774.09	8.553
774.39	12.500
774.70	15.038
775.01	14.615
775.32	6.349
775.63	17.323
775.94	-1.887
776.25	7.407
776.56	5.455
776.87	10.256
777.18	2.000
777.48	14.423
777.79	0.000
778.10	14.151
778.41	23.529
778.72	9.434
779.03	7.018
779.34	10.924
779.65	17.606
779.95	7.914
780.26	6.452
780.57	13.043
780.88	3.670
781.19	12.963
781.50	3.279
781.80	9.489
782.11	10.256
782.42	4.138
782.73	18.881
783.04	4.800
783.34	14.400
783.65	12.195
783.96	4.098
784.27	2.521
784.57	-6.542
784.88	9.821
785.19	6.186
785.50	0.000
785.81	6.000
786.11	7.921
786.42	-16.471
786.73	5.208
787.04	2.041
787.34	14.815
787.65	15.094
787.96	-8.247
788.26	5.941
788.57	10.435
788.88	-5.505
789.19	-0.826
789.49	9.565
789.80	12.931
790.11	0.000
790.41	5.618
790.72	-3.488
791.03	1.163
791.33	-12.987
791.64	0.000
791.95	10.976
792.25	-6.024
792.56	-6.173
792.87	-8.451
793.17	6.024
793.48	-5.882
793.79	-3.750
794.09	-8.333
794.40	13.043
794.70	3.478
795.01	4.587
795.32	6.299
795.62	7.843
795.93	6.863
796.23	7.071
796.54	-1.163
796.85	-5.797
797.15	-6.250
797.46	-18.644
797.76	-4.918
798.07	-2.632
798.37	-6.452
798.68	-15.625
798.99	6.154
799.29	-19.697
799.60	7.246
799.90	11.429
800.21	-19.298
800.51	-15.517
800.82	0.000
801.12	-1.961
801.43	-16.129
801.73	6.452
802.04	-4.000
802.34	-15.094
802.65	-28.947
802.95	16.364
803.26	-22.642
803.56	-13.115
803.87	-18.000
804.17	-5.556
804.48	0.000
804.78	-22.449
805.09	14.894
805.39	1.695
805.70	-50.000
806.00	-12.500
806.30	-11.864
806.61	4.615
806.91	-6.154
807.22	-15.789
807.52	-2.857
807.83	0.000
808.13	1.266
808.43	-11.475
808.74	-6.557
809.04	2.703
809.35	-16.667
809.65	-21.429
809.95	3.390
810.26	-16.327
810.56	9.434
810.86	-3.922
811.17	-40.541
811.47	-77.778
811.77	-31.373
812.08	4.545
812.38	-37.500
812.69	-10.256
812.99	-11.905
813.29	4.348
813.59	-14.286
813.90	-11.905
814.20	-9.091
814.50	-30.612
814.81	-17.647
815.11	-18.750
815.41	-19.512
815.72	-50.000
816.02	2.128
816.32	-21.875
816.62	-21.212
816.93	-27.273
817.23	-29.730
817.53	-14.706
817.84	-22.500
818.14	-47.059
818.44	-28.125
818.74	-133.333
819.04	-51.429
819.35	-8.571
819.65	-11.364
819.95	10.256
820.25	-22.222
820.56	-62.069
820.86	-46.429
821.16	-78.261
821.46	-14.286
821.76	-3.704
822.07	-13.043
822.37	-24.490
822.67	-23.256
822.97	-78.261
823.27	-84.615
823.57	-48.148
823.88	-53.571
824.18	0.000
824.48	-50.000
824.78	0.000
825.08	-140.000
825.38	0.000
825.69	-122.222
825.99	-44.444
826.29	17.778
826.59	-44.444
826.89	-66.667
827.19	-53.571
827.49	-40.909
827.79	-109.091
828.09	-72.727
828.39	-78.261
828.70	-40.741
829.00	-21.429
829.30	2.381
829.60	-54.839
829.90	-42.308
830.20	-5.128
830.50	-68.182
830.80	-57.143
831.10	-94.444
831.40	-157.143
831.70	-70.370
832.00	-70.588
832.30	-4.348
832.60	-54.167
832.90	-163.636
833.20	-116.667
833.50	3.125
833.80	-23.077
834.10	-24.000
834.40	-66.667
834.70	-45.455
835.00	-46.154
835.30	-105.000
835.60	-190.000
835.90	-55.000
836.20	-92.857
836.50	-17.391
836.80	-116.667
837.10	-60.000
837.40	-200.000
837.70	-39.130
838.00	-121.429
838.30	2500.000
838.60	16.000
838.90	-420.000
839.19	-66.667
839.49	-750.000
839.79	-117.647
840.09	-200.000
840.39	-21.429
840.69	-111.111
840.99	-75.000
841.29	-65.517
841.59	-73.333
841.88	-63.636
842.18	-350.000
842.48	-93.750
842.78	-57.692
843.08	-117.647
843.38	-75.000
843.68	-123.077
843.97	-117.647
844.27	-20.000
844.57	-62.500
844.87	-100.000
845.17	-110.526
845.47	-44.444
845.76	-38.889
846.06	-52.381
846.36	-71.429
846.66	-166.667
846.96	-55.000
847.25	-120.000
847.55	-162.500
847.85	-93.333
848.15	-325.000
848.44	-84.211
848.74	-40.000
849.04	-21.053
849.34	-500.000
849.63	-300.000
849.93	0.000
850.23	-154.545
850.53	-366.667
850.82	0.000
851.12	-133.333
851.42	-257.143
851.71	-300.000
852.01	-42.857
852.31	-600.000
852.61	-107.692
852.90	-440.000
853.20	-188.889
853.50	-255.556
853.79	-170.000
854.09	-80.000
854.39	-57.895
854.68	-105.000
854.98	-325.000
855.28	-38.889
855.57	-214.286
855.87	-100.000
856.17	-118.750
856.46	-53.846
856.76	6.667
857.05	-87.500
857.35	-41.667
857.65	-66.667
857.94	-125.000
858.24	-100.000
858.53	-200.000
858.83	-266.667
859.13	-181.818
859.42	-200.000
859.72	233.333
860.01	-115.385
860.31	-180.000
860.60	-325.000
860.90	-775.000
861.20	-350.000
861.49	-600.000
861.79	950.000
862.08	-3.226
862.38	-89.474
862.67	-130.769
862.97	-190.000
863.26	-116.667
863.56	-56.522
863.85	-283.333
864.15	-78.571
864.44	-18.750
864.74	-83.333
865.03	-155.556
865.33	-166.667
865.62	-1700.000
865.92	-950.000
866.21	-233.333
866.51	-72.727
866.80	-833.333
867.10	-185.714
867.39	-211.111
867.69	-100.000
867.98	420.000
868.27	-600.000
868.57	575.000
868.86	-86.667
869.16	-69.231
869.45	1150.000
869.75	-183.333
870.04	-208.333
870.33	-23.529
870.63	-128.571
870.92	21.739
871.22	-250.000
871.51	620.000
871.80	-100.000
872.10	-500.000
>>>>>End Processed Spectral Data<<<<<
