SpectraSuite Data File
++++++++++++++++++++++++++++++++++++
Date: Tue May 12 19:45:07 PDT 2015
User: schluterlab
Dark Spectrum Present: Yes
Reference Spectrum Present: Yes
Number of Sampled Component Spectra: 1
Spectrometers: USB2E3373
Integration Time (usec): 3000 (USB2E3373)
Spectra Averaged: 3 (USB2E3373)
Boxcar Smoothing: 0 (USB2E3373)
Correct for Electrical Dark: No (USB2E3373)
Strobe/Lamp Enabled: No (USB2E3373)
Correct for Detector Non-linearity: No (USB2E3373)
Correct for Stray Light: No (USB2E3373)
Number of Pixels in Processed Spectrum: 2048
>>>>>Begin Processed Spectral Data<<<<<
178.53	0.000
178.91	-80.000
179.29	-83.333
179.67	200.000
180.04	0.000
180.42	20.000
180.80	-100.000
181.18	900.000
181.56	-500.000
181.94	100.000
182.31	500.000
182.69	-71.429
183.07	0.000
183.45	200.000
183.83	240.000
184.20	33.333
184.58	1200.000
184.96	316.667
185.34	-200.000
185.72	-35.714
186.09	-50.000
186.47	-1800.000
186.85	40.000
187.23	66.667
187.61	-128.571
187.98	-120.000
188.36	500.000
188.74	-50.000
189.12	-77.778
189.49	-130.000
189.87	475.000
190.25	100.000
190.63	333.333
191.00	220.000
191.38	-300.000
191.76	340.000
192.14	0.000
192.51	-60.000
192.89	60.000
193.27	-20.000
193.65	-266.667
194.02	-133.333
194.40	1800.000
194.78	-137.500
195.15	-242.857
195.53	466.667
195.91	400.000
196.29	-475.000
196.66	-433.333
197.04	-185.714
197.42	120.000
197.79	-150.000
198.17	-58.333
198.55	-200.000
198.92	-111.111
199.30	500.000
199.68	-300.000
200.05	-350.000
200.43	-44.444
200.81	16.667
201.18	350.000
201.56	-350.000
201.94	-600.000
202.31	-50.000
202.69	-66.667
203.07	-41.667
203.44	-350.000
203.82	0.000
204.19	200.000
204.57	-266.667
204.95	27.273
205.32	180.000
205.70	325.000
206.08	-500.000
206.45	-160.000
206.83	1300.000
207.20	-55.556
207.58	38.462
207.96	-33.333
208.33	400.000
208.71	466.667
209.08	250.000
209.46	22.222
209.84	333.333
210.21	-400.000
210.59	-150.000
210.96	188.889
211.34	-150.000
211.71	1000.000
212.09	160.000
212.46	-162.500
212.84	-137.500
213.22	14.286
213.59	-75.000
213.97	0.000
214.34	-200.000
214.72	-1700.000
215.09	750.000
215.47	26.667
215.84	-37.500
216.22	-1200.000
216.59	600.000
216.97	-50.000
217.34	-200.000
217.72	66.667
218.09	400.000
218.47	-31.579
218.84	-112.500
219.22	-35.714
219.59	-130.000
219.97	-70.000
220.34	200.000
220.72	18.182
221.09	-50.000
221.47	0.000
221.84	300.000
222.22	-150.000
222.59	-50.000
222.97	34.783
223.34	153.333
223.72	171.429
224.09	-33.333
224.46	138.462
224.84	-20.000
225.21	-550.000
225.59	-200.000
225.96	60.000
226.34	200.000
226.71	200.000
227.08	-61.538
227.46	-71.429
227.83	-50.000
228.21	-700.000
228.58	150.000
228.95	-26.316
229.33	-43.750
229.70	-200.000
230.08	-66.667
230.45	-366.667
230.82	-400.000
231.20	19.048
231.57	-20.000
231.95	-200.000
232.32	88.889
232.69	-800.000
233.07	43.750
233.44	37.500
233.81	41.935
234.19	-120.000
234.56	-5.556
234.93	16.667
235.31	40.741
235.68	22.222
236.05	19.231
236.43	-52.632
236.80	-18.182
237.17	-21.429
237.55	-45.000
237.92	27.907
238.29	19.355
238.67	35.714
239.04	31.429
239.41	29.412
239.79	40.000
240.16	40.000
240.53	29.310
240.91	24.658
241.28	25.352
241.65	45.312
242.02	33.333
242.40	26.667
242.77	28.421
243.14	49.412
243.51	35.484
243.89	25.714
244.26	43.519
244.63	50.000
245.00	31.250
245.38	24.370
245.75	37.288
246.12	44.531
246.49	38.400
246.87	28.689
247.24	37.324
247.61	40.397
247.98	39.326
248.36	36.478
248.73	43.750
249.10	39.444
249.47	34.896
249.84	38.071
250.22	43.229
250.59	40.449
250.96	41.364
251.33	40.566
251.70	43.578
252.08	42.857
252.45	42.041
252.82	33.755
253.19	39.300
253.56	44.314
253.94	39.837
254.31	43.165
254.68	40.278
255.05	39.735
255.42	41.455
255.79	44.702
256.16	43.403
256.54	39.091
256.91	45.833
257.28	43.831
257.65	41.639
258.02	44.444
258.39	45.015
258.76	43.731
259.14	38.824
259.51	45.634
259.88	45.533
260.25	42.898
260.62	37.921
260.99	41.783
261.36	37.356
261.73	44.533
262.10	45.504
262.47	47.107
262.85	42.416
263.22	38.441
263.59	44.772
263.96	39.948
264.33	40.701
264.70	38.329
265.07	42.611
265.44	39.110
265.81	46.265
266.18	42.389
266.55	40.714
266.92	45.313
267.29	41.111
267.66	41.591
268.03	40.430
268.40	45.538
268.77	42.316
269.14	37.815
269.51	45.249
269.88	41.239
270.25	37.764
270.62	41.387
270.99	41.474
271.36	40.618
271.73	41.458
272.10	41.494
272.47	38.600
272.84	38.854
273.21	36.534
273.58	39.796
273.95	42.231
274.32	40.426
274.69	41.683
275.06	40.525
275.43	39.600
275.80	40.535
276.17	39.723
276.54	42.395
276.91	39.731
277.28	44.681
277.65	39.887
278.02	38.258
278.39	40.472
278.76	40.968
279.13	44.544
279.50	41.516
279.87	40.943
280.23	41.166
280.60	39.929
280.97	40.773
281.34	40.508
281.71	38.366
282.08	38.283
282.45	40.388
282.82	37.542
283.19	38.889
283.56	39.249
283.92	37.441
284.29	38.240
284.66	38.938
285.03	35.163
285.40	38.167
285.77	41.544
286.14	37.876
286.51	38.103
286.87	35.656
287.24	36.859
287.61	38.889
287.98	40.532
288.35	36.434
288.72	35.780
289.08	35.849
289.45	35.725
289.82	35.714
290.19	36.212
290.56	34.009
290.93	35.451
291.29	35.745
291.66	34.831
292.03	34.290
292.40	36.259
292.77	33.236
293.13	34.214
293.50	33.058
293.87	32.732
294.24	32.865
294.60	33.470
294.97	30.609
295.34	30.959
295.71	29.681
296.08	30.738
296.44	32.148
296.81	30.013
297.18	29.884
297.55	31.784
297.91	28.173
298.28	28.772
298.65	29.754
299.02	31.073
299.38	32.143
299.75	31.017
300.12	30.695
300.48	29.577
300.85	28.851
301.22	30.288
301.59	30.414
301.95	29.634
302.32	28.068
302.69	29.013
303.05	28.453
303.42	29.952
303.79	27.978
304.15	27.860
304.52	28.156
304.89	27.847
305.25	28.440
305.62	27.955
305.99	26.876
306.35	27.629
306.72	28.214
307.09	25.354
307.45	28.155
307.82	28.922
308.19	28.273
308.55	28.481
308.92	26.589
309.29	27.406
309.65	27.864
310.02	27.568
310.38	27.079
310.75	26.537
311.12	25.229
311.48	28.263
311.85	27.153
312.22	27.686
312.58	26.888
312.95	27.207
313.31	27.139
313.68	25.919
314.05	27.905
314.41	26.916
314.78	26.131
315.14	27.424
315.51	26.514
315.87	28.027
316.24	28.388
316.61	26.990
316.97	25.882
317.34	27.656
317.70	26.144
318.07	25.651
318.43	28.450
318.80	28.051
319.16	27.493
319.53	28.491
319.89	28.220
320.26	28.319
320.62	28.101
320.99	28.776
321.35	29.150
321.72	27.980
322.08	28.911
322.45	30.079
322.81	29.852
323.18	30.105
323.54	29.953
323.91	30.171
324.27	30.569
324.64	29.991
325.00	29.754
325.37	31.924
325.73	31.387
326.10	31.436
326.46	31.097
326.83	32.278
327.19	31.179
327.56	32.714
327.92	31.250
328.29	32.796
328.65	33.522
329.01	33.853
329.38	32.966
329.74	34.262
330.11	33.085
330.47	33.333
330.84	32.143
331.20	33.179
331.56	32.642
331.93	33.211
332.29	33.210
332.66	33.725
333.02	34.726
333.38	35.570
333.75	34.126
334.11	32.731
334.48	33.810
334.84	34.648
335.20	33.214
335.57	34.514
335.93	33.767
336.29	33.090
336.66	33.880
337.02	36.174
337.38	34.151
337.75	35.000
338.11	35.005
338.47	35.097
338.84	33.610
339.20	35.197
339.56	34.110
339.93	33.243
340.29	33.817
340.65	35.708
341.02	33.392
341.38	34.245
341.74	33.986
342.11	34.394
342.47	33.829
342.83	34.258
343.20	34.483
343.56	34.178
343.92	36.483
344.28	33.962
344.65	34.675
345.01	34.495
345.37	33.248
345.73	34.884
346.10	34.140
346.46	33.909
346.82	34.155
347.19	33.978
347.55	34.864
347.91	32.760
348.27	33.867
348.63	34.572
349.00	34.641
349.36	34.542
349.72	34.483
350.08	34.288
350.45	35.476
350.81	33.609
351.17	33.773
351.53	34.461
351.89	34.542
352.26	33.984
352.62	34.587
352.98	34.812
353.34	35.004
353.70	33.663
354.07	34.761
354.43	33.806
354.79	34.180
355.15	33.656
355.51	35.534
355.87	35.221
356.24	34.722
356.60	33.389
356.96	34.992
357.32	36.955
357.68	35.481
358.04	35.089
358.40	34.861
358.77	34.699
359.13	34.940
359.49	33.600
359.85	33.573
360.21	33.148
360.57	34.689
360.93	33.492
361.29	34.034
361.66	33.596
362.02	35.008
362.38	34.654
362.74	34.896
363.10	33.861
363.46	34.086
363.82	34.609
364.18	34.746
364.54	34.351
364.90	33.185
365.26	35.917
365.62	35.503
365.98	34.858
366.35	34.569
366.71	33.682
367.07	33.875
367.43	33.863
367.79	33.794
368.15	34.470
368.51	34.682
368.87	34.728
369.23	35.882
369.59	35.000
369.95	34.501
370.31	34.091
370.67	33.684
371.03	35.217
371.39	35.498
371.75	34.101
372.11	35.037
372.47	34.521
372.83	35.573
373.19	36.069
373.55	34.057
373.91	34.167
374.27	34.658
374.63	34.978
374.99	34.041
375.35	34.978
375.71	34.648
376.07	34.346
376.42	33.679
376.78	34.564
377.14	34.358
377.50	33.789
377.86	35.237
378.22	35.271
378.58	35.855
378.94	35.625
379.30	34.942
379.66	35.211
380.02	36.682
380.38	34.669
380.74	35.550
381.09	34.879
381.45	35.937
381.81	35.013
382.17	35.765
382.53	36.095
382.89	35.087
383.25	34.876
383.61	35.219
383.97	35.608
384.32	35.806
384.68	35.057
385.04	34.437
385.40	35.208
385.76	34.725
386.12	34.851
386.48	35.551
386.83	34.957
387.19	35.441
387.55	35.557
387.91	35.265
388.27	35.445
388.62	35.233
388.98	35.305
389.34	34.353
389.70	36.538
390.06	34.719
390.42	36.038
390.77	35.681
391.13	35.914
391.49	35.377
391.85	36.061
392.20	35.974
392.56	35.363
392.92	35.374
393.28	35.607
393.64	36.162
393.99	35.260
394.35	36.470
394.71	36.556
395.07	37.202
395.42	35.302
395.78	35.282
396.14	34.777
396.50	35.899
396.85	34.501
397.21	34.541
397.57	35.945
397.92	35.814
398.28	35.731
398.64	35.683
399.00	35.810
399.35	35.932
399.71	34.431
400.07	35.454
400.42	35.641
400.78	35.445
401.14	34.975
401.49	35.166
401.85	36.127
402.21	35.977
402.57	33.999
402.92	35.193
403.28	34.980
403.63	35.128
403.99	34.610
404.35	33.503
404.70	34.896
405.06	35.586
405.42	34.483
405.77	34.304
406.13	34.827
406.49	35.079
406.84	35.741
407.20	34.201
407.55	35.404
407.91	34.825
408.27	34.774
408.62	34.019
408.98	35.328
409.34	35.275
409.69	34.314
410.05	33.549
410.40	33.654
410.76	33.811
411.11	34.454
411.47	34.490
411.83	34.256
412.18	34.817
412.54	34.153
412.89	34.521
413.25	34.922
413.60	34.439
413.96	34.175
414.31	33.971
414.67	35.381
415.03	34.647
415.38	33.426
415.74	34.385
416.09	33.701
416.45	34.324
416.80	31.989
417.16	35.049
417.51	33.102
417.87	34.747
418.22	33.757
418.58	33.518
418.93	33.075
419.29	34.125
419.64	34.753
420.00	33.006
420.35	33.898
420.71	32.522
421.06	32.641
421.42	33.061
421.77	35.018
422.12	32.428
422.48	34.152
422.83	32.705
423.19	32.941
423.54	33.232
423.90	33.313
424.25	32.931
424.61	32.516
424.96	32.125
425.31	33.454
425.67	32.606
426.02	33.478
426.38	32.561
426.73	32.523
427.09	32.699
427.44	32.654
427.79	33.911
428.15	32.657
428.50	32.726
428.85	32.008
429.21	34.011
429.56	32.155
429.92	31.098
430.27	31.147
430.62	32.666
430.98	31.865
431.33	31.924
431.68	32.166
432.04	31.415
432.39	31.788
432.74	30.740
433.10	30.988
433.45	31.096
433.80	30.655
434.16	30.783
434.51	30.992
434.86	30.514
435.22	30.617
435.57	31.992
435.92	29.474
436.28	31.071
436.63	30.948
436.98	31.235
437.34	31.990
437.69	31.049
438.04	31.190
438.39	30.809
438.75	30.462
439.10	30.476
439.45	32.478
439.81	30.032
440.16	29.994
440.51	30.545
440.86	31.124
441.22	30.733
441.57	30.427
441.92	30.315
442.27	30.857
442.63	31.095
442.98	31.174
443.33	31.140
443.68	29.617
444.03	30.258
444.39	29.984
444.74	30.509
445.09	30.224
445.44	29.913
445.79	30.259
446.15	29.446
446.50	30.480
446.85	29.153
447.20	29.540
447.55	29.552
447.91	29.924
448.26	29.792
448.61	29.366
448.96	29.273
449.31	28.933
449.66	29.358
450.02	29.349
450.37	30.073
450.72	29.503
451.07	29.400
451.42	30.435
451.77	28.689
452.12	29.449
452.47	29.404
452.83	29.265
453.18	29.845
453.53	29.262
453.88	29.994
454.23	28.818
454.58	29.830
454.93	29.019
455.28	28.581
455.63	30.019
455.98	29.505
456.34	30.141
456.69	28.639
457.04	29.199
457.39	28.777
457.74	30.025
458.09	29.247
458.44	29.859
458.79	28.916
459.14	29.696
459.49	29.172
459.84	28.537
460.19	28.705
460.54	27.778
460.89	28.471
461.24	29.091
461.59	29.716
461.94	29.520
462.29	29.073
462.64	28.900
462.99	29.949
463.34	29.304
463.69	28.738
464.04	28.159
464.39	27.781
464.74	28.942
465.09	29.196
465.44	28.494
465.79	28.821
466.14	28.222
466.49	28.852
466.84	27.948
467.19	28.200
467.54	26.260
467.89	28.347
468.24	28.409
468.59	27.356
468.94	27.774
469.29	28.166
469.64	28.373
469.99	27.830
470.34	27.086
470.68	27.846
471.03	26.788
471.38	27.300
471.73	28.488
472.08	27.900
472.43	27.870
472.78	25.816
473.13	27.789
473.48	28.216
473.83	27.807
474.17	27.352
474.52	28.198
474.87	27.083
475.22	27.065
475.57	27.321
475.92	27.800
476.27	26.643
476.61	26.832
476.96	27.682
477.31	25.913
477.66	27.600
478.01	26.545
478.36	27.163
478.70	27.437
479.05	27.336
479.40	26.810
479.75	27.482
480.10	26.623
480.45	28.115
480.79	27.193
481.14	27.254
481.49	27.095
481.84	27.424
482.19	25.902
482.53	28.039
482.88	26.589
483.23	27.186
483.58	27.228
483.92	26.030
484.27	26.718
484.62	26.591
484.97	26.670
485.31	26.141
485.66	26.538
486.01	26.863
486.36	27.050
486.70	27.201
487.05	27.361
487.40	27.822
487.75	26.968
488.09	26.692
488.44	26.803
488.79	26.376
489.13	27.016
489.48	26.325
489.83	26.260
490.17	25.926
490.52	26.338
490.87	26.459
491.22	26.874
491.56	25.939
491.91	26.004
492.26	27.129
492.60	26.224
492.95	25.873
493.30	26.242
493.64	25.101
493.99	26.951
494.34	26.508
494.68	25.719
495.03	24.696
495.37	25.798
495.72	25.844
496.07	25.304
496.41	25.000
496.76	25.740
497.11	25.751
497.45	25.364
497.80	25.389
498.14	25.871
498.49	25.788
498.84	25.210
499.18	25.013
499.53	26.272
499.87	24.680
500.22	25.662
500.56	26.269
500.91	26.272
501.26	25.512
501.60	25.178
501.95	25.691
502.29	26.270
502.64	24.788
502.98	25.442
503.33	25.312
503.67	25.217
504.02	25.945
504.36	24.653
504.71	24.149
505.06	25.228
505.40	25.791
505.75	24.855
506.09	25.027
506.44	25.161
506.78	24.625
507.13	25.787
507.47	23.989
507.82	24.944
508.16	24.388
508.51	25.766
508.85	25.604
509.19	25.562
509.54	25.779
509.88	24.568
510.23	25.225
510.57	24.815
510.92	24.093
511.26	25.445
511.61	25.514
511.95	24.523
512.30	25.043
512.64	25.161
512.98	24.867
513.33	24.385
513.67	24.192
514.02	23.978
514.36	25.326
514.70	25.622
515.05	24.268
515.39	25.408
515.74	24.248
516.08	24.670
516.42	24.674
516.77	24.720
517.11	24.098
517.46	24.297
517.80	24.761
518.14	24.921
518.49	24.580
518.83	24.578
519.17	25.129
519.52	25.484
519.86	24.573
520.20	23.376
520.55	25.261
520.89	24.494
521.23	24.315
521.58	25.000
521.92	23.364
522.26	24.261
522.61	24.642
522.95	24.384
523.29	23.954
523.64	23.202
523.98	24.597
524.32	24.916
524.66	24.337
525.01	23.986
525.35	23.529
525.69	23.538
526.04	25.229
526.38	24.743
526.72	25.278
527.06	24.824
527.41	24.663
527.75	24.049
528.09	24.470
528.43	24.451
528.78	25.087
529.12	23.973
529.46	23.721
529.80	23.962
530.15	24.948
530.49	24.616
530.83	24.295
531.17	24.788
531.51	24.483
531.86	24.440
532.20	22.944
532.54	24.317
532.88	24.582
533.22	24.353
533.57	24.552
533.91	24.776
534.25	23.897
534.59	24.897
534.93	24.916
535.27	23.636
535.62	24.375
535.96	24.564
536.30	24.287
536.64	24.320
536.98	23.968
537.32	23.884
537.66	23.900
538.01	23.932
538.35	23.636
538.69	23.213
539.03	24.081
539.37	23.762
539.71	24.638
540.05	24.385
540.39	23.893
540.73	24.396
541.07	24.559
541.42	24.661
541.76	24.964
542.10	23.673
542.44	24.783
542.78	23.754
543.12	23.105
543.46	23.994
543.80	23.231
544.14	24.158
544.48	24.421
544.82	24.202
545.16	24.420
545.50	25.255
545.84	23.921
546.18	23.146
546.52	23.905
546.86	23.489
547.20	23.485
547.54	23.351
547.88	23.932
548.22	23.558
548.56	25.159
548.90	24.281
549.24	24.269
549.58	24.814
549.92	24.361
550.26	23.552
550.60	24.266
550.94	24.683
551.28	24.065
551.62	23.915
551.96	24.121
552.30	23.643
552.64	22.990
552.98	23.626
553.32	23.636
553.66	23.217
554.00	22.857
554.34	23.906
554.68	23.525
555.02	22.302
555.36	22.875
555.69	21.599
556.03	24.390
556.37	23.706
556.71	23.228
557.05	23.047
557.39	22.811
557.73	23.742
558.07	23.631
558.41	23.464
558.75	23.402
559.08	23.830
559.42	23.746
559.76	22.746
560.10	23.798
560.44	22.249
560.78	22.164
561.12	22.389
561.45	23.214
561.79	22.834
562.13	23.277
562.47	23.089
562.81	23.199
563.15	22.586
563.48	22.697
563.82	23.654
564.16	22.714
564.50	23.138
564.84	24.380
565.17	23.391
565.51	23.012
565.85	22.817
566.19	24.078
566.52	24.731
566.86	24.522
567.20	23.353
567.54	23.676
567.88	23.240
568.21	24.795
568.55	23.713
568.89	24.835
569.23	23.394
569.56	24.874
569.90	24.668
570.24	24.744
570.57	24.981
570.91	25.036
571.25	25.620
571.59	24.852
571.92	24.279
572.26	24.715
572.60	24.952
572.93	24.525
573.27	24.465
573.61	24.017
573.95	24.385
574.28	24.855
574.62	24.726
574.96	24.615
575.29	24.393
575.63	24.153
575.97	24.592
576.30	24.696
576.64	24.338
576.98	24.407
577.31	24.740
577.65	24.706
577.98	24.787
578.32	25.102
578.66	24.587
578.99	25.144
579.33	24.163
579.67	25.091
580.00	24.688
580.34	25.419
580.67	24.669
581.01	24.857
581.35	24.304
581.68	25.103
582.02	24.943
582.35	24.660
582.69	25.237
583.02	25.248
583.36	24.717
583.70	25.680
584.03	25.125
584.37	25.407
584.70	24.170
585.04	24.280
585.37	24.942
585.71	24.924
586.04	24.599
586.38	24.843
586.72	24.757
587.05	25.170
587.39	24.605
587.72	24.896
588.06	25.147
588.39	25.095
588.73	24.079
589.06	24.712
589.40	24.815
589.73	25.206
590.07	24.506
590.40	24.990
590.73	24.656
591.07	24.329
591.40	24.532
591.74	24.953
592.07	23.926
592.41	24.133
592.74	25.309
593.08	24.606
593.41	25.437
593.75	25.784
594.08	25.277
594.41	25.584
594.75	24.002
595.08	24.425
595.42	24.596
595.75	24.735
596.09	24.460
596.42	24.567
596.75	24.545
597.09	24.021
597.42	24.449
597.75	24.531
598.09	23.970
598.42	23.947
598.76	24.180
599.09	24.706
599.42	23.958
599.76	23.892
600.09	24.832
600.42	24.258
600.76	24.673
601.09	24.706
601.42	24.074
601.76	24.716
602.09	24.424
602.42	24.707
602.76	24.607
603.09	24.456
603.42	25.341
603.76	24.171
604.09	24.185
604.42	25.290
604.76	24.327
605.09	24.421
605.42	23.934
605.75	24.166
606.09	25.067
606.42	24.409
606.75	24.378
607.09	25.606
607.42	24.874
607.75	24.242
608.08	25.023
608.42	24.394
608.75	24.512
609.08	24.382
609.41	24.209
609.75	24.381
610.08	24.755
610.41	24.784
610.74	24.014
611.07	24.008
611.41	23.983
611.74	25.082
612.07	24.330
612.40	23.398
612.73	23.843
613.07	23.782
613.40	23.634
613.73	23.482
614.06	23.361
614.39	24.605
614.72	23.790
615.06	24.455
615.39	23.672
615.72	23.740
616.05	24.116
616.38	23.665
616.71	23.197
617.05	23.681
617.38	23.935
617.71	24.037
618.04	24.704
618.37	24.395
618.70	24.592
619.03	24.365
619.36	23.638
619.69	22.473
620.03	24.333
620.36	23.205
620.69	23.651
621.02	23.436
621.35	23.149
621.68	23.942
622.01	22.995
622.34	23.283
622.67	24.536
623.00	23.096
623.33	23.386
623.66	23.267
623.99	22.727
624.32	23.114
624.65	23.281
624.99	22.813
625.32	24.171
625.65	22.738
625.98	23.167
626.31	21.991
626.64	23.063
626.97	23.989
627.30	23.241
627.63	24.186
627.96	22.998
628.29	23.423
628.62	22.577
628.95	23.126
629.28	21.901
629.61	22.780
629.94	21.888
630.26	22.803
630.59	24.607
630.92	20.864
631.25	22.458
631.58	20.930
631.91	22.096
632.24	23.787
632.57	24.138
632.90	21.894
633.23	24.516
633.56	21.761
633.89	22.427
634.22	21.667
634.55	20.499
634.88	22.490
635.20	21.644
635.53	23.324
635.86	23.641
636.19	21.828
636.52	23.046
636.85	21.512
637.18	23.446
637.51	20.596
637.83	23.045
638.16	24.467
638.49	22.911
638.82	20.253
639.15	20.143
639.48	21.834
639.81	21.162
640.13	20.674
640.46	20.945
640.79	22.481
641.12	23.411
641.45	19.596
641.77	21.815
642.10	20.684
642.43	20.539
642.76	21.685
643.09	20.588
643.41	21.147
643.74	19.097
644.07	19.048
644.40	20.036
644.73	19.705
645.05	22.137
645.38	19.038
645.71	23.473
646.04	23.606
646.36	20.265
646.69	21.277
647.02	23.828
647.35	22.800
647.67	22.244
648.00	22.524
648.33	21.002
648.66	20.779
648.98	22.542
649.31	24.096
649.64	24.441
649.96	20.946
650.29	19.646
650.62	20.408
650.94	20.148
651.27	20.231
651.60	19.885
651.92	20.992
652.25	21.224
652.58	18.851
652.90	18.683
653.23	23.400
653.56	19.271
653.88	22.080
654.21	22.495
654.54	20.638
654.86	22.842
655.19	20.323
655.52	25.724
655.84	26.618
656.17	27.077
656.49	36.766
656.82	40.949
657.15	31.732
657.47	24.034
657.80	18.336
658.13	15.313
658.45	25.736
658.78	25.033
659.10	23.968
659.43	23.882
659.75	22.166
660.08	22.543
660.41	21.125
660.73	19.668
661.06	17.818
661.38	20.161
661.71	21.007
662.03	20.602
662.36	19.332
662.68	19.904
663.01	21.635
663.33	25.708
663.66	21.292
663.98	20.049
664.31	17.073
664.63	20.872
664.96	21.140
665.28	21.749
665.61	20.794
665.93	21.889
666.26	19.426
666.58	22.248
666.91	23.653
667.23	16.749
667.56	20.494
667.88	23.058
668.21	19.289
668.53	20.558
668.86	21.939
669.18	20.812
669.50	22.365
669.83	21.250
670.15	19.750
670.48	19.799
670.80	24.112
671.13	17.108
671.45	20.408
671.77	21.256
672.10	23.736
672.42	22.112
672.75	19.806
673.07	22.056
673.39	21.790
673.72	21.901
674.04	20.638
674.37	21.709
674.69	22.196
675.01	22.093
675.34	18.873
675.66	19.286
675.98	18.182
676.31	19.647
676.63	17.526
676.95	17.986
677.28	19.059
677.60	22.807
677.92	20.050
678.25	20.186
678.57	21.578
678.89	20.642
679.22	21.560
679.54	18.263
679.86	22.056
680.18	19.874
680.51	19.507
680.83	20.417
681.15	21.351
681.48	19.149
681.80	18.913
682.12	22.270
682.44	21.336
682.77	23.182
683.09	21.078
683.41	22.055
683.73	21.106
684.06	20.558
684.38	21.823
684.70	22.402
685.02	18.615
685.34	21.339
685.67	20.949
685.99	24.551
686.31	22.388
686.63	20.777
686.96	21.341
687.28	21.150
687.60	18.275
687.92	18.565
688.24	20.211
688.56	20.440
688.89	21.461
689.21	17.907
689.53	20.460
689.85	24.051
690.17	20.098
690.49	19.529
690.82	20.393
691.14	19.321
691.46	20.000
691.78	21.053
692.10	21.101
692.42	22.248
692.74	22.038
693.06	20.000
693.39	17.734
693.71	20.233
694.03	18.841
694.35	22.525
694.67	20.865
694.99	22.102
695.31	19.263
695.63	18.378
695.95	22.472
696.27	21.813
696.59	16.320
696.91	16.809
697.23	20.630
697.56	18.912
697.88	22.951
698.20	17.191
698.52	22.115
698.84	20.802
699.16	21.108
699.48	22.775
699.80	19.505
700.12	23.140
700.44	18.289
700.76	19.874
701.08	16.825
701.40	18.092
701.72	20.667
702.04	19.048
702.36	21.639
702.68	19.799
703.00	20.505
703.32	15.269
703.64	21.136
703.96	18.038
704.28	15.493
704.60	21.233
704.91	20.724
705.23	21.053
705.55	15.613
705.87	18.345
706.19	17.928
706.51	14.062
706.83	19.048
707.15	21.017
707.47	20.359
707.79	19.484
708.11	21.429
708.43	21.600
708.74	22.131
709.06	16.871
709.38	18.101
709.70	15.909
710.02	19.930
710.34	16.667
710.66	22.472
710.98	22.378
711.29	21.649
711.61	15.957
711.93	20.599
712.25	20.755
712.57	18.359
712.89	23.673
713.20	19.355
713.52	15.854
713.84	21.168
714.16	19.932
714.48	18.430
714.80	20.875
715.11	21.306
715.43	18.771
715.75	16.842
716.07	19.636
716.39	22.526
716.70	18.400
717.02	16.532
717.34	19.481
717.66	22.273
717.97	14.815
718.29	22.222
718.61	18.468
718.93	18.487
719.24	19.665
719.56	16.071
719.88	20.000
720.20	13.675
720.51	19.737
720.83	17.573
721.15	17.551
721.46	19.409
721.78	17.749
722.10	24.031
722.42	21.739
722.73	16.290
723.05	23.502
723.37	20.814
723.68	17.536
724.00	17.593
724.32	12.150
724.63	19.457
724.95	15.982
725.27	17.371
725.58	21.461
725.90	18.018
726.22	19.214
726.53	19.672
726.85	21.852
727.16	22.267
727.48	20.565
727.80	11.872
728.11	20.889
728.43	18.519
728.74	15.789
729.06	19.651
729.38	24.419
729.69	17.200
730.01	18.828
730.32	21.116
730.64	18.462
730.96	16.988
731.27	18.919
731.59	22.559
731.90	16.447
732.22	26.246
732.53	16.140
732.85	15.141
733.16	20.147
733.48	17.164
733.80	24.000
734.11	21.277
734.43	21.300
734.74	18.380
735.06	21.222
735.37	21.725
735.69	18.662
736.00	18.519
736.32	19.930
736.63	20.741
736.95	18.677
737.26	19.203
737.58	17.153
737.89	21.132
738.21	20.229
738.52	22.131
738.83	18.803
739.15	21.818
739.46	13.063
739.78	15.444
740.09	15.873
740.41	21.970
740.72	16.335
741.04	19.763
741.35	20.179
741.66	16.667
741.98	15.816
742.29	20.207
742.61	13.295
742.92	18.627
743.23	19.403
743.55	13.990
743.86	14.493
744.18	14.500
744.49	17.222
744.80	20.968
745.12	20.513
745.43	14.439
745.74	17.647
746.06	23.563
746.37	10.556
746.68	17.297
747.00	14.365
747.31	16.754
747.62	19.474
747.94	20.283
748.25	22.167
748.56	16.162
748.88	10.929
749.19	18.135
749.50	24.118
749.82	22.000
750.13	21.359
750.44	15.880
750.75	18.800
751.07	22.594
751.38	16.016
751.69	25.397
752.01	21.008
752.32	21.901
752.63	22.707
752.94	21.600
753.26	23.288
753.57	21.327
753.88	18.140
754.19	16.740
754.51	14.226
754.82	14.583
755.13	14.159
755.44	21.645
755.75	23.293
756.07	21.888
756.38	27.197
756.69	23.774
757.00	15.957
757.31	21.453
757.63	23.203
757.94	19.394
758.25	22.619
758.56	22.432
758.87	19.940
759.18	25.545
759.50	19.929
759.81	21.236
760.12	22.420
760.43	23.256
760.74	20.958
761.05	23.397
761.36	24.036
761.67	19.453
761.99	23.077
762.30	16.364
762.61	25.203
762.92	18.667
763.23	18.605
763.54	27.411
763.85	19.457
764.16	17.826
764.47	21.304
764.78	17.742
765.10	22.047
765.41	23.411
765.72	23.746
766.03	25.418
766.34	18.939
766.65	23.047
766.96	21.333
767.27	21.788
767.58	21.384
767.89	19.481
768.20	11.486
768.51	17.816
768.82	18.750
769.13	25.926
769.44	22.642
769.75	15.196
770.06	20.388
770.37	15.957
770.68	18.974
770.99	16.244
771.30	17.010
771.61	12.556
771.92	20.283
772.23	16.827
772.54	20.588
772.85	15.068
773.16	18.065
773.47	15.287
773.78	22.754
774.09	18.421
774.39	14.706
774.70	20.301
775.01	15.385
775.32	16.667
775.63	12.598
775.94	8.491
776.25	15.556
776.56	17.273
776.87	27.350
777.18	15.000
777.48	13.462
777.79	16.667
778.10	18.868
778.41	19.608
778.72	15.094
779.03	15.789
779.34	12.605
779.65	19.718
779.95	17.266
780.26	16.129
780.57	15.217
780.88	7.339
781.19	20.370
781.50	12.295
781.80	20.438
782.11	18.590
782.42	15.862
782.73	28.671
783.04	13.600
783.34	14.400
783.65	18.699
783.96	17.213
784.27	16.807
784.57	20.561
784.88	6.250
785.19	17.526
785.50	14.737
785.81	8.000
786.11	17.822
786.42	-1.176
786.73	20.833
787.04	9.184
787.34	20.370
787.65	25.472
787.96	4.124
788.26	12.871
788.57	20.870
788.88	11.927
789.19	14.876
789.49	25.217
789.80	12.931
790.11	4.878
790.41	23.596
790.72	12.791
791.03	18.605
791.33	1.299
791.64	26.829
791.95	15.854
792.25	-10.843
792.56	8.642
792.87	4.225
793.17	15.663
793.48	9.412
793.79	8.750
794.09	10.000
794.40	21.739
794.70	11.304
795.01	10.092
795.32	19.685
795.62	19.608
795.93	23.529
796.23	21.212
796.54	9.302
796.85	20.290
797.15	10.938
797.46	3.390
797.76	-3.279
798.07	10.526
798.37	-4.839
798.68	3.125
798.99	21.538
799.29	1.515
799.60	10.145
799.90	12.857
800.21	14.035
800.51	-10.345
800.82	-1.887
801.12	-1.961
801.43	3.226
801.73	20.968
802.04	6.000
802.34	13.208
802.65	-15.789
802.95	14.545
803.26	-15.094
803.56	1.639
803.87	2.000
804.17	11.111
804.48	11.538
804.78	4.082
805.09	34.043
805.39	16.949
805.70	-4.167
806.00	1.786
806.30	0.000
806.61	9.231
806.91	-6.154
807.22	2.632
807.52	22.857
807.83	-1.724
808.13	7.595
808.43	0.000
808.74	13.115
809.04	18.919
809.35	0.000
809.65	10.714
809.95	18.644
810.26	-6.122
810.56	-3.774
810.86	13.725
811.17	-13.514
811.47	-22.222
811.77	1.961
812.08	11.364
812.38	-8.333
812.69	10.256
812.99	14.286
813.29	13.043
813.59	11.429
813.90	21.429
814.20	-3.636
814.50	12.245
814.81	-9.804
815.11	-2.083
815.41	-4.878
815.72	-42.308
816.02	-6.383
816.32	12.500
816.62	12.121
816.93	-27.273
817.23	27.027
817.53	0.000
817.84	27.500
818.14	-29.412
818.44	0.000
818.74	-71.429
819.04	20.000
819.35	2.857
819.65	22.727
819.95	7.692
820.25	-27.778
820.56	-34.483
820.86	-14.286
821.16	-26.087
821.46	7.143
821.76	9.259
822.07	0.000
822.37	18.367
822.67	-11.628
822.97	0.000
823.27	-23.077
823.57	-22.222
823.88	-17.857
824.18	12.821
824.48	-17.857
824.78	18.182
825.08	-106.667
825.38	-5.000
825.69	-61.111
825.99	-7.407
826.29	33.333
826.59	-29.630
826.89	-29.630
827.19	-17.857
827.49	-68.182
827.79	-68.182
828.09	-9.091
828.39	-26.087
828.70	-18.519
829.00	-10.714
829.30	-7.143
829.60	9.677
829.90	-38.462
830.20	-2.564
830.50	-31.818
830.80	-33.333
831.10	-50.000
831.40	-85.714
831.70	14.815
832.00	-17.647
832.30	-30.435
832.60	8.333
832.90	-109.091
833.20	-72.222
833.50	-12.500
833.80	-34.615
834.10	20.000
834.40	-33.333
834.70	9.091
835.00	-23.077
835.30	-30.000
835.60	-40.000
835.90	15.000
836.20	14.286
836.50	-39.130
836.80	-33.333
837.10	66.667
837.40	-60.000
837.70	-47.826
838.00	-21.429
838.30	1000.000
838.60	8.000
838.90	-200.000
839.19	-44.444
839.49	-850.000
839.79	-35.294
840.09	-111.111
840.39	3.571
840.69	-22.222
840.99	-125.000
841.29	3.448
841.59	-33.333
841.88	45.455
842.18	-250.000
842.48	-18.750
842.78	19.231
843.08	-58.824
843.38	-15.000
843.68	-61.538
843.97	-52.941
844.27	20.000
844.57	-33.333
844.87	-72.727
845.17	-78.947
845.47	-77.778
845.76	27.778
846.06	0.000
846.36	-42.857
846.66	-155.556
846.96	-70.000
847.25	-180.000
847.55	-150.000
847.85	-93.333
848.15	-25.000
848.44	-57.895
848.74	-33.333
849.04	15.789
849.34	-233.333
849.63	16.667
849.93	-17.647
850.23	-45.455
850.53	-333.333
850.82	80.000
851.12	-55.556
851.42	-85.714
851.71	-260.000
852.01	-57.143
852.31	0.000
852.61	-76.923
852.90	-280.000
853.20	-133.333
853.50	-155.556
853.79	-130.000
854.09	-75.000
854.39	-52.632
854.68	-40.000
854.98	-200.000
855.28	-11.111
855.57	-128.571
855.87	-15.789
856.17	-12.500
856.46	19.231
856.76	-13.333
857.05	-75.000
857.35	0.000
857.65	-11.111
857.94	75.000
858.24	-39.130
858.53	-20.000
858.83	-466.667
859.13	-109.091
859.42	-180.000
859.72	233.333
860.01	-7.692
860.31	-130.000
860.60	-212.500
860.90	-175.000
861.20	-166.667
861.49	0.000
861.79	250.000
862.08	29.032
862.38	-15.789
862.67	-15.385
862.97	-170.000
863.26	-33.333
863.56	-13.043
863.85	-216.667
864.15	7.143
864.44	6.250
864.74	-116.667
865.03	-111.111
865.33	-333.333
865.62	-1200.000
865.92	-450.000
866.21	-66.667
866.51	-118.182
866.80	-433.333
867.10	-142.857
867.39	-33.333
867.69	-83.333
867.98	-60.000
868.27	-350.000
868.57	525.000
868.86	-46.667
869.16	23.077
869.45	900.000
869.75	-183.333
870.04	-183.333
870.33	-11.765
870.63	-128.571
870.92	69.565
871.22	-37.500
871.51	360.000
871.80	37.500
872.10	-333.333
>>>>>End Processed Spectral Data<<<<<
