SpectraSuite Data File
++++++++++++++++++++++++++++++++++++
Date: Tue May 12 19:40:22 PDT 2015
User: schluterlab
Dark Spectrum Present: Yes
Reference Spectrum Present: Yes
Number of Sampled Component Spectra: 1
Spectrometers: USB2E3373
Integration Time (usec): 3000 (USB2E3373)
Spectra Averaged: 3 (USB2E3373)
Boxcar Smoothing: 0 (USB2E3373)
Correct for Electrical Dark: No (USB2E3373)
Strobe/Lamp Enabled: No (USB2E3373)
Correct for Detector Non-linearity: No (USB2E3373)
Correct for Stray Light: No (USB2E3373)
Number of Pixels in Processed Spectrum: 2048
>>>>>Begin Processed Spectral Data<<<<<
178.53	0.000
178.91	-100.000
179.29	-250.000
179.67	466.667
180.04	0.000
180.42	-20.000
180.80	-66.667
181.18	600.000
181.56	-650.000
181.94	216.667
182.31	2200.000
182.69	-114.286
183.07	0.000
183.45	108.333
183.83	180.000
184.20	66.667
184.58	550.000
184.96	350.000
185.34	-133.333
185.72	-14.286
186.09	150.000
186.47	-500.000
186.85	100.000
187.23	116.667
187.61	-71.429
187.98	-20.000
188.36	450.000
188.74	-75.000
189.12	-22.222
189.49	-90.000
189.87	300.000
190.25	88.889
190.63	533.333
191.00	80.000
191.38	-266.667
191.76	280.000
192.14	42.857
192.51	20.000
192.89	-20.000
193.27	-60.000
193.65	-333.333
194.02	-133.333
194.40	-0.000
194.78	-162.500
195.15	-342.857
195.53	133.333
195.91	360.000
196.29	-275.000
196.66	-200.000
197.04	-228.571
197.42	80.000
197.79	-125.000
198.17	0.000
198.55	300.000
198.92	-44.444
199.30	100.000
199.68	-300.000
200.05	-300.000
200.43	-11.111
200.81	0.000
201.18	100.000
201.56	-300.000
201.94	-300.000
202.31	-41.667
202.69	88.889
203.07	-25.000
203.44	-275.000
203.82	0.000
204.19	237.500
204.57	33.333
204.95	145.455
205.32	160.000
205.70	200.000
206.08	-200.000
206.45	-40.000
206.83	1500.000
207.20	-155.556
207.58	-7.692
207.96	266.667
208.33	233.333
208.71	266.667
209.08	600.000
209.46	-55.556
209.84	366.667
210.21	100.000
210.59	250.000
210.96	133.333
211.34	-275.000
211.71	850.000
212.09	40.000
212.46	12.500
212.84	-125.000
213.22	-14.286
213.59	75.000
213.97	0.000
214.34	-300.000
214.72	-1300.000
215.09	700.000
215.47	0.000
215.84	-25.000
216.22	-1700.000
216.59	1300.000
216.97	-33.333
217.34	-133.333
217.72	38.889
218.09	525.000
218.47	-5.263
218.84	-125.000
219.22	71.429
219.59	-50.000
219.97	-190.000
220.34	116.667
220.72	118.182
221.09	-850.000
221.47	0.000
221.84	-0.000
222.22	-275.000
222.59	-275.000
222.97	34.783
223.34	73.333
223.72	285.714
224.09	0.000
224.46	115.385
224.84	0.000
225.21	-400.000
225.59	-125.000
225.96	75.000
226.34	116.667
226.71	120.000
227.08	-53.846
227.46	-42.857
227.83	-8.333
228.21	-900.000
228.58	33.333
228.95	0.000
229.33	-25.000
229.70	-116.667
230.08	-55.556
230.45	-433.333
230.82	-1600.000
231.20	23.810
231.57	-80.000
231.95	-100.000
232.32	155.556
232.69	-300.000
233.07	106.250
233.44	-12.500
233.81	19.355
234.19	-140.000
234.56	5.556
234.93	-116.667
235.31	22.222
235.68	-14.815
236.05	-3.846
236.43	-36.842
236.80	36.364
237.17	-71.429
237.55	-25.000
237.92	20.930
238.29	9.677
238.67	35.714
239.04	28.571
239.41	25.490
239.79	14.000
240.16	22.500
240.53	-6.897
240.91	26.027
241.28	7.042
241.65	20.313
242.02	17.544
242.40	34.667
242.77	13.684
243.14	29.412
243.51	17.204
243.89	16.190
244.26	31.481
244.63	23.469
245.00	13.393
245.38	13.445
245.75	21.186
246.12	28.125
246.49	14.400
246.87	19.672
247.24	12.676
247.61	28.477
247.98	24.719
248.36	27.673
248.73	18.750
249.10	18.333
249.47	25.000
249.84	26.904
250.22	19.271
250.59	17.416
250.96	26.364
251.33	21.698
251.70	20.183
252.08	26.407
252.45	20.000
252.82	19.409
253.19	26.070
253.56	22.745
253.94	22.764
254.31	28.417
254.68	24.653
255.05	25.166
255.42	21.455
255.79	26.490
256.16	24.653
256.54	25.152
256.91	26.603
257.28	21.104
257.65	21.967
258.02	27.027
258.39	27.492
258.76	24.465
259.14	24.706
259.51	30.423
259.88	29.683
260.25	21.307
260.62	21.348
260.99	25.627
261.36	22.414
261.73	24.533
262.10	25.613
262.47	26.446
262.85	25.450
263.22	24.462
263.59	26.273
263.96	25.326
264.33	23.181
264.70	20.885
265.07	25.369
265.44	25.527
265.81	27.470
266.18	24.824
266.55	22.381
266.92	24.554
267.29	22.222
267.66	24.773
268.03	24.946
268.40	21.510
268.77	24.053
269.14	24.580
269.51	21.719
269.88	24.145
270.25	23.840
270.62	26.050
270.99	23.158
271.36	24.283
271.73	26.042
272.10	23.237
272.47	22.400
272.84	24.416
273.21	21.294
273.58	21.837
273.95	24.303
274.32	23.211
274.69	23.483
275.06	23.265
275.43	21.600
275.80	23.327
276.17	22.727
276.54	26.426
276.91	23.992
277.28	24.758
277.65	24.197
278.02	23.295
278.39	24.682
278.76	25.698
279.13	22.361
279.50	24.910
279.87	24.906
280.23	24.044
280.60	22.968
280.97	23.726
281.34	23.390
281.71	20.071
282.08	24.687
282.45	21.340
282.82	23.232
283.19	22.222
283.56	24.403
283.92	23.065
284.29	24.027
284.66	22.655
285.03	21.098
285.40	22.833
285.77	24.466
286.14	23.930
286.51	21.383
286.87	22.204
287.24	19.071
287.61	22.377
287.98	25.039
288.35	21.085
288.72	23.700
289.08	20.126
289.45	20.593
289.82	21.118
290.19	21.061
290.56	20.695
290.93	21.713
291.29	20.142
291.66	21.067
292.03	22.382
292.40	20.719
292.77	20.408
293.13	19.530
293.50	21.212
293.87	19.556
294.24	19.242
294.60	20.765
294.97	17.729
295.34	17.808
295.71	18.724
296.08	19.399
296.44	20.422
296.81	18.370
297.18	20.181
297.55	18.844
297.91	18.147
298.28	17.391
298.65	18.241
299.02	17.879
299.38	16.582
299.75	18.662
300.12	17.506
300.48	18.075
300.85	16.870
301.22	17.308
301.59	18.127
301.95	17.805
302.32	16.768
302.69	14.982
303.05	17.119
303.42	18.599
303.79	16.742
304.15	17.214
304.52	17.542
304.89	17.136
305.25	16.972
305.62	16.818
305.99	16.125
306.35	17.338
306.72	17.538
307.09	16.322
307.45	18.015
307.82	17.289
308.19	18.042
308.55	16.772
308.92	18.008
309.29	15.272
309.65	17.544
310.02	16.981
310.38	16.418
310.75	16.291
311.12	16.684
311.48	17.163
311.85	15.198
312.22	16.219
312.58	14.904
312.95	16.119
313.31	15.831
313.68	16.485
314.05	17.676
314.41	16.110
314.78	15.678
315.14	16.552
315.51	16.187
315.87	16.113
316.24	17.804
316.61	16.505
316.97	15.784
317.34	17.033
317.70	16.246
318.07	15.622
318.43	16.163
318.80	15.574
319.16	15.657
319.53	16.415
319.89	15.720
320.26	17.011
320.62	16.376
320.99	16.429
321.35	15.711
321.72	15.758
322.08	16.733
322.45	15.483
322.81	16.650
323.18	16.683
323.54	16.967
323.91	15.655
324.27	15.622
324.64	15.276
325.00	16.106
325.37	15.737
325.73	15.420
326.10	15.762
326.46	16.682
326.83	15.128
327.19	16.943
327.56	16.888
327.92	14.844
328.29	16.039
328.65	17.232
329.01	16.055
329.38	16.529
329.74	16.063
330.11	14.911
330.47	15.549
330.84	14.380
331.20	15.619
331.56	14.151
331.93	14.273
332.29	14.524
332.66	16.546
333.02	15.042
333.38	16.176
333.75	15.096
334.11	15.371
334.48	15.474
334.84	14.742
335.20	15.130
335.57	15.622
335.93	14.698
336.29	16.271
336.66	14.390
337.02	15.956
337.38	15.943
337.75	16.000
338.11	16.591
338.47	15.135
338.84	14.365
339.20	14.849
339.56	15.471
339.93	14.234
340.29	15.141
340.65	15.890
341.02	15.058
341.38	14.475
341.74	15.214
342.11	15.119
342.47	14.685
342.83	14.137
343.20	14.943
343.56	14.248
343.92	15.223
344.28	14.065
344.65	14.726
345.01	14.199
345.37	16.154
345.73	13.867
346.10	14.347
346.46	14.495
346.82	14.698
347.19	14.718
347.55	15.646
347.91	15.152
348.27	15.333
348.63	16.422
349.00	15.693
349.36	15.746
349.72	16.667
350.08	16.203
350.45	15.867
350.81	15.772
351.17	14.909
351.53	14.976
351.89	14.767
352.26	15.772
352.62	15.454
352.98	15.649
353.34	15.455
353.70	15.309
354.07	16.145
354.43	15.609
354.79	15.984
355.15	15.335
355.51	16.137
355.87	16.486
356.24	15.686
356.60	15.943
356.96	15.956
357.32	16.708
357.68	15.990
358.04	16.207
358.40	16.121
358.77	15.341
359.13	16.225
359.49	15.120
359.85	16.147
360.21	16.019
360.57	14.912
360.93	16.548
361.29	15.966
361.66	16.088
362.02	16.797
362.38	16.317
362.74	16.065
363.10	15.385
363.46	15.952
363.82	15.391
364.18	14.989
364.54	15.802
364.90	15.704
365.26	16.692
365.62	14.913
365.98	15.742
366.35	16.339
366.71	16.206
367.07	15.941
367.43	15.668
367.79	15.334
368.15	15.345
368.51	16.929
368.87	15.198
369.23	15.746
369.59	16.618
369.95	14.829
370.31	15.379
370.67	15.038
371.03	16.409
371.39	15.408
371.75	14.487
372.11	14.963
372.47	15.442
372.83	16.070
373.19	15.361
373.55	14.521
373.91	15.076
374.27	16.336
374.63	16.274
374.99	14.934
375.35	15.385
375.71	15.710
376.07	15.760
376.42	16.252
376.78	14.495
377.14	15.712
377.50	14.843
377.86	15.111
378.22	15.984
378.58	15.724
378.94	16.568
379.30	14.607
379.66	15.877
380.02	15.257
380.38	15.776
380.74	16.035
381.09	14.867
381.45	16.127
381.81	15.497
382.17	15.635
382.53	15.713
382.89	15.138
383.25	15.599
383.61	14.050
383.97	15.270
384.32	14.581
384.68	15.709
385.04	14.195
385.40	16.166
385.76	14.485
386.12	14.983
386.48	14.677
386.83	14.944
387.19	15.070
387.55	15.026
387.91	14.579
388.27	15.355
388.62	14.508
388.98	15.140
389.34	15.224
389.70	15.064
390.06	15.314
390.42	15.281
390.77	14.487
391.13	15.290
391.49	16.038
391.85	15.702
392.20	16.106
392.56	14.145
392.92	14.842
393.28	15.500
393.64	14.820
393.99	15.065
394.35	14.147
394.71	14.437
395.07	15.053
395.42	14.032
395.78	14.919
396.14	14.923
396.50	15.071
396.85	14.276
397.21	15.006
397.57	15.339
397.92	15.204
398.28	15.228
398.64	14.667
399.00	15.786
399.35	15.885
399.71	14.910
400.07	15.503
400.42	14.936
400.78	15.035
401.14	14.836
401.49	15.053
401.85	15.683
402.21	14.340
402.57	14.746
402.92	15.073
403.28	15.150
403.63	15.705
403.99	14.465
404.35	14.013
404.70	14.440
405.06	15.127
405.42	15.355
405.77	14.982
406.13	15.114
406.49	14.069
406.84	15.504
407.20	14.622
407.55	15.631
407.91	14.545
408.27	14.096
408.62	15.434
408.98	15.573
409.34	15.237
409.69	15.318
410.05	14.313
410.40	14.772
410.76	15.816
411.11	14.803
411.47	14.354
411.83	15.518
412.18	14.921
412.54	15.395
412.89	14.054
413.25	15.172
413.60	14.987
413.96	14.239
414.31	14.914
414.67	15.057
415.03	15.422
415.38	15.460
415.74	14.574
416.09	14.473
416.45	14.791
416.80	13.978
417.16	14.528
417.51	14.712
417.87	16.279
418.22	14.572
418.58	14.858
418.93	15.990
419.29	14.858
419.64	15.865
420.00	14.800
420.35	15.694
420.71	14.597
421.06	15.055
421.42	15.558
421.77	15.530
422.12	15.416
422.48	14.563
422.83	14.590
423.19	15.647
423.54	14.417
423.90	15.328
424.25	16.073
424.61	15.419
424.96	15.479
425.31	14.614
425.67	15.515
426.02	15.342
426.38	14.414
426.73	15.452
427.09	15.036
427.44	14.568
427.79	16.275
428.15	14.838
428.50	15.201
428.85	15.779
429.21	16.557
429.56	15.359
429.92	15.576
430.27	14.667
430.62	14.819
430.98	15.690
431.33	15.628
431.68	14.880
432.04	15.708
432.39	14.557
432.74	15.813
433.10	15.706
433.45	15.389
433.80	15.893
434.16	15.305
434.51	16.332
434.86	14.985
435.22	15.483
435.57	16.161
435.92	13.808
436.28	15.193
436.63	16.041
436.98	15.185
437.34	15.227
437.69	15.617
438.04	14.663
438.39	14.883
438.75	14.954
439.10	15.714
439.45	15.661
439.81	15.492
440.16	14.966
440.51	15.675
440.86	15.909
441.22	15.188
441.57	15.840
441.92	15.351
442.27	15.143
442.63	16.140
442.98	15.465
443.33	16.334
443.68	15.530
444.03	15.361
444.39	14.888
444.74	16.256
445.09	17.001
445.44	14.927
445.79	15.750
446.15	15.977
446.50	16.541
446.85	15.842
447.20	15.427
447.55	15.009
447.91	16.226
448.26	15.727
448.61	15.831
448.96	15.612
449.31	15.853
449.66	14.952
450.02	15.562
450.37	17.132
450.72	16.158
451.07	15.227
451.42	16.271
451.77	15.069
452.12	15.288
452.47	14.837
452.83	16.314
453.18	16.340
453.53	17.048
453.88	16.337
454.23	16.869
454.58	16.449
454.93	15.531
455.28	16.293
455.63	17.089
455.98	15.546
456.34	16.611
456.69	15.708
457.04	15.617
457.39	16.292
457.74	15.803
458.09	15.370
458.44	15.819
458.79	15.371
459.14	16.696
459.49	16.624
459.84	16.468
460.19	15.760
460.54	16.162
460.89	15.353
461.24	16.364
461.59	16.972
461.94	16.174
462.29	16.416
462.64	16.435
462.99	16.679
463.34	16.557
463.69	17.010
464.04	16.677
464.39	17.042
464.74	16.807
465.09	16.656
465.44	15.957
465.79	16.125
466.14	16.229
466.49	16.300
466.84	15.909
467.19	16.634
467.54	15.915
467.89	17.505
468.24	16.288
468.59	17.670
468.94	16.409
469.29	16.955
469.64	17.797
469.99	16.655
470.34	16.124
470.68	16.769
471.03	16.350
471.38	17.876
471.73	17.442
472.08	16.868
472.43	18.396
472.78	15.954
473.13	17.404
473.48	16.805
473.83	17.569
474.17	17.145
474.52	16.879
474.87	17.992
475.22	17.853
475.57	16.392
475.92	16.714
476.27	16.938
476.61	16.785
476.96	16.538
477.31	17.009
477.66	17.199
478.01	16.539
478.36	17.192
478.70	17.070
479.05	16.657
479.40	16.086
479.75	17.555
480.10	16.504
480.45	17.382
480.79	17.333
481.14	16.658
481.49	17.841
481.84	17.172
482.19	16.683
482.53	16.618
482.88	16.878
483.23	17.186
483.58	16.782
483.92	17.337
484.27	16.312
484.62	16.926
484.97	16.652
485.31	17.053
485.66	16.479
486.01	15.644
486.36	15.979
486.70	16.018
487.05	16.462
487.40	16.402
487.75	16.576
488.09	16.071
488.44	16.620
488.79	16.781
489.13	16.376
489.48	17.491
489.83	16.736
490.17	16.878
490.52	17.161
490.87	17.359
491.22	17.061
491.56	16.700
491.91	17.068
492.26	17.491
492.60	17.704
492.95	18.224
493.30	17.355
493.64	17.191
493.99	17.864
494.34	17.182
494.68	17.245
495.03	16.531
495.37	17.587
495.72	17.352
496.07	17.039
496.41	16.403
496.76	17.049
497.11	17.774
497.45	17.680
497.80	17.965
498.14	18.004
498.49	17.779
498.84	17.453
499.18	16.917
499.53	17.497
499.87	17.358
500.22	17.558
500.56	18.577
500.91	18.406
501.26	17.848
501.60	17.839
501.95	17.605
502.29	16.880
502.64	17.222
502.98	17.617
503.33	17.324
503.67	17.101
504.02	17.875
504.36	17.565
504.71	17.819
505.06	17.193
505.40	17.748
505.75	18.115
506.09	17.118
506.44	18.294
506.78	18.094
507.13	17.807
507.47	17.895
507.82	17.634
508.16	17.706
508.51	18.435
508.85	18.077
509.19	18.212
509.54	18.130
509.88	17.664
510.23	17.697
510.57	18.001
510.92	18.254
511.26	18.380
511.61	18.322
511.95	18.855
512.30	18.493
512.64	17.478
512.98	18.252
513.33	17.761
513.67	17.066
514.02	18.089
514.36	17.972
514.70	19.126
515.05	18.720
515.39	18.319
515.74	17.857
516.08	18.581
516.42	19.329
516.77	18.323
517.11	18.104
517.46	19.238
517.80	19.400
518.14	19.418
518.49	19.276
518.83	19.455
519.17	19.344
519.52	18.364
519.86	20.203
520.20	18.471
520.55	20.170
520.89	19.703
521.23	18.971
521.58	19.246
521.92	19.559
522.26	19.725
522.61	19.522
522.95	20.000
523.29	19.366
523.64	18.725
523.98	18.481
524.32	18.990
524.66	20.326
525.01	19.450
525.35	18.605
525.69	19.408
526.04	19.873
526.38	19.534
526.72	19.722
527.06	19.128
527.41	19.986
527.75	19.167
528.09	20.368
528.43	18.781
528.78	18.938
529.12	19.110
529.46	19.203
529.80	19.605
530.15	19.666
530.49	20.502
530.83	19.450
531.17	20.127
531.51	19.486
531.86	20.588
532.20	18.759
532.54	20.647
532.88	19.345
533.22	20.187
533.57	19.655
533.91	20.853
534.25	20.299
534.59	19.395
534.93	19.275
535.27	18.788
535.62	19.109
535.96	18.772
536.30	19.624
536.64	20.029
536.98	21.091
537.32	20.238
537.66	18.988
538.01	19.072
538.35	19.782
538.69	19.462
539.03	19.034
539.37	19.526
539.71	19.275
540.05	19.030
540.39	19.608
540.73	20.366
541.07	20.147
541.42	19.743
541.76	20.432
542.10	19.584
542.44	20.087
542.78	19.208
543.12	19.350
543.46	19.374
543.80	19.585
544.14	20.143
544.48	20.070
544.82	20.156
545.16	20.000
545.50	20.451
545.84	21.434
546.18	20.225
546.52	20.600
546.86	19.587
547.20	19.318
547.54	19.636
547.88	18.946
548.22	18.706
548.56	20.085
548.90	19.228
549.24	19.152
549.58	19.896
549.92	20.602
550.26	19.537
550.60	20.063
550.94	19.921
551.28	21.057
551.62	20.803
551.96	20.447
552.30	20.000
552.64	20.060
552.98	19.614
553.32	19.697
553.66	19.803
554.00	20.154
554.34	19.844
554.68	20.734
555.02	20.476
555.36	20.413
555.69	19.600
556.03	20.103
556.37	19.655
556.71	19.910
557.05	19.062
557.39	19.920
557.73	21.069
558.07	20.892
558.41	19.553
558.75	19.917
559.08	21.106
559.42	20.819
559.76	20.809
560.10	20.130
560.44	19.398
560.78	19.835
561.12	20.210
561.45	18.973
561.79	18.869
562.13	20.015
562.47	19.648
562.81	19.864
563.15	19.163
563.48	18.727
563.82	20.087
564.16	19.303
564.50	19.628
564.84	20.198
565.17	20.029
565.51	20.338
565.85	19.718
566.19	20.042
566.52	19.427
566.86	20.287
567.20	19.561
567.54	19.911
567.88	18.083
568.21	19.637
568.55	19.072
568.89	18.901
569.23	18.574
569.56	18.437
569.90	17.473
570.24	18.164
570.57	17.269
570.91	18.159
571.25	18.767
571.59	18.230
571.92	17.333
572.26	17.525
572.60	17.415
572.93	18.107
573.27	17.132
573.61	17.858
573.95	17.680
574.28	17.021
574.62	17.632
574.96	17.392
575.29	17.346
575.63	16.894
575.97	17.298
576.30	17.698
576.64	16.703
576.98	16.724
577.31	17.475
577.65	17.014
577.98	17.085
578.32	16.949
578.66	17.111
578.99	17.442
579.33	17.285
579.67	17.632
580.00	17.290
580.34	17.514
580.67	17.345
581.01	17.136
581.35	16.899
581.68	16.975
582.02	17.140
582.35	16.553
582.69	17.194
583.02	17.350
583.36	17.201
583.70	17.259
584.03	17.390
584.37	18.099
584.70	17.333
585.04	17.201
585.37	17.506
585.71	17.346
586.04	17.426
586.38	17.734
586.72	17.574
587.05	17.924
587.39	17.801
587.72	17.699
588.06	17.550
588.39	17.645
588.73	17.364
589.06	17.298
589.40	18.022
589.73	18.138
590.07	18.002
590.40	17.952
590.73	18.367
591.07	18.831
591.40	18.456
591.74	18.657
592.07	18.434
592.41	19.072
592.74	18.321
593.08	18.445
593.41	17.895
593.75	17.762
594.08	18.055
594.41	18.086
594.75	18.128
595.08	18.543
595.42	18.588
595.75	17.879
596.09	18.094
596.42	18.055
596.75	19.000
597.09	17.444
597.42	18.254
597.75	19.278
598.09	18.820
598.42	18.836
598.76	18.625
599.09	18.361
599.42	17.309
599.76	18.282
600.09	18.268
600.42	17.695
600.76	17.513
601.09	18.157
601.42	18.438
601.76	17.451
602.09	19.062
602.42	18.020
602.76	18.412
603.09	18.016
603.42	18.058
603.76	17.583
604.09	18.964
604.42	18.119
604.76	18.120
605.09	17.903
605.42	19.052
605.75	17.679
606.09	18.711
606.42	18.591
606.75	18.694
607.09	18.657
607.42	18.816
607.75	18.090
608.08	18.569
608.42	18.429
608.75	18.009
609.08	17.415
609.41	19.699
609.75	18.799
610.08	19.173
610.41	18.321
610.74	18.605
611.07	18.403
611.41	18.951
611.74	19.260
612.07	18.527
612.40	19.499
612.73	19.097
613.07	18.321
613.40	18.861
613.73	17.755
614.06	18.501
614.39	18.805
614.72	18.359
615.06	19.690
615.39	18.707
615.72	19.037
616.05	18.667
616.38	18.921
616.71	18.408
617.05	19.284
617.38	19.290
617.71	20.901
618.04	19.317
618.37	18.705
618.70	20.380
619.03	19.652
619.36	20.471
619.69	19.518
620.03	20.061
620.36	19.879
620.69	20.769
621.02	20.507
621.35	19.660
621.68	20.702
622.01	20.499
622.34	19.012
622.67	20.405
623.00	19.738
623.33	20.079
623.66	21.355
623.99	20.255
624.32	19.619
624.65	19.609
624.99	20.469
625.32	20.458
625.65	19.135
625.98	20.833
626.31	20.173
626.64	20.450
626.97	21.783
627.30	21.019
627.63	20.465
627.96	20.764
628.29	21.033
628.62	20.309
628.95	22.386
629.28	21.488
629.61	20.690
629.94	21.369
630.26	22.071
630.59	21.047
630.92	19.494
631.25	20.782
631.58	21.047
631.91	21.982
632.24	22.130
632.57	23.900
632.90	23.739
633.23	21.935
633.56	21.384
633.89	22.032
634.22	23.462
634.55	22.076
634.88	23.293
635.20	22.740
635.53	23.743
635.86	23.777
636.19	20.600
636.52	23.181
636.85	20.730
637.18	22.798
637.51	21.274
637.83	23.464
638.16	25.320
638.49	23.055
638.82	22.222
639.15	23.571
639.48	23.581
639.81	21.759
640.13	20.674
640.46	23.150
640.79	22.636
641.12	23.411
641.45	24.261
641.77	21.178
642.10	23.616
642.43	22.391
642.76	23.118
643.09	22.318
643.41	24.373
643.74	25.347
644.07	21.693
644.40	22.202
644.73	23.389
645.05	24.809
645.38	22.885
645.71	21.565
646.04	26.766
646.36	22.538
646.69	23.791
647.02	25.781
647.35	25.400
647.67	27.255
648.00	26.796
648.33	24.277
648.66	23.191
648.98	23.898
649.31	22.719
649.64	23.236
649.96	22.466
650.29	22.832
650.62	24.119
650.94	22.736
651.27	24.855
651.60	22.371
651.92	22.710
652.25	19.120
652.58	21.903
652.90	21.530
653.23	22.486
653.56	24.306
653.88	23.540
654.21	22.495
654.54	22.889
654.86	23.921
655.19	20.161
655.52	20.267
655.84	17.196
656.17	16.827
656.49	22.590
656.82	26.135
657.15	20.661
657.47	15.725
657.80	11.923
658.13	9.995
658.45	16.511
658.78	16.580
659.10	16.179
659.43	16.515
659.75	16.133
660.08	17.431
660.41	17.769
660.73	20.222
661.06	21.091
661.38	23.790
661.71	23.195
662.03	22.917
662.36	20.764
662.68	23.981
663.01	25.481
663.33	25.236
663.66	24.880
663.98	25.917
664.31	19.756
664.63	24.083
664.96	23.278
665.28	23.168
665.61	25.701
665.93	22.350
666.26	23.400
666.58	24.541
666.91	24.122
667.23	23.153
667.56	27.160
667.88	24.812
668.21	23.858
668.53	26.904
668.86	22.959
669.18	21.574
669.50	26.221
669.83	23.750
670.15	23.500
670.48	24.561
670.80	24.112
671.13	24.337
671.45	23.724
671.77	22.705
672.10	22.857
672.42	23.108
672.75	20.583
673.07	22.056
673.39	23.346
673.72	23.554
674.04	23.191
674.37	24.942
674.69	22.664
675.01	25.814
675.34	24.020
675.66	24.048
675.98	20.707
676.31	23.174
676.63	22.680
676.95	23.741
677.28	23.267
677.60	24.812
677.92	23.810
678.25	20.650
678.57	22.042
678.89	22.248
679.22	23.624
679.54	21.604
679.86	23.983
680.18	21.130
680.51	20.739
680.83	22.083
681.15	22.658
681.48	22.128
681.80	21.522
682.12	23.340
682.44	19.828
682.77	20.682
683.09	21.569
683.41	23.058
683.73	25.377
684.06	23.096
684.38	21.823
684.70	24.711
685.02	17.749
685.34	20.084
685.67	19.565
685.99	21.756
686.31	21.082
686.63	21.359
686.96	17.886
687.28	21.971
687.60	22.382
687.92	19.831
688.24	22.105
688.56	20.220
688.89	23.288
689.21	21.163
689.53	20.205
689.85	22.785
690.17	22.059
690.49	21.882
690.82	21.622
691.14	23.499
691.46	22.500
691.78	22.010
692.10	23.394
692.42	21.789
692.74	22.275
693.06	21.928
693.39	21.182
693.71	21.395
694.03	19.082
694.35	18.317
694.67	21.374
694.99	20.216
695.31	19.547
695.63	21.351
695.95	23.315
696.27	20.963
696.59	21.662
696.91	25.926
697.23	19.198
697.56	20.984
697.88	23.185
698.20	16.465
698.52	19.952
698.84	20.802
699.16	21.372
699.48	24.607
699.80	18.681
700.12	23.416
700.44	18.584
700.76	23.659
701.08	19.048
701.40	22.039
701.72	22.667
702.04	23.810
702.36	20.984
702.68	27.517
703.00	18.927
703.32	17.964
703.64	23.975
703.96	18.038
704.28	19.014
704.60	24.315
704.91	22.368
705.23	21.404
705.55	21.933
705.87	23.741
706.19	26.295
706.51	21.484
706.83	21.978
707.15	20.000
707.47	22.455
707.79	20.917
708.11	22.222
708.43	22.667
708.74	20.492
709.06	21.779
709.38	24.629
709.70	22.078
710.02	24.825
710.34	16.312
710.66	20.974
710.98	21.678
711.29	24.399
711.61	18.085
711.93	24.719
712.25	21.132
712.57	24.219
712.89	22.041
713.20	20.968
713.52	18.293
713.84	19.708
714.16	20.608
714.48	23.549
714.80	21.212
715.11	23.711
715.43	14.676
715.75	18.596
716.07	22.182
716.39	20.478
716.70	18.800
717.02	18.952
717.34	24.242
717.66	23.636
717.97	14.352
718.29	24.000
718.61	15.315
718.93	20.588
719.24	21.339
719.56	18.750
719.88	19.608
720.20	17.521
720.51	26.316
720.83	24.268
721.15	20.408
721.46	18.987
721.78	14.286
722.10	22.868
722.42	22.174
722.73	19.457
723.05	20.276
723.37	21.719
723.68	20.853
724.00	22.685
724.32	19.159
724.63	23.982
724.95	18.721
725.27	22.535
725.58	17.352
725.90	16.216
726.22	19.651
726.53	25.410
726.85	18.889
727.16	24.291
727.48	24.194
727.80	19.178
728.11	22.667
728.43	21.811
728.74	17.982
729.06	18.341
729.38	22.481
729.69	20.000
730.01	20.502
730.32	14.741
730.64	18.846
730.96	16.216
731.27	17.375
731.59	17.845
731.90	18.092
732.22	22.591
732.53	18.596
732.85	17.958
733.16	16.484
733.48	16.791
733.80	22.182
734.11	21.631
734.43	19.856
734.74	18.380
735.06	19.614
735.37	19.489
735.69	16.549
736.00	19.259
736.32	19.930
736.63	22.222
736.95	14.786
737.26	24.275
737.58	17.518
737.89	16.981
738.21	19.847
738.52	22.131
738.83	16.239
739.15	22.273
739.46	12.162
739.78	22.780
740.09	21.032
740.41	18.939
740.72	19.124
741.04	20.158
741.35	19.283
741.66	26.344
741.98	13.265
742.29	22.798
742.61	20.231
742.92	20.588
743.23	23.383
743.55	16.580
743.86	24.638
744.18	22.000
744.49	20.556
744.80	22.043
745.12	18.974
745.43	14.973
745.74	20.321
746.06	20.690
746.37	13.889
746.68	23.784
747.00	14.365
747.31	19.895
747.62	22.632
747.94	20.283
748.25	30.542
748.56	22.727
748.88	21.858
749.19	22.798
749.50	23.529
749.82	21.500
750.13	20.874
750.44	21.888
750.75	23.600
751.07	20.084
751.38	16.406
751.69	24.206
752.01	18.487
752.32	25.620
752.63	17.031
752.94	18.400
753.26	17.352
753.57	21.327
753.88	15.814
754.19	22.907
754.51	18.828
754.82	20.000
755.13	13.717
755.44	17.749
755.75	18.474
756.07	20.172
756.38	20.084
756.69	21.132
757.00	22.340
757.31	16.609
757.63	18.301
757.94	18.788
758.25	15.476
758.56	15.946
758.87	18.750
759.18	19.938
759.50	17.082
759.81	17.375
760.12	20.285
760.43	18.937
760.74	20.359
761.05	17.628
761.36	20.178
761.67	16.717
761.99	18.395
762.30	16.000
762.61	19.106
762.92	18.222
763.23	19.535
763.54	18.782
763.85	15.385
764.16	19.130
764.47	18.696
764.78	20.565
765.10	13.780
765.41	17.057
765.72	15.385
766.03	19.732
766.34	19.697
766.65	20.312
766.96	20.444
767.27	32.961
767.58	25.786
767.89	22.078
768.20	18.919
768.51	18.391
768.82	10.000
769.13	18.519
769.44	24.057
769.75	13.235
770.06	18.447
770.37	18.617
770.68	22.564
770.99	19.797
771.30	13.918
771.61	15.695
771.92	16.509
772.23	18.269
772.54	15.882
772.85	9.589
773.16	16.129
773.47	22.930
773.78	20.958
774.09	19.079
774.39	18.382
774.70	21.805
775.01	22.308
775.32	14.286
775.63	19.685
775.94	12.264
776.25	19.259
776.56	14.545
776.87	24.786
777.18	22.000
777.48	15.385
777.79	24.074
778.10	21.698
778.41	26.471
778.72	14.151
779.03	14.912
779.34	14.286
779.65	23.239
779.95	23.022
780.26	14.516
780.57	18.841
780.88	11.927
781.19	20.370
781.50	13.115
781.80	19.708
782.11	14.103
782.42	14.483
782.73	21.678
783.04	8.000
783.34	10.400
783.65	21.138
783.96	3.279
784.27	16.807
784.57	8.411
784.88	19.643
785.19	19.588
785.50	13.684
785.81	16.000
786.11	18.812
786.42	-18.824
786.73	15.625
787.04	7.143
787.34	15.741
787.65	29.245
787.96	5.155
788.26	14.851
788.57	12.174
788.88	2.752
789.19	12.397
789.49	8.696
789.80	26.724
790.11	7.317
790.41	24.719
790.72	8.140
791.03	13.953
791.33	9.091
791.64	15.854
791.95	6.098
792.25	0.000
792.56	2.469
792.87	4.225
793.17	20.482
793.48	15.294
793.79	11.250
794.09	13.333
794.40	19.565
794.70	10.435
795.01	11.927
795.32	18.110
795.62	14.706
795.93	15.686
796.23	9.091
796.54	6.977
796.85	17.391
797.15	1.563
797.46	11.864
797.76	16.393
798.07	19.737
798.37	3.226
798.68	-1.562
798.99	27.692
799.29	10.606
799.60	17.391
799.90	18.571
800.21	5.263
800.51	20.690
800.82	7.547
801.12	13.725
801.43	0.000
801.73	27.419
802.04	32.000
802.34	1.887
802.65	-15.789
802.95	18.182
803.26	5.660
803.56	6.557
803.87	12.000
804.17	-3.704
804.48	21.154
804.78	8.163
805.09	17.021
805.39	11.864
805.70	-6.250
806.00	3.571
806.30	-1.695
806.61	7.692
806.91	3.077
807.22	3.947
807.52	14.286
807.83	8.621
808.13	15.190
808.43	-9.836
808.74	16.393
809.04	20.270
809.35	27.778
809.65	8.929
809.95	11.864
810.26	-4.082
810.56	3.774
810.86	25.490
811.17	27.027
811.47	-7.407
811.77	23.529
812.08	29.545
812.38	-25.000
812.69	7.692
812.99	9.524
813.29	13.043
813.59	14.286
813.90	16.667
814.20	-9.091
814.50	-6.122
814.81	0.000
815.11	2.083
815.41	-9.756
815.72	-7.692
816.02	23.404
816.32	21.875
816.62	3.030
816.93	-21.212
817.23	0.000
817.53	11.765
817.84	20.000
818.14	-23.529
818.44	-15.625
818.74	-80.952
819.04	-14.286
819.35	14.286
819.65	15.909
819.95	25.641
820.25	-66.667
820.56	-24.138
820.86	3.571
821.16	-60.870
821.46	11.905
821.76	11.111
822.07	0.000
822.37	-6.122
822.67	-11.628
822.97	-13.043
823.27	-11.538
823.57	7.407
823.88	-25.000
824.18	28.205
824.48	-14.286
824.78	9.091
825.08	-66.667
825.38	22.500
825.69	-55.556
825.99	-11.111
826.29	33.333
826.59	0.000
826.89	18.519
827.19	0.000
827.49	-59.091
827.79	-36.364
828.09	13.636
828.39	-52.174
828.70	-7.407
829.00	7.143
829.30	26.190
829.60	12.903
829.90	-11.538
830.20	-23.077
830.50	-50.000
830.80	-38.095
831.10	5.556
831.40	-71.429
831.70	-40.741
832.00	-5.882
832.30	39.130
832.60	4.167
832.90	-27.273
833.20	-11.111
833.50	28.125
833.80	3.846
834.10	36.000
834.40	-16.667
834.70	0.000
835.00	-50.000
835.30	-40.000
835.60	-70.000
835.90	15.000
836.20	-50.000
836.50	-8.696
836.80	-22.222
837.10	-40.000
837.40	-150.000
837.70	-13.043
838.00	-107.143
838.30	800.000
838.60	60.000
838.90	-100.000
839.19	-122.222
839.49	-350.000
839.79	5.882
840.09	-66.667
840.39	7.143
840.69	-100.000
840.99	-83.333
841.29	10.345
841.59	-6.667
841.88	0.000
842.18	-116.667
842.48	87.500
842.78	3.846
843.08	0.000
843.38	-10.000
843.68	-84.615
843.97	-5.882
844.27	-50.000
844.57	29.167
844.87	-36.364
845.17	-36.842
845.47	-33.333
845.76	0.000
846.06	-19.048
846.36	-92.857
846.66	-88.889
846.96	-5.000
847.25	-280.000
847.55	-100.000
847.85	-33.333
848.15	-175.000
848.44	-26.316
848.74	0.000
849.04	5.263
849.34	-33.333
849.63	-83.333
849.93	-41.176
850.23	-36.364
850.53	333.333
850.82	0.000
851.12	-55.556
851.42	-85.714
851.71	20.000
852.01	-28.571
852.31	-300.000
852.61	-23.077
852.90	-240.000
853.20	-55.556
853.50	-22.222
853.79	-120.000
854.09	-45.000
854.39	-52.632
854.68	-15.000
854.98	-250.000
855.28	-5.556
855.57	-50.000
855.87	-63.158
856.17	-68.750
856.46	19.231
856.76	-33.333
857.05	-43.750
857.35	-16.667
857.65	-5.556
857.94	50.000
858.24	-13.043
858.53	-140.000
858.83	-233.333
859.13	-163.636
859.42	-180.000
859.72	233.333
860.01	38.462
860.31	-50.000
860.60	-125.000
860.90	-225.000
861.20	-116.667
861.49	-275.000
861.79	400.000
862.08	41.935
862.38	15.789
862.67	7.692
862.97	-120.000
863.26	-25.000
863.56	0.000
863.85	-166.667
864.15	-100.000
864.44	56.250
864.74	-83.333
865.03	-22.222
865.33	-66.667
865.62	-700.000
865.92	-550.000
866.21	-166.667
866.51	-18.182
866.80	-366.667
867.10	-128.571
867.39	-166.667
867.69	-41.667
867.98	40.000
868.27	-425.000
868.57	175.000
868.86	-26.667
869.16	30.769
869.45	900.000
869.75	-100.000
870.04	-83.333
870.33	0.000
870.63	-171.429
870.92	69.565
871.22	-125.000
871.51	520.000
871.80	12.500
872.10	-100.000
>>>>>End Processed Spectral Data<<<<<
