SpectraSuite Data File
++++++++++++++++++++++++++++++++++++
Date: Tue May 12 19:56:35 PDT 2015
User: schluterlab
Dark Spectrum Present: Yes
Reference Spectrum Present: Yes
Number of Sampled Component Spectra: 1
Spectrometers: USB2E3373
Integration Time (usec): 3000 (USB2E3373)
Spectra Averaged: 3 (USB2E3373)
Boxcar Smoothing: 0 (USB2E3373)
Correct for Electrical Dark: No (USB2E3373)
Strobe/Lamp Enabled: No (USB2E3373)
Correct for Detector Non-linearity: No (USB2E3373)
Correct for Stray Light: No (USB2E3373)
Number of Pixels in Processed Spectrum: 2048
>>>>>Begin Processed Spectral Data<<<<<
178.53	0.000
178.91	-200.000
179.29	-233.333
179.67	133.333
180.04	0.000
180.42	-520.000
180.80	-666.667
181.18	1100.000
181.56	-1150.000
181.94	400.000
182.31	1700.000
182.69	-271.429
183.07	0.000
183.45	250.000
183.83	300.000
184.20	366.667
184.58	950.000
184.96	450.000
185.34	-500.000
185.72	-71.429
186.09	-216.667
186.47	-2500.000
186.85	-280.000
187.23	166.667
187.61	-271.429
187.98	-400.000
188.36	850.000
188.74	-325.000
189.12	-155.556
189.49	-130.000
189.87	475.000
190.25	222.222
190.63	700.000
191.00	400.000
191.38	-400.000
191.76	500.000
192.14	-157.143
192.51	-70.000
192.89	-60.000
193.27	-360.000
193.65	-666.667
194.02	-283.333
194.40	1100.000
194.78	-237.500
195.15	-300.000
195.53	366.667
195.91	400.000
196.29	-600.000
196.66	-333.333
197.04	-371.429
197.42	160.000
197.79	-237.500
198.17	-150.000
198.55	-900.000
198.92	-177.778
199.30	650.000
199.68	-125.000
200.05	-1000.000
200.43	-122.222
200.81	-125.000
201.18	516.667
201.56	-700.000
201.94	-1300.000
202.31	-133.333
202.69	-22.222
203.07	-150.000
203.44	-475.000
203.82	0.000
204.19	287.500
204.57	-800.000
204.95	245.455
205.32	360.000
205.70	200.000
206.08	-1600.000
206.45	-340.000
206.83	1300.000
207.20	-244.444
207.58	-115.385
207.96	366.667
208.33	700.000
208.71	666.667
209.08	900.000
209.46	-166.667
209.84	700.000
210.21	-800.000
210.59	300.000
210.96	322.222
211.34	-475.000
211.71	1550.000
212.09	-180.000
212.46	-312.500
212.84	-187.500
213.22	400.000
213.59	-200.000
213.97	0.000
214.34	-700.000
214.72	-400.000
215.09	700.000
215.47	-80.000
215.84	-250.000
216.22	-1700.000
216.59	2000.000
216.97	-25.000
217.34	-166.667
217.72	16.667
218.09	500.000
218.47	-52.632
218.84	-362.500
219.22	-114.286
219.59	-160.000
219.97	-60.000
220.34	300.000
220.72	127.273
221.09	-1000.000
221.47	0.000
221.84	550.000
222.22	-250.000
222.59	-550.000
222.97	-78.261
223.34	153.333
223.72	342.857
224.09	-216.667
224.46	184.615
224.84	-40.000
225.21	-500.000
225.59	-500.000
225.96	-5.000
226.34	333.333
226.71	300.000
227.08	-100.000
227.46	-114.286
227.83	-166.667
228.21	-700.000
228.58	300.000
228.95	-73.684
229.33	-100.000
229.70	-183.333
230.08	-188.889
230.45	-400.000
230.82	-1600.000
231.20	-57.143
231.57	-340.000
231.95	-866.667
232.32	200.000
232.69	-1000.000
233.07	37.500
233.44	-275.000
233.81	12.903
234.19	-400.000
234.56	-72.222
234.93	-133.333
235.31	-11.111
235.68	-22.222
236.05	-73.077
236.43	-21.053
236.80	-22.727
237.17	-64.286
237.55	-70.000
237.92	20.930
238.29	-12.903
238.67	10.714
239.04	0.000
239.41	5.882
239.79	20.000
240.16	-7.500
240.53	13.793
240.91	20.548
241.28	8.451
241.65	25.000
242.02	10.526
242.40	6.667
242.77	25.263
243.14	29.412
243.51	17.204
243.89	12.381
244.26	31.481
244.63	34.694
245.00	19.643
245.38	25.210
245.75	16.102
246.12	36.719
246.49	22.400
246.87	22.951
247.24	21.127
247.61	25.166
247.98	30.899
248.36	23.899
248.73	33.523
249.10	35.000
249.47	29.688
249.84	30.964
250.22	30.208
250.59	34.270
250.96	38.182
251.33	40.094
251.70	32.110
252.08	36.364
252.45	34.694
252.82	31.646
253.19	37.354
253.56	38.039
253.94	36.585
254.31	40.647
254.68	32.986
255.05	39.404
255.42	31.273
255.79	41.722
256.16	37.153
256.54	35.152
256.91	37.500
257.28	37.013
257.65	36.066
258.02	37.237
258.39	37.764
258.76	35.780
259.14	34.118
259.51	36.620
259.88	36.311
260.25	34.659
260.62	34.551
260.99	35.097
261.36	37.069
261.73	40.267
262.10	41.689
262.47	38.567
262.85	37.018
263.22	36.559
263.59	39.678
263.96	36.292
264.33	32.884
264.70	34.398
265.07	35.961
265.44	39.578
265.81	38.554
266.18	38.173
266.55	38.571
266.92	39.509
267.29	39.333
267.66	34.773
268.03	38.925
268.40	37.300
268.77	35.189
269.14	36.345
269.51	38.009
269.88	38.462
270.25	34.810
270.62	37.395
270.99	35.579
271.36	39.294
271.73	34.792
272.10	40.664
272.47	34.400
272.84	35.881
273.21	37.787
273.58	36.531
273.95	38.446
274.32	34.816
274.69	35.616
275.06	37.336
275.43	36.600
275.80	36.138
276.17	36.166
276.54	37.833
276.91	39.155
277.28	38.104
277.65	37.429
278.02	35.795
278.39	36.298
278.76	37.989
279.13	38.640
279.50	36.643
279.87	38.302
280.23	34.791
280.60	35.336
280.97	34.446
281.34	35.424
281.71	33.748
282.08	34.884
282.45	34.392
282.82	37.037
283.19	37.374
283.56	37.201
283.92	33.807
284.29	37.733
284.66	35.221
285.03	35.849
285.40	35.833
285.77	35.632
286.14	33.281
286.51	34.244
286.87	34.360
287.24	34.776
287.61	33.951
287.98	36.933
288.35	33.953
288.72	32.569
289.08	32.862
289.45	31.201
289.82	31.522
290.19	32.879
290.56	32.706
290.93	31.315
291.29	34.043
291.66	30.618
292.03	33.716
292.40	33.957
292.77	31.924
293.13	31.571
293.50	33.333
293.87	30.652
294.24	29.213
294.60	32.104
294.97	27.978
295.34	29.589
295.71	29.820
296.08	28.279
296.44	30.567
296.81	27.296
297.18	29.237
297.55	28.894
297.91	30.457
298.28	28.005
298.65	26.649
299.02	28.360
299.38	27.934
299.75	28.185
300.12	28.537
300.48	26.174
300.85	26.406
301.22	26.563
301.59	25.669
301.95	26.098
302.32	27.096
302.69	25.684
303.05	26.446
303.42	27.053
303.79	25.843
304.15	26.954
304.52	26.257
304.89	25.479
305.25	25.803
305.62	25.227
305.99	26.540
306.35	24.049
306.72	26.144
307.09	24.810
307.45	27.400
307.82	24.013
308.19	26.183
308.55	25.316
308.92	24.894
309.29	25.941
309.65	26.316
310.02	25.157
310.38	25.267
310.75	24.385
311.12	25.534
311.48	27.133
311.85	25.532
312.22	25.930
312.58	24.773
312.95	25.257
313.31	25.172
313.68	24.032
314.05	26.415
314.41	25.049
314.78	25.126
315.14	26.347
315.51	26.415
315.87	26.465
316.24	25.816
316.61	27.087
316.97	26.471
317.34	26.316
317.70	26.891
318.07	27.676
318.43	26.371
318.80	26.412
319.16	27.400
319.53	26.038
319.89	27.746
320.26	28.909
320.62	27.616
320.99	28.571
321.35	28.953
321.72	30.404
322.08	29.307
322.45	28.994
322.81	29.951
323.18	28.667
323.54	30.142
323.91	29.507
324.27	30.858
324.64	30.178
325.00	30.209
325.37	31.205
325.73	31.569
326.10	30.298
326.46	30.825
326.83	32.190
327.19	30.480
327.56	31.919
327.92	31.597
328.29	31.541
328.65	32.392
329.01	31.927
329.38	32.599
329.74	32.683
330.11	31.500
330.47	32.588
330.84	32.049
331.20	30.961
331.56	33.019
331.93	32.754
332.29	31.545
332.66	32.911
333.02	32.126
333.38	33.180
333.75	32.571
334.11	32.007
334.48	32.379
334.84	31.455
335.20	32.945
335.57	32.516
335.93	32.558
336.29	31.444
336.66	30.965
337.02	32.276
337.38	32.358
337.75	33.000
338.11	33.364
338.47	32.869
338.84	31.952
339.20	31.989
339.56	32.246
339.93	32.342
340.29	31.641
340.65	31.416
341.02	31.621
341.38	31.951
341.74	31.673
342.11	31.034
342.47	30.769
342.83	31.223
343.20	32.891
343.56	31.031
343.92	31.846
344.28	30.274
344.65	31.678
345.01	32.404
345.37	31.197
345.73	32.041
346.10	29.991
346.46	31.061
346.82	30.926
347.19	30.782
347.55	31.207
347.91	29.484
348.27	31.003
348.63	31.893
349.00	31.803
349.36	30.256
349.72	30.952
350.08	30.933
350.45	31.164
350.81	30.140
351.17	30.313
351.53	30.193
351.89	31.347
352.26	29.350
352.62	31.971
352.98	30.544
353.34	31.579
353.70	30.453
354.07	30.972
354.43	29.967
354.79	30.738
355.15	30.589
355.51	31.377
355.87	30.308
356.24	31.209
356.60	31.302
356.96	30.806
357.32	31.111
357.68	29.753
358.04	30.470
358.40	30.687
358.77	30.201
359.13	30.442
359.49	29.280
359.85	31.415
360.21	29.818
360.57	30.622
360.93	31.354
361.29	30.062
361.66	30.205
362.02	30.848
362.38	29.915
362.74	30.899
363.10	30.920
363.46	30.248
363.82	30.475
364.18	29.977
364.54	31.603
364.90	30.667
365.26	31.222
365.62	31.340
365.98	30.060
366.35	32.073
366.71	31.068
367.07	31.439
367.43	30.253
367.79	28.634
368.15	31.134
368.51	31.536
368.87	31.498
369.23	30.810
369.59	30.515
369.95	29.508
370.31	30.227
370.67	31.805
371.03	32.353
371.39	30.967
371.75	31.426
372.11	30.963
372.47	29.696
372.83	31.045
373.19	30.873
373.55	30.988
373.91	30.909
374.27	31.494
374.63	31.075
374.99	30.307
375.35	30.261
375.71	30.703
376.07	30.601
376.42	31.189
376.78	30.592
377.14	31.006
377.50	31.874
377.86	31.546
378.22	31.044
378.58	31.184
378.94	30.845
379.30	31.081
379.66	30.922
380.02	31.341
380.38	31.489
380.74	31.137
381.09	31.194
381.45	32.254
381.81	30.931
382.17	31.075
382.53	31.361
382.89	31.046
383.25	31.642
383.61	31.532
383.97	31.514
384.32	30.645
384.68	32.695
385.04	30.426
385.40	31.374
385.76	31.689
386.12	31.155
386.48	31.898
386.83	32.324
387.19	31.418
387.55	31.282
387.91	30.530
388.27	31.030
388.62	31.865
388.98	32.379
389.34	32.401
389.70	32.051
390.06	30.957
390.42	32.454
390.77	32.529
391.13	32.401
391.49	32.278
391.85	31.936
392.20	32.343
392.56	31.500
392.92	31.973
393.28	31.837
393.64	31.792
393.99	30.974
394.35	31.603
394.71	32.715
395.07	33.024
395.42	30.857
395.78	31.855
396.14	30.979
396.50	31.436
396.85	32.915
397.21	31.113
397.57	32.324
397.92	31.997
398.28	32.794
398.64	32.063
399.00	33.082
399.35	32.122
399.71	32.156
400.07	32.242
400.42	32.308
400.78	33.525
401.14	32.260
401.49	32.355
401.85	33.016
402.21	32.170
402.57	31.552
402.92	33.931
403.28	32.575
403.63	31.923
403.99	32.563
404.35	31.975
404.70	31.602
405.06	32.238
405.42	32.531
405.77	32.164
406.13	31.422
406.49	32.303
406.84	32.192
407.20	31.722
407.55	32.999
407.91	32.238
408.27	33.777
408.62	31.318
408.98	33.205
409.34	32.330
409.69	31.706
410.05	31.282
410.40	31.535
410.76	32.565
411.11	31.803
411.47	31.429
411.83	31.552
412.18	32.395
412.54	32.277
412.89	31.736
413.25	31.724
413.60	32.079
413.96	31.586
414.31	31.103
414.67	32.275
415.03	32.227
415.38	32.591
415.74	32.102
416.09	32.736
416.45	31.423
416.80	31.224
417.16	32.652
417.51	31.159
417.87	33.584
418.22	32.487
418.58	32.481
418.93	32.624
419.29	32.022
419.64	33.310
420.00	31.762
420.35	33.271
420.71	31.498
421.06	32.122
421.42	32.560
421.77	32.582
422.12	32.723
422.48	32.895
422.83	32.219
423.19	32.471
423.54	32.010
423.90	32.200
424.25	33.051
424.61	30.710
424.96	31.818
425.31	32.126
425.67	32.545
426.02	32.236
426.38	32.111
426.73	31.589
427.09	32.502
427.44	31.914
427.79	33.230
428.15	32.720
428.50	32.538
428.85	33.034
429.21	32.875
429.56	32.210
429.92	32.504
430.27	31.360
430.62	32.612
430.98	32.187
431.33	31.758
431.68	32.713
432.04	32.739
432.39	31.967
432.74	32.258
433.10	31.716
433.45	32.046
433.80	32.857
434.16	32.681
434.51	32.219
434.86	32.205
435.22	32.480
435.57	32.256
435.92	31.455
436.28	31.756
436.63	31.902
436.98	31.728
437.34	33.077
437.69	32.531
438.04	32.151
438.39	32.963
438.75	32.800
439.10	33.869
439.45	32.798
439.81	32.254
440.16	31.664
440.51	31.784
440.86	32.576
441.22	32.579
441.57	31.681
441.92	32.358
442.27	32.800
442.63	32.336
442.98	33.191
443.33	32.491
443.68	32.280
444.03	33.144
444.39	32.795
444.74	32.284
445.09	32.940
445.44	32.828
445.79	33.711
446.15	32.595
446.50	32.562
446.85	32.508
447.20	31.565
447.55	32.344
447.91	32.687
448.26	32.819
448.61	31.722
448.96	32.525
449.31	32.791
449.66	30.993
450.02	31.243
450.37	32.017
450.72	32.077
451.07	30.982
451.42	32.675
451.77	31.274
452.12	31.642
452.47	32.791
452.83	32.628
453.18	32.748
453.53	32.397
453.88	33.440
454.23	32.843
454.58	32.572
454.93	32.357
455.28	31.840
455.63	33.008
455.98	32.741
456.34	31.748
456.69	32.431
457.04	32.152
457.39	31.086
457.74	32.238
458.09	32.483
458.44	33.722
458.79	30.683
459.14	32.439
459.49	32.484
459.84	33.115
460.19	32.208
460.54	31.313
460.89	32.118
461.24	32.273
461.59	32.744
461.94	32.939
462.29	31.892
462.64	32.521
462.99	34.083
463.34	31.795
463.69	31.824
464.04	31.944
464.39	31.768
464.74	31.473
465.09	31.318
465.44	32.094
465.79	31.588
466.14	31.265
466.49	33.076
466.84	31.265
467.19	31.969
467.54	30.637
467.89	31.744
468.24	31.376
468.59	31.348
468.94	31.002
469.29	31.696
469.64	31.947
469.99	31.939
470.34	31.117
470.68	31.077
471.03	31.533
471.38	31.638
471.73	31.686
472.08	32.242
472.43	32.158
472.78	30.674
473.13	31.228
473.48	31.328
473.83	31.638
474.17	30.420
474.52	30.944
474.87	32.071
475.22	32.020
475.57	31.434
475.92	31.211
476.27	31.706
476.61	30.260
476.96	32.247
477.31	30.765
477.66	31.145
478.01	30.312
478.36	31.347
478.70	32.113
479.05	30.702
479.40	31.012
479.75	31.183
480.10	31.439
480.45	31.414
480.79	31.500
481.14	31.313
481.49	31.311
481.84	31.869
482.19	30.439
482.53	30.490
482.88	31.520
483.23	30.553
483.58	30.149
483.92	30.603
484.27	31.075
484.62	31.212
484.97	30.668
485.31	30.433
485.66	30.621
486.01	30.506
486.36	31.628
486.70	32.257
487.05	32.675
487.40	32.061
487.75	31.549
488.09	29.950
488.44	30.693
488.79	30.428
489.13	30.133
489.48	30.300
489.83	30.190
490.17	30.849
490.52	30.545
490.87	30.762
491.22	30.424
491.56	29.743
491.91	30.120
492.26	30.801
492.60	30.204
492.95	30.441
493.30	30.162
493.64	29.970
493.99	30.236
494.34	30.309
494.68	30.327
495.03	29.513
495.37	30.157
495.72	30.274
496.07	29.868
496.41	29.496
496.76	29.513
497.11	30.231
497.45	31.291
497.80	30.218
498.14	29.461
498.49	29.632
498.84	28.774
499.18	29.995
499.53	30.218
499.87	29.800
500.22	29.299
500.56	30.351
500.91	30.519
501.26	29.291
501.60	30.173
501.95	29.427
502.29	30.169
502.64	29.368
502.98	29.076
503.33	29.106
503.67	29.352
504.02	30.133
504.36	28.557
504.71	29.468
505.06	29.780
505.40	29.491
505.75	29.226
506.09	29.469
506.44	30.097
506.78	29.657
507.13	29.805
507.47	29.141
507.82	29.911
508.16	28.842
508.51	29.486
508.85	29.396
509.19	29.128
509.54	29.802
509.88	29.114
510.23	29.607
510.57	29.018
510.92	29.308
511.26	29.121
511.61	29.566
511.95	29.150
512.30	29.101
512.64	28.622
512.98	29.356
513.33	27.667
513.67	28.263
514.02	28.546
514.36	29.004
514.70	29.630
515.05	29.512
515.39	28.984
515.74	29.261
516.08	27.997
516.42	28.651
516.77	29.006
517.11	27.768
517.46	28.482
517.80	29.547
518.14	28.969
518.49	28.525
518.83	29.637
519.17	28.728
519.52	28.857
519.86	28.119
520.20	28.854
520.55	28.460
520.89	29.015
521.23	28.257
521.58	28.175
521.92	28.371
522.26	28.935
522.61	28.601
522.95	28.082
523.29	27.868
523.64	27.612
523.98	28.226
524.32	28.889
524.66	28.416
525.01	28.797
525.35	28.386
525.69	28.149
526.04	27.837
526.38	27.416
526.72	29.028
527.06	29.114
527.41	28.207
527.75	28.500
528.09	28.147
528.43	28.136
528.78	27.813
529.12	27.534
529.46	27.442
529.80	28.114
530.15	29.117
530.49	27.894
530.83	28.344
531.17	27.613
531.51	27.695
531.86	27.521
532.20	27.561
532.54	27.122
532.88	26.545
533.22	29.382
533.57	27.517
533.91	27.942
534.25	27.766
534.59	28.198
534.93	28.274
535.27	27.138
535.62	28.494
535.96	27.913
536.30	27.905
536.64	28.398
536.98	28.024
537.32	27.530
537.66	26.613
538.01	27.099
538.35	26.764
538.69	26.964
539.03	28.046
539.37	26.490
539.71	28.696
540.05	27.135
540.39	27.378
540.73	27.619
541.07	26.765
541.42	27.370
541.76	27.698
542.10	27.690
542.44	27.962
542.78	26.979
543.12	26.787
543.46	27.124
543.80	27.305
544.14	27.814
544.48	26.947
544.82	27.466
545.16	27.609
545.50	28.166
545.84	27.213
546.18	26.517
546.52	27.440
546.86	26.549
547.20	26.818
547.54	25.474
547.88	26.994
548.22	26.723
548.56	26.991
548.90	27.509
549.24	27.924
549.58	27.720
549.92	26.541
550.26	27.336
550.60	27.201
550.94	26.667
551.28	27.317
551.62	26.454
551.96	26.917
552.30	27.907
552.64	27.423
552.98	26.895
553.32	26.061
553.66	27.618
554.00	27.490
554.34	27.109
554.68	26.794
555.02	26.190
555.36	25.417
555.69	25.596
556.03	26.608
556.37	26.182
556.71	26.244
557.05	25.781
557.39	26.104
557.73	26.258
558.07	26.839
558.41	26.417
558.75	26.307
559.08	25.617
559.42	26.254
559.76	26.537
560.10	26.976
560.44	26.049
560.78	26.221
561.12	26.146
561.45	26.860
561.79	26.065
562.13	26.242
562.47	25.765
562.81	24.867
563.15	25.399
563.48	26.517
563.82	26.346
564.16	25.544
564.50	26.648
564.84	26.931
565.17	26.538
565.51	26.249
565.85	26.338
566.19	26.862
566.52	26.452
566.86	27.117
567.20	26.148
567.54	26.165
567.88	26.274
568.21	26.905
568.55	26.429
568.89	26.593
569.23	26.958
569.56	26.575
569.90	27.623
570.24	27.502
570.57	26.975
570.91	27.729
571.25	27.652
571.59	27.705
571.92	26.977
572.26	27.121
572.60	27.389
572.93	26.850
573.27	26.152
573.61	26.958
573.95	26.676
574.28	26.676
574.62	26.135
574.96	26.988
575.29	26.949
575.63	26.555
575.97	26.333
576.30	26.518
576.64	26.571
576.98	26.514
577.31	26.975
577.65	27.342
577.98	25.966
578.32	26.926
578.66	26.814
578.99	27.423
579.33	26.873
579.67	26.317
580.00	26.298
580.34	26.487
580.67	26.653
581.01	26.426
581.35	26.571
581.68	26.605
582.02	26.648
582.35	26.757
582.69	27.273
583.02	27.104
583.36	26.979
583.70	27.406
584.03	26.516
584.37	26.777
584.70	26.071
585.04	26.057
585.37	25.939
585.71	26.032
586.04	26.696
586.38	26.750
586.72	26.700
587.05	26.501
587.39	26.471
587.72	26.368
588.06	26.801
588.39	26.322
588.73	26.359
589.06	26.359
589.40	26.329
589.73	26.589
590.07	25.861
590.40	26.097
590.73	26.531
591.07	25.541
591.40	25.902
591.74	25.700
592.07	26.170
592.41	26.195
592.74	26.545
593.08	26.258
593.41	25.711
593.75	27.199
594.08	27.208
594.41	25.961
594.75	26.351
595.08	26.919
595.42	26.136
595.75	25.833
596.09	26.661
596.42	25.920
596.75	26.727
597.09	25.373
597.42	24.589
597.75	25.797
598.09	24.719
598.42	25.319
598.76	26.138
599.09	25.336
599.42	24.823
599.76	26.128
600.09	26.769
600.42	25.313
600.76	25.366
601.09	25.882
601.42	25.805
601.76	25.446
602.09	26.100
602.42	26.096
602.76	26.396
603.09	26.023
603.42	26.278
603.76	26.269
604.09	25.439
604.42	25.590
604.76	25.742
605.09	25.366
605.42	25.782
605.75	25.720
606.09	25.956
606.42	25.284
606.75	26.199
607.09	26.679
607.42	25.975
607.75	25.344
608.08	26.660
608.42	25.655
608.75	25.663
609.08	25.139
609.41	26.024
609.75	25.908
610.08	25.013
610.41	25.903
610.74	25.329
611.07	25.278
611.41	24.679
611.74	24.864
612.07	26.228
612.40	25.460
612.73	25.521
613.07	25.602
613.40	24.612
613.73	24.914
614.06	24.473
614.39	25.132
614.72	25.089
615.06	25.718
615.39	24.423
615.72	24.468
616.05	24.870
616.38	24.852
616.71	24.440
617.05	24.937
617.38	24.581
617.71	25.343
618.04	25.033
618.37	24.918
618.70	24.728
619.03	23.858
619.36	24.890
619.69	24.417
620.03	25.782
620.36	24.187
620.69	24.242
621.02	23.515
621.35	24.766
621.68	24.572
622.01	24.866
622.34	24.791
622.67	24.705
623.00	24.161
623.33	24.567
623.66	25.339
623.99	24.322
624.32	25.417
624.65	24.375
624.99	24.219
625.32	24.250
625.65	23.539
625.98	25.833
626.31	23.896
626.64	25.676
626.97	23.437
627.30	23.241
627.63	25.023
627.96	24.674
628.29	23.327
628.62	25.670
628.95	24.182
629.28	23.967
629.61	24.451
629.94	25.207
630.26	24.477
630.59	24.293
630.92	22.972
631.25	24.134
631.58	22.558
631.91	24.260
632.24	24.497
632.57	23.900
632.90	24.477
633.23	24.129
633.56	23.019
633.89	21.636
634.22	25.256
634.55	21.945
634.88	24.096
635.20	25.068
635.53	22.486
635.86	23.370
636.19	22.920
636.52	22.776
636.85	22.295
637.18	23.705
637.51	24.526
637.83	23.324
638.16	23.898
638.49	22.478
638.82	23.066
639.15	23.714
639.48	22.853
639.81	23.398
640.13	22.358
640.46	22.047
640.79	22.791
641.12	24.651
641.45	23.173
641.77	22.293
642.10	23.941
642.43	22.054
642.76	24.731
643.09	23.183
643.41	24.014
643.74	21.007
644.07	20.988
644.40	22.563
644.73	21.363
645.05	21.183
645.38	20.000
645.71	21.565
646.04	22.862
646.36	21.212
646.69	23.404
647.02	24.219
647.35	23.800
647.67	24.248
648.00	25.049
648.33	21.195
648.66	23.377
648.98	22.881
649.31	23.064
649.64	20.482
649.96	22.297
650.29	20.000
650.62	23.748
650.94	22.366
651.27	20.231
651.60	21.989
651.92	20.802
652.25	19.503
652.58	21.185
652.90	19.929
653.23	20.841
653.56	21.354
653.88	22.810
654.21	21.739
654.54	20.638
654.86	23.741
655.19	22.742
655.52	25.724
655.84	27.693
656.17	27.295
656.49	36.604
656.82	42.406
657.15	33.751
657.47	25.932
657.80	18.838
658.13	15.706
658.45	25.717
658.78	24.881
659.10	23.758
659.43	22.704
659.75	21.709
660.08	21.298
660.41	20.533
660.73	19.391
661.06	17.636
661.38	20.565
661.71	20.569
662.03	25.231
662.36	21.002
662.68	18.225
663.01	21.875
663.33	20.991
663.66	22.727
663.98	21.027
664.31	20.732
664.63	19.725
664.96	24.466
665.28	20.331
665.61	20.327
665.93	20.968
666.26	21.192
666.58	21.101
666.91	22.014
667.23	19.458
667.56	20.988
667.88	18.045
668.21	18.528
668.53	18.274
668.86	15.306
669.18	18.274
669.50	23.393
669.83	21.500
670.15	19.000
670.48	18.797
670.80	19.036
671.13	18.072
671.45	21.173
671.77	19.807
672.10	20.000
672.42	20.916
672.75	20.000
673.07	21.869
673.39	22.763
673.72	21.074
674.04	23.404
674.37	21.709
674.69	21.963
675.01	21.860
675.34	19.608
675.66	21.905
675.98	19.949
676.31	20.907
676.63	16.753
676.95	18.465
677.28	20.297
677.60	22.306
677.92	21.554
678.25	17.865
678.57	22.738
678.89	18.349
679.22	19.266
679.54	20.713
679.86	22.698
680.18	19.247
680.51	20.739
680.83	17.500
681.15	22.440
681.48	18.085
681.80	18.478
682.12	22.270
682.44	19.612
682.77	20.227
683.09	24.020
683.41	17.544
683.73	20.854
684.06	19.289
684.38	19.904
684.70	21.940
685.02	23.593
685.34	15.900
685.67	23.320
685.99	20.160
686.31	23.881
686.63	19.223
686.96	18.699
687.28	22.587
687.60	23.614
687.92	20.253
688.24	22.316
688.56	20.000
688.89	19.178
689.21	18.605
689.53	22.251
689.85	22.278
690.17	18.382
690.49	21.412
690.82	20.393
691.14	21.932
691.46	20.500
691.78	21.292
692.10	22.477
692.42	19.725
692.74	20.142
693.06	22.169
693.39	19.458
693.71	20.233
694.03	18.841
694.35	17.822
694.67	20.356
694.99	21.294
695.31	20.680
695.63	21.081
695.95	19.944
696.27	19.830
696.59	16.914
696.91	18.234
697.23	19.484
697.56	17.617
697.88	17.799
698.20	19.855
698.52	19.952
698.84	19.549
699.16	18.734
699.48	19.372
699.80	17.857
700.12	19.559
700.44	15.044
700.76	15.457
701.08	17.143
701.40	18.092
701.72	20.667
702.04	20.068
702.36	19.672
702.68	21.141
703.00	19.243
703.32	17.066
703.64	18.612
703.96	16.139
704.28	16.197
704.60	18.493
704.91	18.421
705.23	17.895
705.55	14.870
705.87	15.827
706.19	18.327
706.51	19.141
706.83	15.385
707.15	17.288
707.47	19.760
707.79	21.203
708.11	19.312
708.43	22.133
708.74	19.672
709.06	16.564
709.38	16.914
709.70	15.909
710.02	18.531
710.34	13.121
710.66	17.978
710.98	20.280
711.29	18.900
711.61	16.312
711.93	20.225
712.25	17.358
712.57	19.922
712.89	20.000
713.20	13.710
713.52	15.854
713.84	16.423
714.16	21.959
714.48	17.065
714.80	19.529
715.11	22.680
715.43	15.017
715.75	18.596
716.07	17.455
716.39	18.430
716.70	20.000
717.02	20.161
717.34	18.182
717.66	14.545
717.97	10.648
718.29	20.000
718.61	14.414
718.93	18.908
719.24	17.573
719.56	15.179
719.88	18.039
720.20	14.530
720.51	11.404
720.83	15.063
721.15	12.653
721.46	17.300
721.78	17.316
722.10	20.930
722.42	23.043
722.73	14.480
723.05	17.512
723.37	14.480
723.68	20.379
724.00	19.907
724.32	20.093
724.63	19.910
724.95	18.721
725.27	21.127
725.58	15.982
725.90	9.459
726.22	17.904
726.53	17.213
726.85	20.370
727.16	18.219
727.48	15.323
727.80	12.329
728.11	17.778
728.43	17.284
728.74	15.351
729.06	18.777
729.38	18.992
729.69	15.600
730.01	16.736
730.32	18.725
730.64	22.308
730.96	20.463
731.27	18.147
731.59	17.845
731.90	17.763
732.22	19.934
732.53	16.140
732.85	16.197
733.16	23.810
733.48	18.657
733.80	23.273
734.11	17.376
734.43	20.939
734.74	22.430
735.06	23.794
735.37	18.211
735.69	14.085
736.00	19.259
736.32	16.783
736.63	19.259
736.95	12.062
737.26	21.739
737.58	19.708
737.89	19.245
738.21	20.229
738.52	26.639
738.83	14.530
739.15	11.818
739.46	9.910
739.78	17.761
740.09	16.270
740.41	20.076
740.72	17.131
741.04	19.368
741.35	21.525
741.66	17.204
741.98	15.816
742.29	15.544
742.61	9.827
742.92	16.667
743.23	17.910
743.55	14.508
743.86	18.841
744.18	17.500
744.49	15.000
744.80	14.516
745.12	16.923
745.43	13.904
745.74	12.834
746.06	14.368
746.37	16.111
746.68	14.595
747.00	4.972
747.31	19.895
747.62	18.421
747.94	18.868
748.25	19.212
748.56	19.192
748.88	15.301
749.19	17.098
749.50	21.765
749.82	25.500
750.13	23.301
750.44	14.163
750.75	22.400
751.07	12.971
751.38	14.062
751.69	21.429
752.01	15.126
752.32	19.008
752.63	12.227
752.94	20.400
753.26	15.525
753.57	16.588
753.88	15.349
754.19	16.300
754.51	17.155
754.82	18.333
755.13	16.814
755.44	13.853
755.75	19.277
756.07	14.592
756.38	19.247
756.69	21.132
757.00	19.504
757.31	20.069
757.63	21.242
757.94	19.091
758.25	23.810
758.56	20.811
758.87	20.238
759.18	23.676
759.50	21.352
759.81	19.305
760.12	17.794
760.43	20.598
760.74	21.856
761.05	21.154
761.36	22.552
761.67	20.365
761.99	18.395
762.30	18.545
762.61	20.325
762.92	19.556
763.23	15.349
763.54	19.797
763.85	23.077
764.16	13.913
764.47	16.957
764.78	18.548
765.10	19.291
765.41	20.736
765.72	21.405
766.03	20.067
766.34	15.152
766.65	17.969
766.96	16.000
767.27	17.318
767.58	16.352
767.89	20.779
768.20	10.811
768.51	12.069
768.82	7.500
769.13	25.000
769.44	16.981
769.75	14.706
770.06	14.563
770.37	14.362
770.68	13.846
770.99	16.751
771.30	17.526
771.61	13.004
771.92	21.698
772.23	16.346
772.54	13.529
772.85	17.808
773.16	10.323
773.47	14.650
773.78	12.575
774.09	14.474
774.39	8.824
774.70	21.053
775.01	15.385
775.32	7.937
775.63	9.449
775.94	2.830
776.25	14.074
776.56	7.273
776.87	9.402
777.18	5.000
777.48	0.000
777.79	11.111
778.10	2.830
778.41	11.765
778.72	4.717
779.03	7.895
779.34	7.563
779.65	15.493
779.95	8.633
780.26	7.258
780.57	6.522
780.88	-1.835
781.19	5.556
781.50	3.279
781.80	14.599
782.11	16.667
782.42	10.345
782.73	21.678
783.04	9.600
783.34	12.000
783.65	7.317
783.96	1.639
784.27	9.244
784.57	14.019
784.88	5.357
785.19	13.402
785.50	7.368
785.81	2.000
786.11	9.901
786.42	-11.765
786.73	11.458
787.04	3.061
787.34	13.889
787.65	21.698
787.96	1.031
788.26	14.851
788.57	14.783
788.88	8.257
789.19	9.917
789.49	14.783
789.80	17.241
790.11	-8.537
790.41	15.730
790.72	-10.465
791.03	1.163
791.33	-7.792
791.64	3.659
791.95	8.537
792.25	-15.663
792.56	-4.938
792.87	-14.085
793.17	0.000
793.48	15.294
793.79	1.250
794.09	3.333
794.40	6.522
794.70	7.826
795.01	11.927
795.32	12.598
795.62	0.980
795.93	9.804
796.23	3.030
796.54	9.302
796.85	-2.899
797.15	-6.250
797.46	1.695
797.76	9.836
798.07	-11.842
798.37	-8.065
798.68	-6.250
798.99	13.846
799.29	9.091
799.60	-14.493
799.90	1.429
800.21	-5.263
800.51	1.724
800.82	-15.094
801.12	-17.647
801.43	-3.226
801.73	11.290
802.04	-4.000
802.34	-13.208
802.65	-34.211
802.95	-12.727
803.26	-15.094
803.56	-3.279
803.87	-24.000
804.17	-20.370
804.48	11.538
804.78	-18.367
805.09	6.383
805.39	6.780
805.70	-18.750
806.00	-21.429
806.30	-25.424
806.61	-7.692
806.91	-20.000
807.22	3.947
807.52	10.000
807.83	-18.966
808.13	11.392
808.43	1.639
808.74	8.197
809.04	2.703
809.35	-3.704
809.65	1.786
809.95	8.475
810.26	-36.735
810.56	7.547
810.86	-5.882
811.17	-35.135
811.47	-51.852
811.77	-1.961
812.08	-15.909
812.38	-45.833
812.69	-38.462
812.99	-33.333
813.29	6.522
813.59	-5.714
813.90	-16.667
814.20	-16.364
814.50	-14.286
814.81	-21.569
815.11	-20.833
815.41	-17.073
815.72	-46.154
816.02	-19.149
816.32	-6.250
816.62	-42.424
816.93	-54.545
817.23	-24.324
817.53	-32.353
817.84	2.500
818.14	-47.059
818.44	-9.375
818.74	-114.286
819.04	-20.000
819.35	-17.143
819.65	-2.273
819.95	-2.564
820.25	-55.556
820.56	-48.276
820.86	-32.143
821.16	-82.609
821.46	-23.810
821.76	-20.370
822.07	-17.391
822.37	-14.286
822.67	-11.628
822.97	-60.870
823.27	-34.615
823.57	-66.667
823.88	-46.429
824.18	-30.769
824.48	-28.571
824.78	-18.182
825.08	-113.333
825.38	0.000
825.69	-100.000
825.99	-40.741
826.29	6.667
826.59	-70.370
826.89	-33.333
827.19	-67.857
827.49	-95.455
827.79	-122.727
828.09	-36.364
828.39	-82.609
828.70	-44.444
829.00	-39.286
829.30	-9.524
829.60	-16.129
829.90	-46.154
830.20	0.000
830.50	-72.727
830.80	-52.381
831.10	-50.000
831.40	-135.714
831.70	-70.370
832.00	-82.353
832.30	-4.348
832.60	-54.167
832.90	-100.000
833.20	-61.111
833.50	-12.500
833.80	-23.077
834.10	24.000
834.40	-33.333
834.70	-59.091
835.00	-23.077
835.30	-75.000
835.60	-240.000
835.90	-40.000
836.20	-164.286
836.50	-34.783
836.80	-55.556
837.10	-73.333
837.40	-190.000
837.70	-73.913
838.00	-78.571
838.30	2300.000
838.60	-20.000
838.90	-320.000
839.19	-144.444
839.49	-1050.000
839.79	-17.647
840.09	-188.889
840.39	-42.857
840.69	-161.111
840.99	-158.333
841.29	-44.828
841.59	-60.000
841.88	-36.364
842.18	-383.333
842.48	-25.000
842.78	-53.846
843.08	-58.824
843.38	-80.000
843.68	-138.462
843.97	-58.824
844.27	-180.000
844.57	-25.000
844.87	-136.364
845.17	-89.474
845.47	-33.333
845.76	-16.667
846.06	-61.905
846.36	-85.714
846.66	-233.333
846.96	-100.000
847.25	-260.000
847.55	-200.000
847.85	-120.000
848.15	-475.000
848.44	-63.158
848.74	-86.667
849.04	-57.895
849.34	-400.000
849.63	-300.000
849.93	-41.176
850.23	-209.091
850.53	-266.667
850.82	-260.000
851.12	-211.111
851.42	-228.571
851.71	-400.000
852.01	-100.000
852.31	-533.333
852.61	-161.538
852.90	-460.000
853.20	-133.333
853.50	-188.889
853.79	-140.000
854.09	-95.000
854.39	-89.474
854.68	-65.000
854.98	-575.000
855.28	-61.111
855.57	-164.286
855.87	-52.632
856.17	-68.750
856.46	-30.769
856.76	-100.000
857.05	-37.500
857.35	-25.000
857.65	-66.667
857.94	-12.500
858.24	-43.478
858.53	-140.000
858.83	-500.000
859.13	-200.000
859.42	-230.000
859.72	133.333
860.01	-61.538
860.31	-250.000
860.60	-275.000
860.90	-375.000
861.20	-366.667
861.49	-350.000
861.79	950.000
862.08	0.000
862.38	-68.421
862.67	-46.154
862.97	-140.000
863.26	-75.000
863.56	-73.913
863.85	-316.667
864.15	-128.571
864.44	-37.500
864.74	-183.333
865.03	-100.000
865.33	-600.000
865.62	-1900.000
865.92	-1200.000
866.21	-350.000
866.51	-127.273
866.80	-466.667
867.10	-185.714
867.39	-244.444
867.69	-175.000
867.98	480.000
868.27	-600.000
868.57	500.000
868.86	-113.333
869.16	-46.154
869.45	1100.000
869.75	-350.000
870.04	-225.000
870.33	-70.588
870.63	-200.000
870.92	-4.348
871.22	-237.500
871.51	740.000
871.80	-100.000
872.10	-733.333
>>>>>End Processed Spectral Data<<<<<
