SpectraSuite Data File
++++++++++++++++++++++++++++++++++++
Date: Tue May 12 19:48:20 PDT 2015
User: schluterlab
Dark Spectrum Present: Yes
Reference Spectrum Present: Yes
Number of Sampled Component Spectra: 1
Spectrometers: USB2E3373
Integration Time (usec): 3000 (USB2E3373)
Spectra Averaged: 3 (USB2E3373)
Boxcar Smoothing: 0 (USB2E3373)
Correct for Electrical Dark: No (USB2E3373)
Strobe/Lamp Enabled: No (USB2E3373)
Correct for Detector Non-linearity: No (USB2E3373)
Correct for Stray Light: No (USB2E3373)
Number of Pixels in Processed Spectrum: 2048
>>>>>Begin Processed Spectral Data<<<<<
178.53	0.000
178.91	-130.000
179.29	-216.667
179.67	433.333
180.04	0.000
180.42	-200.000
180.80	-633.333
181.18	1350.000
181.56	-350.000
181.94	383.333
182.31	1900.000
182.69	-142.857
183.07	0.000
183.45	208.333
183.83	380.000
184.20	350.000
184.58	1450.000
184.96	366.667
185.34	-500.000
185.72	-92.857
186.09	-283.333
186.47	-2000.000
186.85	-160.000
187.23	133.333
187.61	-157.143
187.98	-360.000
188.36	750.000
188.74	-275.000
189.12	-77.778
189.49	-70.000
189.87	400.000
190.25	300.000
190.63	333.333
191.00	420.000
191.38	-466.667
191.76	400.000
192.14	-200.000
192.51	-90.000
192.89	-140.000
193.27	-240.000
193.65	-366.667
194.02	-216.667
194.40	1100.000
194.78	-125.000
195.15	-185.714
195.53	466.667
195.91	420.000
196.29	-500.000
196.66	-466.667
197.04	-257.143
197.42	200.000
197.79	-225.000
198.17	-83.333
198.55	0.000
198.92	-188.889
199.30	400.000
199.68	-400.000
200.05	-300.000
200.43	-83.333
200.81	-158.333
201.18	233.333
201.56	-850.000
201.94	-1200.000
202.31	-33.333
202.69	-22.222
203.07	-83.333
203.44	-425.000
203.82	0.000
204.19	300.000
204.57	-533.333
204.95	100.000
205.32	360.000
205.70	175.000
206.08	-700.000
206.45	-200.000
206.83	1700.000
207.20	-188.889
207.58	-53.846
207.96	600.000
208.33	666.667
208.71	433.333
209.08	750.000
209.46	-111.111
209.84	666.667
210.21	-733.333
210.59	700.000
210.96	222.222
211.34	-275.000
211.71	500.000
212.09	40.000
212.46	-62.500
212.84	-250.000
213.22	157.143
213.59	-87.500
213.97	0.000
214.34	-550.000
214.72	-1500.000
215.09	600.000
215.47	-73.333
215.84	-75.000
216.22	-1000.000
216.59	1700.000
216.97	-116.667
217.34	-200.000
217.72	22.222
218.09	525.000
218.47	-26.316
218.84	-175.000
219.22	7.143
219.59	-50.000
219.97	-150.000
220.34	333.333
220.72	18.182
221.09	-1350.000
221.47	0.000
221.84	1050.000
222.22	-275.000
222.59	-325.000
222.97	-30.435
223.34	186.667
223.72	357.143
224.09	-183.333
224.46	169.231
224.84	33.333
225.21	-350.000
225.59	-175.000
225.96	20.000
226.34	383.333
226.71	140.000
227.08	-153.846
227.46	-114.286
227.83	-33.333
228.21	-550.000
228.58	350.000
228.95	-15.789
229.33	-75.000
229.70	-200.000
230.08	-144.444
230.45	-400.000
230.82	-1600.000
231.20	-19.048
231.57	-440.000
231.95	-833.333
232.32	211.111
232.69	-1050.000
233.07	-6.250
233.44	-112.500
233.81	29.032
234.19	-200.000
234.56	-77.778
234.93	-100.000
235.31	3.704
235.68	14.815
236.05	-30.769
236.43	-47.368
236.80	-54.545
237.17	-157.143
237.55	-85.000
237.92	-13.953
238.29	-6.452
238.67	-14.286
239.04	17.143
239.41	13.725
239.79	12.000
240.16	-10.000
240.53	-15.517
240.91	6.849
241.28	-11.268
241.65	0.000
242.02	3.509
242.40	10.667
242.77	16.842
243.14	11.765
243.51	11.828
243.89	7.619
244.26	18.519
244.63	5.102
245.00	8.929
245.38	-0.840
245.75	13.559
246.12	16.406
246.49	10.400
246.87	17.213
247.24	11.972
247.61	16.556
247.98	16.292
248.36	6.289
248.73	16.477
249.10	13.333
249.47	12.500
249.84	10.152
250.22	9.896
250.59	14.045
250.96	18.636
251.33	18.396
251.70	18.807
252.08	19.048
252.45	15.510
252.82	16.456
253.19	18.288
253.56	19.608
253.94	17.480
254.31	21.942
254.68	21.181
255.05	22.517
255.42	17.818
255.79	24.503
256.16	15.972
256.54	21.212
256.91	21.795
257.28	18.182
257.65	12.787
258.02	20.120
258.39	19.637
258.76	20.183
259.14	16.765
259.51	24.225
259.88	21.902
260.25	17.614
260.62	18.539
260.99	18.942
261.36	20.977
261.73	25.067
262.10	22.616
262.47	19.835
262.85	22.622
263.22	19.624
263.59	22.520
263.96	19.060
264.33	18.329
264.70	22.850
265.07	20.443
265.44	22.951
265.81	22.169
266.18	22.248
266.55	20.476
266.92	21.652
267.29	20.444
267.66	19.318
268.03	21.505
268.40	21.053
268.77	20.713
269.14	19.538
269.51	21.719
269.88	19.658
270.25	21.519
270.62	24.370
270.99	20.421
271.36	19.647
271.73	22.500
272.10	20.332
272.47	19.600
272.84	20.382
273.21	17.537
273.58	19.592
273.95	19.522
274.32	21.277
274.69	23.092
275.06	22.326
275.43	21.400
275.80	21.606
276.17	20.949
276.54	23.384
276.91	21.881
277.28	23.985
277.65	20.605
278.02	21.023
278.39	23.412
278.76	21.974
279.13	22.004
279.50	20.939
279.87	20.000
280.23	19.672
280.60	19.611
280.97	22.496
281.34	20.339
281.71	20.604
282.08	20.751
282.45	20.282
282.82	21.044
283.19	19.360
283.56	22.526
283.92	21.485
284.29	23.350
284.66	19.646
285.03	18.868
285.40	21.667
285.77	21.346
286.14	20.285
286.51	20.579
286.87	20.583
287.24	20.673
287.61	20.679
287.98	22.066
288.35	21.705
288.72	22.630
289.08	19.340
289.45	20.125
289.82	20.652
290.19	18.636
290.56	19.392
290.93	20.236
291.29	20.284
291.66	19.803
292.03	19.369
292.40	19.856
292.77	19.534
293.13	18.502
293.50	17.493
293.87	19.695
294.24	19.382
294.60	20.082
294.97	17.036
295.34	19.863
295.71	17.198
296.08	19.809
296.44	20.553
296.81	17.335
297.18	20.699
297.55	18.467
297.91	18.782
298.28	16.496
298.65	16.559
299.02	18.002
299.38	17.730
299.75	18.275
300.12	17.866
300.48	17.840
300.85	15.770
301.22	18.870
301.59	15.937
301.95	17.317
302.32	16.768
302.69	15.696
303.05	17.001
303.42	16.304
303.79	16.404
304.15	18.686
304.52	16.648
304.89	17.024
305.25	17.431
305.62	16.705
305.99	17.021
306.35	16.667
306.72	17.429
307.09	16.104
307.45	16.397
307.82	17.182
308.19	16.942
308.55	17.300
308.92	18.114
309.29	17.259
309.65	17.234
310.02	16.981
310.38	16.418
310.75	16.598
311.12	17.803
311.48	18.088
311.85	16.109
312.22	18.698
312.58	17.221
312.95	17.146
313.31	18.977
313.68	17.875
314.05	18.967
314.41	18.075
314.78	16.884
315.14	19.785
315.51	19.067
315.87	19.531
316.24	19.585
316.61	20.485
316.97	20.588
317.34	21.531
317.70	20.355
318.07	20.733
318.43	21.645
318.80	21.403
319.16	21.156
319.53	23.113
319.89	21.780
320.26	24.287
320.62	24.419
320.99	25.918
321.35	26.186
321.72	26.970
322.08	25.743
322.45	28.205
322.81	27.586
323.18	28.667
323.54	28.057
323.91	29.412
324.27	28.351
324.64	29.053
325.00	29.663
325.37	30.845
325.73	30.292
326.10	31.874
326.46	32.820
326.83	33.597
327.19	35.109
327.56	36.516
327.92	35.069
328.29	36.470
328.65	38.041
329.01	37.064
329.38	37.557
329.74	38.626
330.11	37.558
330.47	38.175
330.84	38.440
331.20	39.094
331.56	40.189
331.93	40.439
332.29	39.500
332.66	42.224
333.02	42.433
333.38	42.647
333.75	39.890
334.11	41.591
334.48	40.161
334.84	40.845
335.20	41.003
335.57	43.324
335.93	41.302
336.29	42.505
336.66	42.350
337.02	42.430
337.38	44.151
337.75	42.182
338.11	45.123
338.47	43.640
338.84	43.370
339.20	44.088
339.56	44.082
339.93	44.144
340.29	43.880
340.65	45.388
341.02	44.198
341.38	44.925
341.74	44.217
342.11	44.562
342.47	43.881
342.83	45.013
343.20	47.038
343.56	45.367
343.92	44.969
344.28	44.254
344.65	45.976
345.01	46.254
345.37	46.581
345.73	46.512
346.10	47.018
346.46	46.506
346.82	47.664
347.19	46.426
347.55	47.534
347.91	46.929
348.27	47.094
348.63	47.710
349.00	47.913
349.36	47.650
349.72	48.933
350.08	47.218
350.45	48.657
350.81	48.307
351.17	49.259
351.53	48.068
351.89	51.295
352.26	48.049
352.62	50.123
352.98	49.874
353.34	49.958
353.70	48.971
354.07	49.506
354.43	50.000
354.79	50.656
355.15	50.282
355.51	50.367
355.87	52.706
356.24	52.941
356.60	51.836
356.96	50.711
357.32	52.428
357.68	51.870
358.04	53.809
358.40	52.291
358.77	52.289
359.13	53.333
359.49	51.520
359.85	54.117
360.21	54.401
360.57	54.625
360.93	54.394
361.29	53.037
361.66	53.549
362.02	56.593
362.38	56.333
362.74	56.418
363.10	55.279
363.46	54.477
363.82	55.972
364.18	56.321
364.54	56.641
364.90	57.407
365.26	56.259
365.62	57.532
365.98	58.696
366.35	58.699
366.71	57.506
367.07	58.303
367.43	56.390
367.79	58.430
368.15	58.488
368.51	59.026
368.87	59.838
369.23	59.198
369.59	58.529
369.95	59.985
370.31	61.364
370.67	60.977
371.03	60.604
371.39	60.876
371.75	58.692
372.11	60.148
372.47	60.653
372.83	63.185
373.19	61.973
373.55	62.500
373.91	61.439
374.27	63.503
374.63	61.561
374.99	63.543
375.35	62.627
375.71	62.410
376.07	62.756
376.42	64.039
376.78	63.902
377.14	63.408
377.50	62.996
377.86	64.554
378.22	63.540
378.58	65.263
378.94	64.309
379.30	64.028
379.66	65.429
380.02	64.908
380.38	65.776
380.74	64.823
381.09	65.502
381.45	65.968
381.81	65.753
382.17	65.863
382.53	67.916
382.89	66.132
383.25	65.758
383.61	67.769
383.97	66.862
384.32	66.129
384.68	66.411
385.04	66.836
385.40	65.879
385.76	65.971
386.12	66.601
386.48	66.928
386.83	67.676
387.19	66.922
387.55	66.839
387.91	67.539
388.27	67.946
388.62	68.070
388.98	69.211
389.34	67.014
389.70	69.808
390.06	68.779
390.42	69.101
390.77	68.612
391.13	68.380
391.49	69.744
391.85	68.929
392.20	69.505
392.56	68.500
392.92	70.006
393.28	68.821
393.64	69.474
393.99	68.701
394.35	69.890
394.71	69.934
395.07	68.966
395.42	69.460
395.78	68.884
396.14	69.221
396.50	67.788
396.85	66.755
397.21	69.211
397.57	69.717
397.92	69.529
398.28	71.103
398.64	68.952
399.00	68.253
399.35	69.988
399.71	70.000
400.07	67.881
400.42	68.910
400.78	69.674
401.14	68.056
401.49	68.457
401.85	70.032
402.21	69.416
402.57	68.191
402.92	69.256
403.28	68.531
403.63	66.923
403.99	67.107
404.35	67.898
404.70	68.778
405.06	69.498
405.42	68.380
405.77	67.479
406.13	67.682
406.49	68.770
406.84	67.995
407.20	67.286
407.55	69.272
407.91	68.951
408.27	69.415
408.62	67.010
408.98	68.211
409.34	67.093
409.69	66.154
410.05	67.552
410.40	65.960
410.76	67.123
411.11	67.679
411.47	67.959
411.83	66.452
412.18	67.343
412.54	66.947
412.89	67.422
413.25	68.589
413.60	68.495
413.96	66.214
414.31	65.456
414.67	68.265
415.03	67.566
415.38	67.549
415.74	67.092
416.09	66.919
416.45	67.374
416.80	66.968
417.16	66.714
417.51	68.633
417.87	68.536
418.22	66.845
418.58	67.726
418.93	66.344
419.29	67.096
419.64	69.643
420.00	65.815
420.35	67.043
420.71	67.029
421.06	67.813
421.42	66.499
421.77	66.991
422.12	65.800
422.48	66.476
422.83	66.565
423.19	66.824
423.54	67.013
423.90	67.058
424.25	67.674
424.61	67.677
424.96	65.295
425.31	67.089
425.67	67.879
426.02	66.646
426.38	66.023
426.73	65.607
427.09	65.857
427.44	65.926
427.79	66.646
428.15	65.187
428.50	67.023
428.85	66.004
429.21	68.081
429.56	66.243
429.92	65.116
430.27	64.907
430.62	66.144
430.98	64.428
431.33	66.129
431.68	65.864
432.04	67.261
432.39	64.468
432.74	64.832
433.10	65.979
433.45	66.181
433.80	66.190
434.16	64.442
434.51	65.385
434.86	66.344
435.22	64.726
435.57	67.480
435.92	63.963
436.28	65.068
436.63	65.891
436.98	66.481
437.34	67.370
437.69	65.185
438.04	66.887
438.39	67.102
438.75	64.738
439.10	65.714
439.45	66.816
439.81	65.016
440.16	65.925
440.51	64.622
440.86	65.530
441.22	65.456
441.57	65.470
441.92	65.986
442.27	65.600
442.63	65.858
442.98	66.137
443.33	65.100
443.68	64.282
444.03	63.969
444.39	65.018
444.74	65.770
445.09	66.352
445.44	64.431
445.79	66.505
446.15	66.006
446.50	64.951
446.85	65.457
447.20	64.606
447.55	64.282
447.91	66.079
448.26	65.638
448.61	65.740
448.96	65.169
449.31	64.497
449.66	63.741
450.02	65.740
450.37	64.277
450.72	64.512
451.07	65.524
451.42	65.152
451.77	63.997
452.12	64.599
452.47	65.176
452.83	63.948
453.18	64.416
453.53	64.925
453.88	64.454
454.23	64.537
454.58	65.666
454.93	64.305
455.28	62.933
455.63	64.652
455.98	64.530
456.34	63.563
456.69	64.387
457.04	62.927
457.39	63.233
457.74	63.906
458.09	62.539
458.44	62.477
458.79	62.780
459.14	62.731
459.49	62.739
459.84	63.199
460.19	63.852
460.54	62.184
460.89	62.000
461.24	63.506
461.59	63.596
461.94	63.577
462.29	61.529
462.64	62.604
462.99	63.452
463.34	63.004
463.69	62.140
464.04	61.963
464.39	62.122
464.74	60.675
465.09	62.765
465.44	60.648
465.79	60.830
466.14	61.635
466.49	60.619
466.84	61.241
467.19	60.689
467.54	60.013
467.89	60.287
468.24	59.659
468.59	59.555
468.94	60.995
469.29	60.000
469.64	60.977
469.99	60.923
470.34	60.679
470.68	60.846
471.03	60.365
471.38	60.808
471.73	60.683
472.08	61.495
472.43	60.235
472.78	60.334
473.13	59.930
473.48	60.927
473.83	59.577
474.17	58.839
474.52	59.344
474.87	60.164
475.22	58.196
475.57	59.224
475.92	58.329
476.27	59.433
476.61	58.452
476.96	59.632
477.31	58.904
477.66	58.338
478.01	56.563
478.36	58.395
478.70	58.761
479.05	58.677
479.40	58.098
479.75	58.833
480.10	57.738
480.45	58.743
480.79	58.537
481.14	57.617
481.49	58.098
481.84	58.333
482.19	57.854
482.53	56.912
482.88	57.143
483.23	57.688
483.58	56.386
483.92	55.829
484.27	57.599
484.62	56.483
484.97	56.019
485.31	54.834
485.66	53.521
486.01	52.820
486.36	52.794
486.70	54.733
487.05	54.723
487.40	53.339
487.75	53.307
488.09	52.256
488.44	52.511
488.79	53.287
489.13	53.658
489.48	53.799
489.83	54.600
490.17	54.805
490.52	54.493
490.87	54.995
491.22	54.882
491.56	53.804
491.91	54.418
492.26	54.972
492.60	54.490
492.95	54.415
493.30	54.940
493.64	53.600
493.99	54.415
494.34	54.536
494.68	53.617
495.03	53.144
495.37	53.218
495.72	54.378
496.07	52.738
496.41	53.063
496.76	52.865
497.11	53.225
497.45	53.039
497.80	54.102
498.14	53.485
498.49	52.109
498.84	51.834
499.18	51.998
499.53	53.634
499.87	52.330
500.22	52.883
500.56	53.898
500.91	52.753
501.26	52.336
501.60	51.835
501.95	51.842
502.29	52.899
502.64	51.220
502.98	50.681
503.33	50.824
503.67	51.812
504.02	51.277
504.36	51.721
504.71	51.170
505.06	51.152
505.40	50.938
505.75	51.553
506.09	51.354
506.44	51.824
506.78	51.285
507.13	50.380
507.47	51.136
507.82	51.563
508.16	50.557
508.51	52.133
508.85	51.319
509.19	50.741
509.54	51.785
509.88	50.173
510.23	51.292
510.57	51.051
510.92	50.794
511.26	50.316
511.61	51.313
511.95	50.318
512.30	50.667
512.64	50.205
512.98	50.207
513.33	49.648
513.67	50.299
514.02	50.481
514.36	50.712
514.70	50.759
515.05	50.183
515.39	50.188
515.74	51.316
516.08	51.099
516.42	51.274
516.77	50.000
517.11	50.520
517.46	50.906
517.80	50.798
518.14	50.727
518.49	51.294
518.83	50.324
519.17	50.321
519.52	50.156
519.86	51.172
520.20	49.299
520.55	50.457
520.89	50.000
521.23	50.367
521.58	50.595
521.92	49.466
522.26	51.203
522.61	49.625
522.95	50.548
523.29	49.865
523.64	48.779
523.98	50.202
524.32	49.899
524.66	49.762
525.01	50.309
525.35	49.726
525.69	48.383
526.04	50.106
526.38	49.486
526.72	49.583
527.06	49.297
527.41	49.398
527.75	49.318
528.09	47.808
528.43	48.831
528.78	48.218
529.12	47.877
529.46	46.844
529.80	48.536
530.15	49.618
530.49	48.605
530.83	48.518
531.17	47.669
531.51	48.180
531.86	48.739
532.20	46.681
532.54	48.417
532.88	47.418
533.22	47.557
533.57	46.759
533.91	47.281
534.25	47.115
534.59	48.006
534.93	47.011
535.27	46.263
535.62	46.590
535.96	47.104
536.30	46.486
536.64	46.209
536.98	45.059
537.32	46.949
537.66	45.528
538.01	46.539
538.35	45.091
538.69	45.506
539.03	46.071
539.37	45.441
539.71	45.942
540.05	46.020
540.39	45.461
540.73	46.081
541.07	45.368
541.42	43.977
541.76	44.820
542.10	44.692
542.44	45.087
542.78	44.135
543.12	43.177
543.46	43.741
543.80	44.246
544.14	44.875
544.48	44.842
544.82	43.435
545.16	45.580
545.50	45.051
545.84	44.550
546.18	44.944
546.52	44.658
546.86	44.836
547.20	43.409
547.54	43.745
547.88	42.023
548.22	43.671
548.56	43.622
548.90	43.930
549.24	45.249
549.58	43.368
549.92	44.286
550.26	43.475
550.60	43.537
550.94	42.381
551.28	44.878
551.62	44.390
551.96	43.690
552.30	42.558
552.64	42.900
552.98	42.273
553.32	42.197
553.66	42.868
554.00	44.015
554.34	42.500
554.68	43.541
555.02	41.905
555.36	41.859
555.69	41.891
556.03	40.650
556.37	41.185
556.71	41.176
557.05	40.312
557.39	41.928
557.73	43.160
558.07	42.723
558.41	40.702
558.75	42.324
559.08	43.064
559.42	41.472
559.76	41.870
560.10	42.217
560.44	40.855
560.78	42.149
561.12	41.623
561.45	40.625
561.79	39.868
562.13	40.919
562.47	41.208
562.81	42.077
563.15	39.087
563.48	38.876
563.82	40.539
564.16	40.276
564.50	39.685
564.84	40.255
565.17	41.202
565.51	41.027
565.85	40.563
566.19	39.527
566.52	41.004
566.86	40.710
567.20	40.386
567.54	39.375
567.88	39.381
568.21	39.508
568.55	38.314
568.89	38.846
569.23	37.851
569.56	38.805
569.90	37.473
570.24	37.116
570.57	36.757
570.91	38.100
571.25	36.983
571.59	36.820
571.92	35.907
572.26	35.915
572.60	35.728
572.93	35.691
573.27	35.626
573.61	35.407
573.95	34.993
574.28	35.366
574.62	35.237
574.96	34.889
575.29	34.899
575.63	35.255
575.97	34.043
576.30	34.789
576.64	34.895
576.98	34.276
577.31	34.315
577.65	35.394
577.98	34.519
578.32	34.284
578.66	34.179
578.99	35.221
579.33	34.492
579.67	34.481
580.00	33.385
580.34	33.477
580.67	33.723
581.01	33.773
581.35	34.022
581.68	33.704
582.02	34.053
582.35	34.165
582.69	34.684
583.02	34.074
583.36	33.318
583.70	33.944
584.03	33.612
584.37	34.513
584.70	33.418
585.04	32.624
585.37	33.197
585.71	33.031
586.04	33.972
586.38	33.860
586.72	33.618
587.05	34.339
587.39	33.793
587.72	33.398
588.06	33.810
588.39	34.385
588.73	34.229
589.06	33.476
589.40	33.826
589.73	33.695
590.07	33.333
590.40	33.175
590.73	34.277
591.07	33.853
591.40	34.171
591.74	33.396
592.07	33.333
592.41	33.083
592.74	34.427
593.08	33.171
593.41	34.042
593.75	33.873
594.08	33.822
594.41	33.986
594.75	33.790
595.08	33.346
595.42	33.421
595.75	32.917
596.09	33.747
596.42	32.939
596.75	34.000
597.09	33.256
597.42	32.379
597.75	32.974
598.09	33.146
598.42	32.892
598.76	32.878
599.09	32.731
599.42	32.730
599.76	33.386
600.09	33.412
600.42	31.953
600.76	33.064
601.09	32.078
601.42	32.246
601.76	33.198
602.09	32.593
602.42	32.914
602.76	32.679
603.09	32.507
603.42	32.496
603.76	30.969
604.09	32.456
604.42	31.988
604.76	32.542
605.09	31.885
605.42	32.227
605.75	31.795
606.09	33.289
606.42	32.327
606.75	31.883
607.09	33.256
607.42	32.446
607.75	32.231
608.08	32.086
608.42	31.668
608.75	32.566
609.08	30.136
609.41	33.333
609.75	32.807
610.08	31.990
610.41	33.028
610.74	31.951
611.07	32.311
611.41	31.531
611.74	31.393
612.07	32.254
612.40	31.532
612.73	32.581
613.07	31.944
613.40	31.512
613.73	31.329
614.06	31.206
614.39	32.748
614.72	31.877
615.06	32.262
615.39	31.871
615.72	30.907
616.05	32.000
616.38	32.503
616.71	29.913
617.05	31.156
617.38	31.097
617.71	32.528
618.04	32.457
618.37	32.309
618.70	32.677
619.03	32.632
619.36	32.990
619.69	30.793
620.03	31.579
620.36	33.258
620.69	31.633
621.02	32.304
621.35	31.745
621.68	33.663
622.01	30.660
622.34	30.988
622.67	32.040
623.00	31.859
623.33	32.441
623.66	33.227
623.99	32.297
624.32	31.612
624.65	32.031
624.99	30.859
625.32	31.438
625.65	31.545
625.98	31.833
626.31	31.255
626.64	32.432
626.97	32.353
627.30	31.759
627.63	31.907
627.96	31.564
628.29	32.122
628.62	32.371
628.95	31.573
629.28	32.645
629.61	31.870
629.94	32.365
630.26	32.008
630.59	33.403
630.92	30.032
631.25	32.626
631.58	32.093
631.91	31.207
632.24	33.136
632.57	32.699
632.90	32.964
633.23	30.839
633.56	32.830
633.89	32.190
634.22	33.462
634.55	32.063
634.88	33.467
635.20	33.973
635.53	32.682
635.86	33.424
636.19	32.333
636.52	31.402
636.85	31.030
637.18	32.254
637.51	33.062
637.83	31.145
638.16	32.432
638.49	30.836
638.82	31.646
639.15	30.714
639.48	32.460
639.81	31.744
640.13	32.006
640.46	31.811
640.79	31.163
641.12	32.868
641.45	31.415
641.77	31.051
642.10	32.899
642.43	31.481
642.76	32.796
643.09	28.374
643.41	33.871
643.74	32.986
644.07	31.217
644.40	31.588
644.73	31.123
645.05	34.733
645.38	32.115
645.71	34.542
646.04	32.156
646.36	31.439
646.69	35.590
647.02	32.422
647.35	31.800
647.67	33.868
648.00	34.951
648.33	31.599
648.66	31.911
648.98	29.661
649.31	30.637
649.64	31.325
649.96	30.574
650.29	29.027
650.62	32.839
650.94	30.869
651.27	30.058
651.60	31.740
651.92	33.588
652.25	29.254
652.58	28.546
652.90	26.868
653.23	31.079
653.56	32.465
653.88	29.015
654.21	29.868
654.54	27.767
654.86	32.374
655.19	30.484
655.52	31.626
655.84	28.630
656.17	27.658
656.49	37.516
656.82	44.476
657.15	36.748
657.47	27.618
657.80	19.452
658.13	15.751
658.45	25.773
658.78	24.902
659.10	24.438
659.43	24.924
659.75	24.452
660.08	25.426
660.41	24.679
660.73	26.870
661.06	27.455
661.38	32.258
661.71	30.197
662.03	31.250
662.36	31.026
662.68	28.058
663.01	30.288
663.33	30.660
663.66	33.732
663.98	30.318
664.31	31.707
664.63	29.358
664.96	31.354
665.28	29.314
665.61	29.673
665.93	27.189
666.26	27.815
666.58	32.339
666.91	30.445
667.23	30.049
667.56	29.630
667.88	29.323
668.21	30.711
668.53	31.472
668.86	26.786
669.18	29.188
669.50	32.905
669.83	29.500
670.15	28.500
670.48	29.073
670.80	26.904
671.13	28.675
671.45	31.633
671.77	28.744
672.10	27.253
672.42	26.494
672.75	28.932
673.07	29.159
673.39	30.156
673.72	29.339
674.04	28.723
674.37	27.945
674.69	27.804
675.01	29.767
675.34	28.676
675.66	25.952
675.98	28.535
676.31	29.219
676.63	28.351
676.95	27.578
677.28	26.980
677.60	29.825
677.92	29.323
678.25	26.682
678.57	27.146
678.89	29.817
679.22	28.670
679.54	28.508
679.86	28.480
680.18	27.197
680.51	28.542
680.83	26.667
681.15	28.540
681.48	27.234
681.80	25.217
682.12	31.906
682.44	28.017
682.77	27.727
683.09	26.225
683.41	26.817
683.73	28.894
684.06	30.711
684.38	29.017
684.70	30.947
685.02	28.139
685.34	25.523
685.67	25.296
685.99	28.144
686.31	27.052
686.63	28.932
686.96	26.220
687.28	27.926
687.60	27.105
687.92	27.426
688.24	27.368
688.56	25.495
688.89	28.995
689.21	24.651
689.53	26.343
689.85	28.354
690.17	25.490
690.49	27.765
690.82	25.307
691.14	30.809
691.46	26.000
691.78	28.469
692.10	28.899
692.42	27.294
692.74	28.673
693.06	24.819
693.39	25.369
693.71	24.884
694.03	23.913
694.35	23.762
694.67	25.191
694.99	28.032
695.31	25.496
695.63	25.135
695.95	27.528
696.27	30.312
696.59	26.113
696.91	27.635
697.23	26.074
697.56	26.943
697.88	22.951
698.20	23.487
698.52	27.163
698.84	27.318
699.16	29.288
699.48	26.963
699.80	24.451
700.12	24.242
700.44	26.254
700.76	28.707
701.08	26.349
701.40	27.961
701.72	27.333
702.04	25.510
702.36	27.213
702.68	27.852
703.00	31.546
703.32	21.856
703.64	26.183
703.96	25.316
704.28	26.408
704.60	28.082
704.91	26.316
705.23	25.614
705.55	27.138
705.87	23.022
706.19	25.896
706.51	23.047
706.83	25.275
707.15	23.729
707.47	23.353
707.79	24.642
708.11	25.661
708.43	30.667
708.74	26.503
709.06	21.779
709.38	23.739
709.70	25.325
710.02	24.476
710.34	23.404
710.66	27.715
710.98	27.622
711.29	27.148
711.61	21.631
711.93	26.592
712.25	21.509
712.57	26.563
712.89	26.531
713.20	25.403
713.52	20.325
713.84	22.993
714.16	29.054
714.48	28.669
714.80	26.599
715.11	23.711
715.43	25.256
715.75	23.158
716.07	28.727
716.39	25.939
716.70	18.800
717.02	23.387
717.34	26.840
717.66	22.727
717.97	19.444
718.29	23.111
718.61	22.523
718.93	26.050
719.24	24.686
719.56	22.321
719.88	24.314
720.20	20.940
720.51	27.632
720.83	27.197
721.15	29.388
721.46	23.207
721.78	23.810
722.10	24.031
722.42	23.913
722.73	17.195
723.05	23.502
723.37	19.005
723.68	23.697
724.00	23.148
724.32	21.495
724.63	23.077
724.95	21.461
725.27	25.352
725.58	17.352
725.90	18.919
726.22	22.271
726.53	27.459
726.85	21.111
727.16	27.530
727.48	24.597
727.80	20.091
728.11	22.222
728.43	20.988
728.74	21.053
729.06	22.707
729.38	22.481
729.69	24.000
730.01	24.686
730.32	20.717
730.64	26.154
730.96	22.780
731.27	22.780
731.59	19.529
731.90	18.092
732.22	24.917
732.53	19.649
732.85	19.014
733.16	22.711
733.48	23.507
733.80	23.636
734.11	23.050
734.43	25.271
734.74	21.807
735.06	20.257
735.37	22.045
735.69	19.014
736.00	24.815
736.32	26.224
736.63	23.333
736.95	17.899
737.26	22.464
737.58	18.248
737.89	23.019
738.21	22.901
738.52	25.820
738.83	25.641
739.15	21.818
739.46	22.523
739.78	21.622
740.09	20.238
740.41	22.727
740.72	21.514
741.04	23.715
741.35	24.664
741.66	31.720
741.98	20.918
742.29	20.207
742.61	19.653
742.92	23.039
743.23	20.896
743.55	16.580
743.86	25.121
744.18	15.000
744.49	26.667
744.80	23.656
745.12	25.641
745.43	20.856
745.74	20.321
746.06	24.138
746.37	17.778
746.68	21.081
747.00	16.022
747.31	23.560
747.62	20.000
747.94	23.113
748.25	19.212
748.56	19.697
748.88	19.672
749.19	23.834
749.50	20.000
749.82	25.500
750.13	22.816
750.44	20.172
750.75	21.200
751.07	17.992
751.38	16.406
751.69	22.619
752.01	20.168
752.32	24.793
752.63	21.834
752.94	17.200
753.26	25.114
753.57	21.801
753.88	16.279
754.19	21.145
754.51	18.410
754.82	19.583
755.13	19.027
755.44	26.407
755.75	22.892
756.07	24.893
756.38	19.665
756.69	22.642
757.00	20.213
757.31	22.837
757.63	23.529
757.94	20.000
758.25	24.702
758.56	20.000
758.87	22.619
759.18	23.988
759.50	19.929
759.81	20.849
760.12	20.996
760.43	21.595
760.74	22.754
761.05	25.641
761.36	22.255
761.67	18.845
761.99	22.408
762.30	23.273
762.61	18.699
762.92	22.222
763.23	17.209
763.54	21.320
763.85	26.244
764.16	16.957
764.47	20.870
764.78	20.565
765.10	22.835
765.41	22.074
765.72	20.736
766.03	21.070
766.34	24.242
766.65	25.781
766.96	22.222
767.27	25.698
767.58	25.157
767.89	18.182
768.20	13.514
768.51	19.540
768.82	16.250
769.13	19.907
769.44	19.340
769.75	17.647
770.06	17.476
770.37	21.809
770.68	25.128
770.99	19.289
771.30	18.041
771.61	14.350
771.92	18.396
772.23	20.192
772.54	18.235
772.85	12.329
773.16	19.355
773.47	26.115
773.78	21.557
774.09	17.763
774.39	17.647
774.70	12.030
775.01	23.077
775.32	11.905
775.63	22.835
775.94	14.151
776.25	24.444
776.56	19.091
776.87	23.932
777.18	21.000
777.48	15.385
777.79	12.963
778.10	16.038
778.41	29.412
778.72	8.491
779.03	13.158
779.34	15.966
779.65	14.789
779.95	20.863
780.26	9.677
780.57	13.043
780.88	13.761
781.19	25.000
781.50	9.836
781.80	19.708
782.11	18.590
782.42	11.034
782.73	21.678
783.04	24.000
783.34	13.600
783.65	16.260
783.96	4.098
784.27	5.042
784.57	14.953
784.88	12.500
785.19	11.340
785.50	7.368
785.81	9.000
786.11	11.881
786.42	0.000
786.73	12.500
787.04	27.551
787.34	17.593
787.65	23.585
787.96	11.340
788.26	12.871
788.57	15.652
788.88	-1.835
789.19	9.917
789.49	15.652
789.80	16.379
790.11	-14.634
790.41	14.607
790.72	16.279
791.03	5.814
791.33	6.494
791.64	10.976
791.95	13.415
792.25	9.639
792.56	8.642
792.87	2.817
793.17	18.072
793.48	4.706
793.79	3.750
794.09	-11.667
794.40	13.043
794.70	8.696
795.01	1.835
795.32	21.260
795.62	14.706
795.93	20.588
796.23	18.182
796.54	12.791
796.85	14.493
797.15	10.938
797.46	-3.390
797.76	16.393
798.07	10.526
798.37	14.516
798.68	0.000
798.99	7.692
799.29	-3.030
799.60	2.899
799.90	24.286
800.21	-1.754
800.51	1.724
800.82	7.547
801.12	13.725
801.43	0.000
801.73	6.452
802.04	12.000
802.34	9.434
802.65	21.053
802.95	5.455
803.26	-9.434
803.56	4.918
803.87	2.000
804.17	-22.222
804.48	-9.615
804.78	-16.327
805.09	25.532
805.39	18.644
805.70	-16.667
806.00	0.000
806.30	6.780
806.61	-3.077
806.91	-7.692
807.22	3.947
807.52	4.286
807.83	1.724
808.13	18.987
808.43	8.197
808.74	8.197
809.04	0.000
809.35	9.259
809.65	0.000
809.95	-1.695
810.26	4.082
810.56	0.000
810.86	1.961
811.17	8.108
811.47	-29.630
811.77	1.961
812.08	4.545
812.38	-79.167
812.69	2.564
812.99	-4.762
813.29	8.696
813.59	5.714
813.90	9.524
814.20	-9.091
814.50	-12.245
814.81	-9.804
815.11	-20.833
815.41	-14.634
815.72	-7.692
816.02	0.000
816.32	-12.500
816.62	12.121
816.93	-21.212
817.23	10.811
817.53	-2.941
817.84	17.500
818.14	0.000
818.44	-18.750
818.74	-90.476
819.04	-22.857
819.35	5.714
819.65	2.273
819.95	33.333
820.25	-16.667
820.56	-44.828
820.86	-50.000
821.16	-47.826
821.46	-16.667
821.76	24.074
822.07	-34.783
822.37	-4.082
822.67	0.000
822.97	-13.043
823.27	-30.769
823.57	-44.444
823.88	-7.143
824.18	-2.564
824.48	14.286
824.78	-30.303
825.08	-113.333
825.38	10.000
825.69	-122.222
825.99	-29.630
826.29	8.889
826.59	-29.630
826.89	-40.741
827.19	-53.571
827.49	-68.182
827.79	-68.182
828.09	-22.727
828.39	-47.826
828.70	-11.111
829.00	14.286
829.30	21.429
829.60	3.226
829.90	-42.308
830.20	2.564
830.50	-4.545
830.80	-23.810
831.10	-61.111
831.40	-128.571
831.70	-33.333
832.00	5.882
832.30	30.435
832.60	-8.333
832.90	-109.091
833.20	-55.556
833.50	-9.375
833.80	-7.692
834.10	0.000
834.40	-54.167
834.70	-22.727
835.00	-53.846
835.30	-65.000
835.60	-140.000
835.90	25.000
836.20	-114.286
836.50	-30.435
836.80	-66.667
837.10	-80.000
837.40	-130.000
837.70	-21.739
838.00	-78.571
838.30	2000.000
838.60	32.000
838.90	-200.000
839.19	-100.000
839.49	-650.000
839.79	-29.412
840.09	-111.111
840.39	-7.143
840.69	-66.667
840.99	-66.667
841.29	-3.448
841.59	-33.333
841.88	-90.909
842.18	-283.333
842.48	-37.500
842.78	-30.769
843.08	-70.588
843.38	-5.000
843.68	-92.308
843.97	-117.647
844.27	-70.000
844.57	-12.500
844.87	-90.909
845.17	-84.211
845.47	-111.111
845.76	5.556
846.06	-23.810
846.36	-57.143
846.66	-255.556
846.96	-60.000
847.25	-40.000
847.55	-125.000
847.85	-60.000
848.15	-225.000
848.44	-15.789
848.74	-60.000
849.04	-31.579
849.34	-366.667
849.63	-83.333
849.93	-52.941
850.23	-154.545
850.53	-133.333
850.82	60.000
851.12	-122.222
851.42	-142.857
851.71	-100.000
852.01	-21.429
852.31	-300.000
852.61	-76.923
852.90	-320.000
853.20	-166.667
853.50	-144.444
853.79	-70.000
854.09	-70.000
854.39	-57.895
854.68	-85.000
854.98	-175.000
855.28	-61.111
855.57	-114.286
855.87	-63.158
856.17	-131.250
856.46	-19.231
856.76	-53.333
857.05	-106.250
857.35	12.500
857.65	-22.222
857.94	-137.500
858.24	-43.478
858.53	-140.000
858.83	-600.000
859.13	-200.000
859.42	-150.000
859.72	200.000
860.01	38.462
860.31	-140.000
860.60	-225.000
860.90	-350.000
861.20	-416.667
861.49	-375.000
861.79	750.000
862.08	25.806
862.38	-52.632
862.67	-30.769
862.97	-130.000
863.26	-41.667
863.56	-30.435
863.85	-283.333
864.15	-64.286
864.44	6.250
864.74	-108.333
865.03	-100.000
865.33	-100.000
865.62	-1400.000
865.92	-650.000
866.21	-266.667
866.51	-72.727
866.80	-600.000
867.10	-157.143
867.39	-144.444
867.69	-183.333
867.98	200.000
868.27	-475.000
868.57	675.000
868.86	-106.667
869.16	-15.385
869.45	1150.000
869.75	-283.333
870.04	-108.333
870.33	-23.529
870.63	-257.143
870.92	30.435
871.22	-212.500
871.51	520.000
871.80	-62.500
872.10	-300.000
>>>>>End Processed Spectral Data<<<<<
