SpectraSuite Data File
++++++++++++++++++++++++++++++++++++
Date: Tue May 12 19:35:52 PDT 2015
User: schluterlab
Dark Spectrum Present: Yes
Reference Spectrum Present: Yes
Number of Sampled Component Spectra: 1
Spectrometers: USB2E3373
Integration Time (usec): 3000 (USB2E3373)
Spectra Averaged: 3 (USB2E3373)
Boxcar Smoothing: 0 (USB2E3373)
Correct for Electrical Dark: No (USB2E3373)
Strobe/Lamp Enabled: No (USB2E3373)
Correct for Detector Non-linearity: No (USB2E3373)
Correct for Stray Light: No (USB2E3373)
Number of Pixels in Processed Spectrum: 2048
>>>>>Begin Processed Spectral Data<<<<<
178.53	0.000
178.91	-100.000
179.29	-33.333
179.67	100.000
180.04	0.000
180.42	80.000
180.80	33.333
181.18	500.000
181.56	0.000
181.94	266.667
182.31	600.000
182.69	-85.714
183.07	0.000
183.45	150.000
183.83	380.000
184.20	366.667
184.58	450.000
184.96	250.000
185.34	-133.333
185.72	-28.571
186.09	-166.667
186.47	-1700.000
186.85	80.000
187.23	108.333
187.61	-85.714
187.98	-80.000
188.36	200.000
188.74	-225.000
189.12	-33.333
189.49	-50.000
189.87	125.000
190.25	77.778
190.63	466.667
191.00	200.000
191.38	-433.333
191.76	400.000
192.14	-28.571
192.51	30.000
192.89	40.000
193.27	60.000
193.65	-133.333
194.02	-100.000
194.40	300.000
194.78	-25.000
195.15	-185.714
195.53	166.667
195.91	60.000
196.29	-325.000
196.66	-466.667
197.04	-114.286
197.42	200.000
197.79	-150.000
198.17	-50.000
198.55	200.000
198.92	-66.667
199.30	450.000
199.68	-50.000
200.05	-100.000
200.43	22.222
200.81	41.667
201.18	66.667
201.56	-100.000
201.94	-200.000
202.31	-50.000
202.69	33.333
203.07	8.333
203.44	-375.000
203.82	0.000
204.19	250.000
204.57	-33.333
204.95	145.455
205.32	120.000
205.70	275.000
206.08	-100.000
206.45	0.000
206.83	700.000
207.20	-44.444
207.58	38.462
207.96	-33.333
208.33	400.000
208.71	266.667
209.08	-50.000
209.46	-22.222
209.84	266.667
210.21	-633.333
210.59	-200.000
210.96	122.222
211.34	-175.000
211.71	500.000
212.09	140.000
212.46	-212.500
212.84	-150.000
213.22	128.571
213.59	25.000
213.97	0.000
214.34	-400.000
214.72	-300.000
215.09	500.000
215.47	53.333
215.84	75.000
216.22	-600.000
216.59	500.000
216.97	66.667
217.34	-50.000
217.72	100.000
218.09	325.000
218.47	21.053
218.84	-100.000
219.22	7.143
219.59	-100.000
219.97	-30.000
220.34	266.667
220.72	127.273
221.09	-300.000
221.47	0.000
221.84	200.000
222.22	-225.000
222.59	-75.000
222.97	13.043
223.34	120.000
223.72	242.857
224.09	50.000
224.46	84.615
224.84	13.333
225.21	-100.000
225.59	-250.000
225.96	40.000
226.34	183.333
226.71	290.000
227.08	-23.077
227.46	42.857
227.83	8.333
228.21	-250.000
228.58	416.667
228.95	-47.368
229.33	43.750
229.70	-133.333
230.08	-22.222
230.45	-300.000
230.82	-600.000
231.20	-9.524
231.57	-200.000
231.95	-366.667
232.32	100.000
232.69	-200.000
233.07	37.500
233.44	37.500
233.81	9.677
234.19	-240.000
234.56	-27.778
234.93	-33.333
235.31	18.519
235.68	33.333
236.05	3.846
236.43	-36.842
236.80	4.545
237.17	-50.000
237.55	-55.000
237.92	23.256
238.29	51.613
238.67	53.571
239.04	57.143
239.41	5.882
239.79	16.000
240.16	35.000
240.53	5.172
240.91	42.466
241.28	16.901
241.65	29.688
242.02	29.825
242.40	29.333
242.77	31.579
243.14	38.824
243.51	30.108
243.89	28.571
244.26	37.037
244.63	25.510
245.00	18.750
245.38	24.370
245.75	33.051
246.12	36.719
246.49	26.400
246.87	31.148
247.24	30.282
247.61	34.437
247.98	34.270
248.36	31.447
248.73	30.682
249.10	35.000
249.47	35.417
249.84	31.472
250.22	28.125
250.59	34.831
250.96	35.455
251.33	38.679
251.70	38.073
252.08	35.931
252.45	31.020
252.82	35.865
253.19	31.907
253.56	36.471
253.94	36.585
254.31	40.647
254.68	35.764
255.05	40.728
255.42	36.727
255.79	40.066
256.16	33.681
256.54	36.364
256.91	38.141
257.28	39.935
257.65	35.738
258.02	36.637
258.39	35.650
258.76	35.474
259.14	35.000
259.51	36.620
259.88	40.058
260.25	32.102
260.62	36.798
260.99	35.097
261.36	35.345
261.73	36.267
262.10	37.602
262.47	34.160
262.85	33.933
263.22	33.065
263.59	37.802
263.96	35.248
264.33	35.040
264.70	36.609
265.07	34.483
265.44	34.660
265.81	36.145
266.18	36.300
266.55	35.238
266.92	39.063
267.29	38.889
267.66	37.500
268.03	38.495
268.40	36.842
268.77	35.189
269.14	35.504
269.51	35.068
269.88	38.248
270.25	33.755
270.62	38.655
270.99	34.947
271.36	35.541
271.73	36.250
272.10	36.100
272.47	32.600
272.84	31.847
273.21	34.864
273.58	32.245
273.95	35.857
274.32	35.397
274.69	37.573
275.06	33.208
275.43	34.200
275.80	35.564
276.17	33.004
276.54	36.122
276.91	34.933
277.28	36.944
277.65	33.081
278.02	34.091
278.39	35.935
278.76	36.313
279.13	36.136
279.50	35.199
279.87	34.340
280.23	34.608
280.60	34.276
280.97	35.501
281.34	34.746
281.71	32.327
282.08	34.347
282.45	34.921
282.82	34.175
283.19	33.838
283.56	36.860
283.92	35.387
284.29	36.379
284.66	33.451
285.03	29.846
285.40	34.667
285.77	35.796
286.14	34.390
286.51	34.566
286.87	32.415
287.24	33.013
287.61	33.333
287.98	35.055
288.35	33.178
288.72	32.569
289.08	31.761
289.45	31.981
289.82	30.280
290.19	32.576
290.56	31.983
290.93	32.349
291.29	30.496
291.66	31.320
292.03	32.425
292.40	30.216
292.77	29.155
293.13	30.543
293.50	28.237
293.87	29.820
294.24	29.073
294.60	29.372
294.97	28.255
295.34	28.356
295.71	27.046
296.08	29.235
296.44	30.830
296.81	27.814
297.18	28.849
297.55	26.508
297.91	27.411
298.28	27.749
298.65	26.261
299.02	28.113
299.38	25.893
299.75	26.641
300.12	27.218
300.48	27.582
300.85	26.284
301.22	26.803
301.59	27.494
301.95	28.659
302.32	27.461
302.69	25.208
303.05	27.273
303.42	27.174
303.79	25.843
304.15	25.481
304.52	27.821
304.89	25.141
305.25	26.950
305.62	24.545
305.99	25.868
306.35	27.293
306.72	29.194
307.09	24.918
307.45	27.292
307.82	25.827
308.19	26.403
308.55	24.684
308.92	26.271
309.29	25.523
309.65	26.006
310.02	25.472
310.38	26.546
310.75	25.410
311.12	26.246
311.48	27.030
311.85	24.823
312.22	26.343
312.58	26.888
312.95	26.078
313.31	25.860
313.68	27.408
314.05	26.514
314.41	27.308
314.78	28.744
315.14	27.914
315.51	26.713
315.87	28.125
316.24	27.992
316.61	28.252
316.97	28.333
317.34	28.708
317.70	28.385
318.07	29.797
318.43	29.206
318.80	29.144
319.16	29.077
319.53	31.132
319.89	31.061
320.26	32.055
320.62	32.171
320.99	34.592
321.35	34.783
321.72	35.051
322.08	34.554
322.45	35.207
322.81	35.271
323.18	36.721
323.54	36.967
323.91	37.856
324.27	38.091
324.64	40.956
325.00	40.218
325.37	41.277
325.73	40.967
326.10	40.806
326.46	43.518
326.83	46.262
327.19	46.812
327.56	48.364
327.92	46.441
328.29	48.566
328.65	50.094
329.01	50.183
329.38	52.250
329.74	52.739
330.11	52.563
330.47	52.607
330.84	52.538
331.20	53.974
331.56	54.245
331.93	55.261
332.29	56.522
332.66	55.877
333.02	57.660
333.38	59.099
333.75	59.469
334.11	58.861
334.48	56.708
334.84	57.934
335.20	57.833
335.57	59.582
335.93	60.279
336.29	59.872
336.66	61.111
337.02	59.927
337.38	60.000
337.75	62.364
338.11	63.081
338.47	63.417
338.84	60.773
339.20	61.503
339.56	61.789
339.93	60.631
340.29	63.645
340.65	61.553
341.02	63.685
341.38	62.930
341.74	65.036
342.11	66.048
342.47	62.937
342.83	63.487
343.20	64.456
343.56	64.685
343.92	64.392
344.28	64.322
344.65	64.298
345.01	65.505
345.37	64.359
345.73	65.547
346.10	66.465
346.46	65.746
346.82	67.545
347.19	65.517
347.55	69.473
347.91	65.192
348.27	67.397
348.63	67.502
349.00	67.362
349.36	67.106
349.72	68.062
350.08	68.903
350.45	68.755
350.81	68.043
351.17	69.193
351.53	68.438
351.89	69.171
352.26	69.024
352.62	69.583
352.98	70.460
353.34	71.261
353.70	68.807
354.07	70.346
354.43	69.533
354.79	69.590
355.15	68.846
355.51	70.905
355.87	72.689
356.24	70.833
356.60	71.536
356.96	70.616
357.32	71.687
357.68	71.440
358.04	70.908
358.40	73.159
358.77	71.647
359.13	71.486
359.49	72.800
359.85	73.781
360.21	72.720
360.57	74.083
360.93	74.584
361.29	72.741
361.66	74.290
362.02	75.196
362.38	74.747
362.74	74.865
363.10	74.661
363.46	74.191
363.82	75.957
364.18	75.322
364.54	77.328
364.90	76.963
365.26	75.335
365.62	77.290
365.98	76.462
366.35	77.534
366.71	77.371
367.07	76.605
367.43	76.029
367.79	77.253
368.15	78.280
368.51	78.876
368.87	78.341
369.23	80.015
369.59	77.647
369.95	76.751
370.31	79.167
370.67	77.594
371.03	80.418
371.39	78.927
371.75	77.192
372.11	80.074
372.47	77.951
372.83	80.205
373.19	78.690
373.55	81.886
373.91	80.303
374.27	81.457
374.63	80.265
374.99	80.673
375.35	81.422
375.71	81.707
376.07	80.989
376.42	80.636
376.78	82.648
377.14	82.123
377.50	81.943
377.86	83.008
378.22	81.704
378.58	83.750
378.94	83.497
379.30	81.017
379.66	80.282
380.02	81.945
380.38	83.079
380.74	83.282
381.09	82.973
381.45	82.413
381.81	83.482
382.17	83.192
382.53	83.235
382.89	83.900
383.25	81.928
383.61	83.408
383.97	83.951
384.32	82.903
384.68	83.333
385.04	83.705
385.40	82.620
385.76	83.491
386.12	83.894
386.48	84.540
386.83	84.463
387.19	84.355
387.55	84.909
387.91	82.555
388.27	82.917
388.62	84.650
388.98	84.033
389.34	84.515
389.70	83.782
390.06	84.884
390.42	84.111
390.77	84.842
391.13	85.231
391.49	85.175
391.85	84.764
392.20	85.083
392.56	82.908
392.92	85.034
393.28	83.603
393.64	85.180
393.99	84.481
394.35	84.166
394.71	84.371
395.07	83.090
395.42	83.619
395.78	85.484
396.14	83.678
396.50	84.217
396.85	82.816
397.21	83.765
397.57	83.410
397.92	84.796
398.28	84.293
398.64	84.762
399.00	83.227
399.35	83.118
399.71	82.934
400.07	84.126
400.42	83.974
400.78	84.773
401.14	84.217
401.49	81.761
401.85	82.921
402.21	84.835
402.57	83.194
402.92	85.458
403.28	82.575
403.63	82.628
403.99	82.497
404.35	83.376
404.70	83.281
405.06	82.331
405.42	84.320
405.77	81.986
406.13	81.840
406.49	83.849
406.84	82.877
407.20	82.404
407.55	83.300
407.91	81.748
408.27	82.846
408.62	82.058
408.98	81.725
409.34	82.010
409.69	80.067
410.05	82.448
410.40	80.925
410.76	80.448
411.11	81.577
411.47	81.633
411.83	79.266
412.18	82.003
412.54	80.466
412.89	80.894
413.25	83.260
413.60	81.952
413.96	80.259
414.31	80.561
414.67	82.039
415.03	80.636
415.38	82.173
415.74	78.979
416.09	81.461
416.45	80.467
416.80	79.694
417.16	80.818
417.51	79.528
417.87	82.353
418.22	82.353
418.58	81.133
418.93	80.335
419.29	80.665
419.64	83.379
420.00	79.437
420.35	81.481
420.71	81.178
421.06	81.246
421.42	82.434
421.77	82.643
422.12	78.559
422.48	81.097
422.83	80.182
423.19	79.588
423.54	81.063
423.90	80.161
424.25	81.088
424.61	82.129
424.96	81.634
425.31	80.495
425.67	81.030
426.02	82.174
426.38	81.467
426.73	80.187
427.09	81.484
427.44	81.914
427.79	82.054
428.15	79.899
428.50	81.344
428.85	79.795
429.21	81.351
429.56	80.166
429.92	79.448
430.27	79.573
430.62	80.097
430.98	78.452
431.33	80.923
431.68	79.923
432.04	81.070
432.39	78.550
432.74	79.127
433.10	81.747
433.45	80.557
433.80	80.655
434.16	79.459
434.51	79.376
434.86	80.967
435.22	80.151
435.57	81.728
435.92	79.381
436.28	80.012
436.63	81.455
436.98	80.309
437.34	81.830
437.69	81.481
438.04	80.168
438.39	81.527
438.75	79.262
439.10	80.298
439.45	81.194
439.81	80.571
440.16	82.498
440.51	79.740
440.86	81.061
441.22	80.405
441.57	79.544
441.92	82.993
442.27	80.857
442.63	80.756
442.98	82.457
443.33	79.847
443.68	79.590
444.03	81.443
444.39	81.104
444.74	81.053
445.09	82.231
445.44	79.592
445.79	83.064
446.15	82.099
446.50	80.278
446.85	81.848
447.20	80.744
447.55	79.639
447.91	80.541
448.26	80.534
448.61	81.208
448.96	79.361
449.31	80.952
449.66	80.508
450.02	79.586
450.37	80.559
450.72	80.910
451.07	80.751
451.42	81.555
451.77	80.895
452.12	79.887
452.47	79.539
452.83	80.822
453.18	81.296
453.53	80.797
453.88	81.110
454.23	81.214
454.58	81.136
454.93	79.973
455.28	80.584
455.63	80.247
455.98	81.599
456.34	80.710
456.69	81.110
457.04	79.724
457.39	79.713
457.74	80.531
458.09	79.403
458.44	79.644
458.79	79.505
459.14	77.818
459.49	80.255
459.84	80.083
460.19	78.737
460.54	77.525
460.89	78.824
461.24	79.740
461.59	80.568
461.94	78.501
462.29	79.073
462.64	79.805
462.99	81.291
463.34	80.806
463.69	81.550
464.04	79.987
464.39	79.164
464.74	77.417
465.09	77.428
465.44	78.344
465.79	77.076
466.14	77.625
466.49	77.751
466.84	77.088
467.19	77.908
467.54	76.127
467.89	78.119
468.24	77.652
468.59	78.272
468.94	79.825
469.29	79.446
469.64	79.212
469.99	78.154
470.34	77.793
470.68	78.385
471.03	76.423
471.38	78.908
471.73	78.779
472.08	78.719
472.43	78.562
472.78	79.260
473.13	76.632
473.48	77.732
473.83	77.675
474.17	75.851
474.52	78.098
474.87	77.525
475.22	77.954
475.57	76.028
475.92	74.815
476.27	76.673
476.61	77.364
476.96	77.001
477.31	78.311
477.66	76.409
478.01	76.574
478.36	75.759
478.70	76.282
479.05	74.811
479.40	76.119
479.75	77.510
480.10	76.677
480.45	76.963
480.79	75.246
481.14	74.644
481.49	75.476
481.84	75.808
482.19	74.537
482.53	75.392
482.88	75.953
483.23	75.276
483.58	75.594
483.92	74.623
484.27	74.443
484.62	75.436
484.97	73.858
485.31	73.937
485.66	71.657
486.01	69.391
486.36	69.017
486.70	70.640
487.05	71.231
487.40	70.800
487.75	71.715
488.09	70.489
488.44	71.747
488.79	71.942
489.13	72.070
489.48	71.466
489.83	73.417
490.17	73.605
490.52	73.423
490.87	74.233
491.22	74.112
491.56	73.666
491.91	74.548
492.26	75.523
492.60	74.031
492.95	74.435
493.30	74.752
493.64	73.580
493.99	73.819
494.34	74.050
494.68	72.597
495.03	72.617
495.37	72.985
495.72	72.627
496.07	73.479
496.41	73.073
496.76	71.490
497.11	73.314
497.45	72.476
497.80	72.949
498.14	73.337
498.49	72.130
498.84	71.646
499.18	71.873
499.53	72.534
499.87	72.913
500.22	73.143
500.56	72.894
500.91	72.417
501.26	71.391
501.60	72.120
501.95	72.313
502.29	72.755
502.64	69.786
502.98	71.681
503.33	70.644
503.67	71.975
504.02	72.114
504.36	71.341
504.71	71.862
505.06	73.112
505.40	72.601
505.75	70.353
506.09	71.018
506.44	70.601
506.78	71.306
507.13	71.553
507.47	73.241
507.82	71.708
508.16	71.047
508.51	72.046
508.85	71.044
509.19	70.598
509.54	71.785
509.88	72.382
510.23	72.640
510.57	71.437
510.92	71.599
511.26	70.706
511.61	70.148
511.95	71.255
512.30	70.609
512.64	70.264
512.98	71.175
513.33	70.106
513.67	70.898
514.02	71.394
514.36	69.454
514.70	70.795
515.05	71.220
515.39	72.334
515.74	72.744
516.08	71.626
516.42	71.597
516.77	71.801
517.11	70.092
517.46	72.705
517.80	73.197
518.14	72.486
518.49	73.027
518.83	72.438
519.17	70.887
519.52	70.269
519.86	72.768
520.20	71.019
520.55	73.499
520.89	72.267
521.23	72.946
521.58	70.635
521.92	70.494
522.26	71.134
522.61	72.287
522.95	70.822
523.29	70.513
523.64	71.913
523.98	70.833
524.32	71.246
524.66	71.992
525.01	70.997
525.35	70.451
525.69	70.819
526.04	71.247
526.38	71.830
526.72	71.806
527.06	71.941
527.41	71.864
527.75	70.208
528.09	71.358
528.43	71.722
528.78	70.300
529.12	69.658
529.46	69.037
529.80	68.754
530.15	68.867
530.49	70.921
530.83	71.005
531.17	70.198
531.51	69.236
531.86	69.118
532.20	68.254
532.54	68.921
532.88	68.945
533.22	68.966
533.57	68.483
533.91	69.718
534.25	68.500
534.59	68.982
534.93	68.435
535.27	68.283
535.62	67.522
535.96	68.318
536.30	67.989
536.64	68.670
536.98	68.363
537.32	69.048
537.66	67.889
538.01	68.115
538.35	67.709
538.69	67.374
539.03	66.763
539.37	66.691
539.71	68.116
540.05	67.583
540.39	67.538
540.73	68.571
541.07	68.235
541.42	66.144
541.76	66.115
542.10	65.710
542.44	66.618
542.78	66.276
543.12	65.487
543.46	66.617
543.80	65.332
544.14	66.308
544.48	65.404
544.82	64.443
545.16	65.870
545.50	67.249
545.84	65.691
546.18	66.292
546.52	66.410
546.86	65.264
547.20	66.136
547.54	65.959
547.88	64.957
548.22	64.979
548.56	65.257
548.90	64.421
549.24	65.058
549.58	64.009
549.92	64.962
550.26	66.564
550.60	65.821
550.94	67.143
551.28	65.366
551.62	65.438
551.96	65.815
552.30	64.729
552.64	64.463
552.98	63.522
553.32	65.455
553.66	65.326
554.00	64.865
554.34	67.109
554.68	66.029
555.02	65.238
555.36	65.131
555.69	64.335
556.03	64.228
556.37	63.916
556.71	64.329
557.05	63.984
557.39	64.578
557.73	63.286
558.07	65.102
558.41	62.650
558.75	64.647
559.08	66.638
559.42	64.381
559.76	65.543
560.10	65.689
560.44	63.816
560.78	64.688
561.12	62.810
561.45	64.286
561.79	61.527
562.13	63.529
562.47	64.220
562.81	63.836
563.15	64.106
563.48	62.772
563.82	61.863
564.16	61.466
564.50	61.533
564.84	61.729
565.17	62.303
565.51	62.139
565.85	61.831
566.19	62.352
566.52	62.151
566.86	60.929
567.20	60.812
567.54	60.562
567.88	58.859
568.21	59.789
568.55	58.291
568.89	59.396
569.23	58.283
569.56	56.000
569.90	56.788
570.24	55.792
570.57	54.477
570.91	55.859
571.25	55.096
571.59	53.803
571.92	53.147
572.26	52.916
572.60	53.143
572.93	52.685
573.27	51.914
573.61	52.863
573.95	52.334
574.28	51.310
574.62	51.800
574.96	51.499
575.29	50.929
575.63	51.134
575.97	50.870
576.30	51.330
576.64	50.992
576.98	52.067
577.31	51.511
577.65	51.857
577.98	49.793
578.32	50.097
578.66	49.901
578.99	50.912
579.33	50.268
579.67	49.817
580.00	50.286
580.34	49.797
580.67	50.585
581.01	50.461
581.35	49.574
581.68	49.403
582.02	48.523
582.35	49.131
582.69	49.170
583.02	49.568
583.36	49.741
583.70	50.262
584.03	50.807
584.37	50.442
584.70	51.092
585.04	50.310
585.37	50.319
585.71	49.245
586.04	50.026
586.38	50.477
586.72	51.016
587.05	51.109
587.39	50.445
587.72	49.542
588.06	49.509
588.39	50.833
588.73	50.219
589.06	50.708
589.40	50.651
589.73	51.496
590.07	51.181
590.40	52.234
590.73	51.354
591.07	51.126
591.40	53.358
591.74	52.192
592.07	51.242
592.41	52.062
592.74	52.194
593.08	50.488
593.41	49.777
593.75	49.579
594.08	51.162
594.41	51.093
594.75	51.253
595.08	50.526
595.42	49.305
595.75	51.439
596.09	51.361
596.42	51.247
596.75	52.318
597.09	50.746
597.42	51.619
597.75	52.767
598.09	51.124
598.42	52.059
598.76	51.457
599.09	50.420
599.42	48.899
599.76	49.745
600.09	50.059
600.42	49.258
600.76	49.269
601.09	50.118
601.42	49.517
601.76	49.554
602.09	49.895
602.42	51.455
602.76	50.480
603.09	51.131
603.42	50.213
603.76	50.525
604.09	49.749
604.42	50.666
604.76	50.114
605.09	50.779
605.42	49.431
605.75	51.028
606.09	50.356
606.42	49.388
606.75	49.600
607.09	50.140
607.42	50.344
607.75	49.770
608.08	51.029
608.42	50.873
608.75	50.675
609.08	49.167
609.41	50.130
609.75	51.606
610.08	49.716
610.41	50.585
610.74	50.809
611.07	50.661
611.41	50.696
611.74	50.054
612.07	50.725
612.40	50.585
612.73	50.637
613.07	51.850
613.40	50.374
613.73	49.943
614.06	51.054
614.39	50.322
614.72	50.885
615.06	49.311
615.39	50.982
615.72	49.776
616.05	49.681
616.38	51.542
616.71	51.057
617.05	51.508
617.38	50.774
617.71	50.816
618.04	52.628
618.37	53.041
618.70	51.087
619.03	53.952
619.36	52.135
619.69	52.488
620.03	53.776
620.36	53.666
620.69	52.550
621.02	53.523
621.35	55.404
621.68	55.716
622.01	54.456
622.34	54.188
622.67	53.879
623.00	53.071
623.33	52.756
623.66	54.821
623.99	53.030
624.32	51.390
624.65	53.750
624.99	53.125
625.32	52.212
625.65	53.243
625.98	53.083
626.31	54.719
626.64	54.775
626.97	54.596
627.30	54.259
627.63	55.349
627.96	54.749
628.29	55.067
628.62	55.876
628.95	55.649
629.28	54.649
629.61	57.994
629.94	56.950
630.26	57.008
630.59	56.440
630.92	55.427
631.25	54.860
631.58	57.558
631.91	56.720
632.24	57.041
632.57	59.334
632.90	58.549
633.23	59.355
633.56	58.239
633.89	57.652
634.22	58.077
634.55	58.476
634.88	60.776
635.20	61.233
635.53	60.754
635.86	59.647
636.19	58.254
636.52	59.434
636.85	55.150
637.18	59.067
637.51	57.588
637.83	56.285
638.16	60.882
638.49	57.925
638.82	57.665
639.15	58.571
639.48	58.224
639.81	57.973
640.13	60.184
640.46	60.315
640.79	59.535
641.12	60.465
641.45	58.631
641.77	57.643
642.10	59.772
642.43	62.458
642.76	63.441
643.09	60.035
643.41	60.753
643.74	62.153
644.07	61.552
644.40	61.372
644.73	61.142
645.05	62.977
645.38	62.308
645.71	64.122
646.04	61.896
646.36	60.606
646.69	63.250
647.02	64.258
647.35	66.400
647.67	62.525
648.00	60.583
648.33	59.730
648.66	60.853
648.98	57.288
649.31	58.348
649.64	57.659
649.96	58.108
650.29	57.699
650.62	61.039
650.94	60.444
651.27	60.116
651.60	60.038
651.92	59.542
652.25	57.170
652.58	56.194
652.90	56.584
653.23	57.770
653.56	53.819
653.88	56.752
654.21	58.790
654.54	57.786
654.86	60.072
655.19	56.935
655.52	51.893
655.84	42.419
656.17	41.401
656.49	55.170
656.82	62.978
657.15	50.426
657.47	38.362
657.80	28.786
658.13	24.349
658.45	40.794
658.78	40.637
659.10	40.408
659.43	41.541
659.75	41.225
660.08	43.971
660.41	46.693
660.73	50.693
661.06	57.273
661.38	59.677
661.71	58.862
662.03	60.185
662.36	61.575
662.68	61.391
663.01	61.298
663.33	59.906
663.66	63.636
663.98	61.614
664.31	60.976
664.63	58.945
664.96	59.145
665.28	60.757
665.61	62.150
665.93	63.594
666.26	57.174
666.58	61.927
666.91	60.656
667.23	61.823
667.56	61.728
667.88	60.150
668.21	62.437
668.53	63.959
668.86	61.480
669.18	58.376
669.50	60.925
669.83	62.750
670.15	58.500
670.48	57.143
670.80	62.690
671.13	55.422
671.45	58.418
671.77	63.527
672.10	58.242
672.42	56.375
672.75	56.117
673.07	57.757
673.39	52.724
673.72	57.851
674.04	58.085
674.37	58.891
674.69	56.542
675.01	58.605
675.34	58.088
675.66	56.429
675.98	62.121
676.31	58.690
676.63	56.701
676.95	55.396
677.28	54.455
677.60	61.404
677.92	57.895
678.25	55.916
678.57	55.684
678.89	57.798
679.22	58.257
679.54	51.670
679.86	55.889
680.18	53.138
680.51	54.004
680.83	54.583
681.15	54.031
681.48	52.553
681.80	55.870
682.12	55.889
682.44	51.940
682.77	53.864
683.09	57.353
683.41	57.393
683.73	55.528
684.06	55.330
684.38	56.355
684.70	56.351
685.02	53.030
685.34	52.720
685.67	53.557
685.99	54.291
686.31	52.612
686.63	50.291
686.96	51.220
687.28	50.719
687.60	51.540
687.92	50.422
688.24	48.632
688.56	51.429
688.89	56.393
689.21	49.767
689.53	54.476
689.85	56.709
690.17	50.490
690.49	53.412
690.82	57.985
691.14	56.919
691.46	52.500
691.78	54.785
692.10	52.294
692.42	52.752
692.74	54.976
693.06	51.325
693.39	53.448
693.71	48.372
694.03	51.932
694.35	50.000
694.67	53.690
694.99	54.987
695.31	51.275
695.63	52.162
695.95	55.056
696.27	57.507
696.59	53.116
696.91	51.852
697.23	53.582
697.56	53.886
697.88	52.693
698.20	49.637
698.52	52.163
698.84	49.123
699.16	51.979
699.48	53.141
699.80	53.022
700.12	51.240
700.44	47.493
700.76	54.890
701.08	53.968
701.40	58.553
701.72	58.667
702.04	56.463
702.36	54.426
702.68	59.396
703.00	56.782
703.32	48.503
703.64	53.943
703.96	53.481
704.28	55.634
704.60	58.562
704.91	50.000
705.23	54.386
705.55	53.903
705.87	51.799
706.19	57.371
706.51	54.297
706.83	57.875
707.15	54.576
707.47	51.198
707.79	48.138
708.11	50.265
708.43	49.867
708.74	49.454
709.06	50.920
709.38	52.226
709.70	51.948
710.02	51.748
710.34	48.936
710.66	56.554
710.98	54.196
711.29	56.014
711.61	54.610
711.93	59.551
712.25	53.585
712.57	53.906
712.89	58.367
713.20	56.855
713.52	52.439
713.84	51.095
714.16	55.068
714.48	55.631
714.80	50.842
715.11	55.670
715.43	49.147
715.75	49.123
716.07	54.182
716.39	51.877
716.70	54.000
717.02	51.210
717.34	58.874
717.66	54.545
717.97	54.167
718.29	53.333
718.61	55.856
718.93	51.261
719.24	54.812
719.56	58.929
719.88	50.196
720.20	52.564
720.51	48.684
720.83	53.556
721.15	46.939
721.46	53.586
721.78	48.918
722.10	49.225
722.42	56.957
722.73	45.701
723.05	48.848
723.37	52.036
723.68	56.398
724.00	47.222
724.32	51.402
724.63	52.489
724.95	49.315
725.27	46.479
725.58	52.055
725.90	46.847
726.22	59.389
726.53	47.541
726.85	46.667
727.16	52.227
727.48	49.597
727.80	48.402
728.11	53.333
728.43	48.971
728.74	46.053
729.06	50.655
729.38	49.612
729.69	46.400
730.01	46.025
730.32	48.207
730.64	47.692
730.96	47.104
731.27	47.876
731.59	42.761
731.90	48.355
732.22	46.512
732.53	45.614
732.85	45.423
733.16	50.549
733.48	45.522
733.80	49.818
734.11	46.809
734.43	44.404
734.74	44.548
735.06	42.122
735.37	38.978
735.69	41.901
736.00	47.037
736.32	44.056
736.63	47.037
736.95	41.634
737.26	44.565
737.58	40.511
737.89	46.038
738.21	46.565
738.52	47.951
738.83	45.299
739.15	49.091
739.46	43.243
739.78	37.838
740.09	46.032
740.41	44.697
740.72	45.418
741.04	47.826
741.35	48.430
741.66	55.376
741.98	46.429
742.29	51.813
742.61	43.931
742.92	45.588
743.23	54.229
743.55	40.933
743.86	46.377
744.18	48.500
744.49	54.444
744.80	46.237
745.12	52.308
745.43	45.989
745.74	50.802
746.06	53.448
746.37	45.000
746.68	55.676
747.00	46.961
747.31	45.026
747.62	55.263
747.94	45.283
748.25	50.739
748.56	51.515
748.88	45.355
749.19	46.114
749.50	55.882
749.82	47.000
750.13	50.000
750.44	46.781
750.75	51.600
751.07	43.933
751.38	40.234
751.69	49.206
752.01	48.739
752.32	44.215
752.63	44.978
752.94	39.600
753.26	41.096
753.57	45.024
753.88	45.581
754.19	47.577
754.51	45.607
754.82	47.083
755.13	44.248
755.44	47.186
755.75	45.382
756.07	48.069
756.38	46.862
756.69	46.415
757.00	39.007
757.31	44.637
757.63	39.216
757.94	39.394
758.25	41.964
758.56	38.649
758.87	38.988
759.18	40.498
759.50	43.416
759.81	38.610
760.12	41.993
760.43	45.515
760.74	40.120
761.05	42.628
761.36	39.466
761.67	40.426
761.99	38.127
762.30	45.455
762.61	43.902
762.92	52.000
763.23	44.651
763.54	42.132
763.85	52.941
764.16	43.913
764.47	45.652
764.78	42.742
765.10	38.189
765.41	38.127
765.72	39.799
766.03	41.806
766.34	43.182
766.65	46.875
766.96	43.556
767.27	51.397
767.58	53.459
767.89	53.896
768.20	54.054
768.51	44.253
768.82	41.875
769.13	44.444
769.44	43.868
769.75	42.647
770.06	37.379
770.37	46.809
770.68	40.000
770.99	43.147
771.30	50.515
771.61	38.117
771.92	40.566
772.23	38.942
772.54	48.824
772.85	45.205
773.16	41.935
773.47	45.223
773.78	47.305
774.09	47.368
774.39	38.235
774.70	50.376
775.01	44.615
775.32	52.381
775.63	57.480
775.94	47.170
776.25	41.481
776.56	54.545
776.87	52.137
777.18	48.000
777.48	50.962
777.79	48.148
778.10	45.283
778.41	46.078
778.72	52.830
779.03	51.754
779.34	44.538
779.65	42.958
779.95	47.482
780.26	42.742
780.57	38.406
780.88	46.789
781.19	43.519
781.50	40.984
781.80	37.226
782.11	38.462
782.42	40.000
782.73	49.650
783.04	40.000
783.34	32.800
783.65	41.463
783.96	39.344
784.27	36.975
784.57	34.579
784.88	44.643
785.19	38.144
785.50	36.842
785.81	50.000
786.11	41.584
786.42	18.824
786.73	39.583
787.04	43.878
787.34	37.037
787.65	59.434
787.96	40.206
788.26	33.663
788.57	39.130
788.88	40.367
789.19	41.322
789.49	35.652
789.80	41.379
790.11	39.024
790.41	47.191
790.72	45.349
791.03	46.512
791.33	41.558
791.64	40.244
791.95	45.122
792.25	28.916
792.56	50.617
792.87	52.113
793.17	45.783
793.48	52.941
793.79	36.250
794.09	35.000
794.40	46.739
794.70	32.174
795.01	32.110
795.32	44.094
795.62	46.078
795.93	39.216
796.23	28.283
796.54	34.884
796.85	34.783
797.15	43.750
797.46	16.949
797.76	37.705
798.07	30.263
798.37	56.452
798.68	32.812
798.99	46.154
799.29	33.333
799.60	34.783
799.90	44.286
800.21	38.596
800.51	37.931
800.82	52.830
801.12	37.255
801.43	29.032
801.73	25.806
802.04	32.000
802.34	26.415
802.65	44.737
802.95	40.000
803.26	37.736
803.56	19.672
803.87	24.000
804.17	27.778
804.48	46.154
804.78	24.490
805.09	48.936
805.39	37.288
805.70	29.167
806.00	28.571
806.30	45.763
806.61	24.615
806.91	29.231
807.22	30.263
807.52	61.429
807.83	31.034
808.13	27.848
808.43	21.311
808.74	31.148
809.04	44.595
809.35	42.593
809.65	25.000
809.95	49.153
810.26	38.776
810.56	30.189
810.86	56.863
811.17	56.757
811.47	37.037
811.77	31.373
812.08	47.727
812.38	50.000
812.69	43.590
812.99	73.810
813.29	41.304
813.59	77.143
813.90	42.857
814.20	41.818
814.50	28.571
814.81	25.490
815.11	29.167
815.41	26.829
815.72	30.769
816.02	46.809
816.32	68.750
816.62	48.485
816.93	9.091
817.23	43.243
817.53	52.941
817.84	40.000
818.14	2.941
818.44	12.500
818.74	-19.048
819.04	14.286
819.35	34.286
819.65	31.818
819.95	61.538
820.25	11.111
820.56	20.690
820.86	10.714
821.16	34.783
821.46	71.429
821.76	57.407
822.07	39.130
822.37	20.408
822.67	13.953
822.97	30.435
823.27	19.231
823.57	29.630
823.88	50.000
824.18	17.949
824.48	71.429
824.78	42.424
825.08	13.333
825.38	30.000
825.69	-16.667
825.99	7.407
826.29	60.000
826.59	48.148
826.89	0.000
827.19	7.143
827.49	-27.273
827.79	-27.273
828.09	36.364
828.39	8.696
828.70	3.704
829.00	60.714
829.30	19.048
829.60	32.258
829.90	-15.385
830.20	25.641
830.50	45.455
830.80	4.762
831.10	-16.667
831.40	-21.429
831.70	-3.704
832.00	47.059
832.30	108.696
832.60	33.333
832.90	36.364
833.20	5.556
833.50	81.250
833.80	30.769
834.10	64.000
834.40	12.500
834.70	22.727
835.00	-3.846
835.30	45.000
835.60	-30.000
835.90	55.000
836.20	-7.143
836.50	65.217
836.80	33.333
837.10	20.000
837.40	100.000
837.70	4.348
838.00	-7.143
838.30	500.000
838.60	60.000
838.90	-120.000
839.19	66.667
839.49	-200.000
839.79	64.706
840.09	44.444
840.39	50.000
840.69	-94.444
840.99	75.000
841.29	27.586
841.59	0.000
841.88	45.455
842.18	-100.000
842.48	56.250
842.78	11.538
843.08	-5.882
843.38	10.000
843.68	15.385
843.97	11.765
844.27	180.000
844.57	45.833
844.87	100.000
845.17	0.000
845.47	-11.111
845.76	22.222
846.06	-47.619
846.36	50.000
846.66	-44.444
846.96	15.000
847.25	80.000
847.55	-25.000
847.85	-33.333
848.15	125.000
848.44	5.263
848.74	26.667
849.04	68.421
849.34	66.667
849.63	66.667
849.93	47.059
850.23	-45.455
850.53	133.333
850.82	0.000
851.12	0.000
851.42	-42.857
851.71	-20.000
852.01	0.000
852.31	133.333
852.61	-61.538
852.90	-240.000
853.20	-55.556
853.50	-11.111
853.79	-20.000
854.09	-30.000
854.39	0.000
854.68	45.000
854.98	-325.000
855.28	-22.222
855.57	-107.143
855.87	-31.579
856.17	-68.750
856.46	23.077
856.76	-6.667
857.05	-12.500
857.35	-12.500
857.65	33.333
857.94	50.000
858.24	13.043
858.53	-10.000
858.83	66.667
859.13	-109.091
859.42	-70.000
859.72	66.667
860.01	38.462
860.31	-10.000
860.60	-100.000
860.90	-150.000
861.20	-50.000
861.49	-250.000
861.79	500.000
862.08	77.419
862.38	5.263
862.67	-7.692
862.97	-30.000
863.26	8.333
863.56	-13.043
863.85	-16.667
864.15	7.143
864.44	0.000
864.74	-33.333
865.03	66.667
865.33	133.333
865.62	-1400.000
865.92	-200.000
866.21	-66.667
866.51	54.545
866.80	100.000
867.10	-171.429
867.39	-11.111
867.69	-83.333
867.98	-60.000
868.27	-100.000
868.57	350.000
868.86	-26.667
869.16	84.615
869.45	250.000
869.75	-166.667
870.04	-25.000
870.33	64.706
870.63	-114.286
870.92	86.957
871.22	-137.500
871.51	260.000
871.80	31.250
872.10	100.000
>>>>>End Processed Spectral Data<<<<<
