SpectraSuite Data File
++++++++++++++++++++++++++++++++++++
Date: Tue May 12 19:44:36 PDT 2015
User: schluterlab
Dark Spectrum Present: Yes
Reference Spectrum Present: Yes
Number of Sampled Component Spectra: 1
Spectrometers: USB2E3373
Integration Time (usec): 3000 (USB2E3373)
Spectra Averaged: 3 (USB2E3373)
Boxcar Smoothing: 0 (USB2E3373)
Correct for Electrical Dark: No (USB2E3373)
Strobe/Lamp Enabled: No (USB2E3373)
Correct for Detector Non-linearity: No (USB2E3373)
Correct for Stray Light: No (USB2E3373)
Number of Pixels in Processed Spectrum: 2048
>>>>>Begin Processed Spectral Data<<<<<
178.53	0.000
178.91	-10.000
179.29	-66.667
179.67	233.333
180.04	0.000
180.42	-60.000
180.80	-466.667
181.18	300.000
181.56	250.000
181.94	266.667
182.31	1100.000
182.69	-100.000
183.07	0.000
183.45	216.667
183.83	80.000
184.20	316.667
184.58	950.000
184.96	250.000
185.34	100.000
185.72	-57.143
186.09	-83.333
186.47	-1700.000
186.85	0.000
187.23	91.667
187.61	-228.571
187.98	-280.000
188.36	900.000
188.74	50.000
189.12	-144.444
189.49	20.000
189.87	375.000
190.25	122.222
190.63	366.667
191.00	280.000
191.38	-533.333
191.76	200.000
192.14	-85.714
192.51	-10.000
192.89	0.000
193.27	20.000
193.65	-266.667
194.02	-183.333
194.40	200.000
194.78	-125.000
195.15	-257.143
195.53	700.000
195.91	80.000
196.29	-425.000
196.66	-133.333
197.04	-128.571
197.42	-40.000
197.79	-187.500
198.17	-50.000
198.55	400.000
198.92	-111.111
199.30	500.000
199.68	-50.000
200.05	-800.000
200.43	-72.222
200.81	-108.333
201.18	316.667
201.56	-650.000
201.94	-100.000
202.31	-91.667
202.69	11.111
203.07	-66.667
203.44	-475.000
203.82	0.000
204.19	287.500
204.57	-366.667
204.95	172.727
205.32	200.000
205.70	475.000
206.08	-600.000
206.45	0.000
206.83	1700.000
207.20	-133.333
207.58	76.923
207.96	433.333
208.33	566.667
208.71	400.000
209.08	700.000
209.46	22.222
209.84	300.000
210.21	-233.333
210.59	250.000
210.96	233.333
211.34	-325.000
211.71	850.000
212.09	-100.000
212.46	12.500
212.84	-137.500
213.22	28.571
213.59	-100.000
213.97	0.000
214.34	-400.000
214.72	-1000.000
215.09	500.000
215.47	6.667
215.84	-50.000
216.22	-900.000
216.59	400.000
216.97	50.000
217.34	-50.000
217.72	16.667
218.09	200.000
218.47	-68.421
218.84	-112.500
219.22	0.000
219.59	-20.000
219.97	-110.000
220.34	283.333
220.72	63.636
221.09	-850.000
221.47	0.000
221.84	250.000
222.22	-75.000
222.59	-175.000
222.97	-13.043
223.34	140.000
223.72	214.286
224.09	-83.333
224.46	176.923
224.84	-33.333
225.21	150.000
225.59	-175.000
225.96	50.000
226.34	133.333
226.71	240.000
227.08	-84.615
227.46	-57.143
227.83	50.000
228.21	-700.000
228.58	133.333
228.95	0.000
229.33	12.500
229.70	-233.333
230.08	-33.333
230.45	-500.000
230.82	-600.000
231.20	-14.286
231.57	-120.000
231.95	-466.667
232.32	122.222
232.69	-400.000
233.07	-43.750
233.44	-62.500
233.81	29.032
234.19	-260.000
234.56	-11.111
234.93	-166.667
235.31	11.111
235.68	33.333
236.05	-7.692
236.43	-42.105
236.80	-4.545
237.17	-142.857
237.55	-35.000
237.92	16.279
238.29	29.032
238.67	28.571
239.04	34.286
239.41	-5.882
239.79	10.000
240.16	10.000
240.53	5.172
240.91	17.808
241.28	16.901
241.65	26.562
242.02	12.281
242.40	16.000
242.77	22.105
243.14	20.000
243.51	24.731
243.89	20.000
244.26	21.296
244.63	26.531
245.00	23.214
245.38	22.689
245.75	19.492
246.12	31.250
246.49	21.600
246.87	21.311
247.24	12.676
247.61	19.205
247.98	28.090
248.36	23.270
248.73	24.432
249.10	28.889
249.47	23.958
249.84	27.919
250.22	23.438
250.59	25.843
250.96	28.182
251.33	29.245
251.70	29.358
252.08	23.377
252.45	23.265
252.82	23.207
253.19	27.626
253.56	26.275
253.94	30.894
254.31	30.216
254.68	26.736
255.05	32.450
255.42	27.636
255.79	30.795
256.16	26.736
256.54	29.697
256.91	30.128
257.28	31.169
257.65	28.197
258.02	28.829
258.39	32.628
258.76	27.829
259.14	25.882
259.51	27.606
259.88	29.395
260.25	29.545
260.62	26.685
260.99	28.691
261.36	28.161
261.73	28.800
262.10	31.880
262.47	33.333
262.85	29.820
263.22	28.763
263.59	32.440
263.96	30.287
264.33	28.841
264.70	26.781
265.07	28.571
265.44	29.977
265.81	30.843
266.18	30.445
266.55	31.190
266.92	30.804
267.29	29.111
267.66	25.909
268.03	30.538
268.40	32.037
268.77	28.731
269.14	27.521
269.51	30.317
269.88	29.701
270.25	27.004
270.62	29.202
270.99	26.316
271.36	29.801
271.73	30.625
272.10	31.743
272.47	30.600
272.84	23.779
273.21	26.096
273.58	27.959
273.95	26.096
274.32	29.787
274.69	30.137
275.06	28.143
275.43	27.400
275.80	30.975
276.17	27.273
276.54	29.087
276.91	28.023
277.28	30.174
277.65	26.276
278.02	28.977
278.39	29.220
278.76	28.864
279.13	30.769
279.50	30.686
279.87	28.113
280.23	26.776
280.60	27.385
280.97	29.877
281.34	27.119
281.71	25.577
282.08	29.696
282.45	27.160
282.82	26.936
283.19	28.451
283.56	28.498
283.92	26.224
284.29	28.765
284.66	26.726
285.03	27.101
285.40	26.500
285.77	27.750
286.14	27.734
286.51	25.080
286.87	27.391
287.24	25.481
287.61	25.617
287.98	28.169
288.35	26.977
288.72	27.217
289.08	24.214
289.45	24.961
289.82	24.534
290.19	25.606
290.56	24.747
290.93	25.702
291.29	24.397
291.66	24.017
292.03	26.399
292.40	23.885
292.77	24.490
293.13	22.173
293.50	24.931
293.87	23.994
294.24	22.753
294.60	23.634
294.97	23.130
295.34	22.192
295.71	22.191
296.08	21.585
296.44	23.715
296.81	19.922
297.18	23.157
297.55	22.111
297.91	22.081
298.28	22.379
298.65	22.122
299.02	22.318
299.38	19.643
299.75	22.780
300.12	20.863
300.48	20.892
300.85	20.905
301.22	21.274
301.59	21.411
301.95	21.341
302.32	20.778
302.69	18.193
303.05	21.015
303.42	21.860
303.79	20.000
304.15	19.932
304.52	20.335
304.89	19.053
305.25	19.610
305.62	20.114
305.99	18.701
306.35	20.134
306.72	20.370
307.09	19.042
307.45	19.849
307.82	19.637
308.19	21.232
308.55	20.992
308.92	17.585
309.29	19.038
309.65	19.195
310.02	20.335
310.38	21.002
310.75	18.750
311.12	20.346
311.48	21.069
311.85	20.061
312.22	19.318
312.58	18.832
312.95	20.329
313.31	18.977
313.68	19.265
314.05	21.053
314.41	19.646
314.78	20.201
315.14	20.568
315.51	20.854
315.87	21.094
316.24	21.860
316.61	20.485
316.97	20.392
317.34	21.627
317.70	21.475
318.07	21.697
318.43	22.023
318.80	22.222
319.16	20.130
319.53	21.981
319.89	21.780
320.26	23.206
320.62	24.516
320.99	25.306
321.35	23.320
321.72	24.747
322.08	25.050
322.45	24.063
322.81	25.813
323.18	25.791
323.54	26.919
323.91	26.186
324.27	27.194
324.64	27.741
325.00	27.843
325.37	28.417
325.73	26.277
326.10	28.546
326.46	28.921
326.83	29.200
327.19	30.131
327.56	31.830
327.92	30.035
328.29	29.480
328.65	32.392
329.01	31.193
329.38	33.701
329.74	34.355
330.11	32.992
330.47	33.147
330.84	34.398
331.20	32.810
331.56	33.962
331.93	34.492
332.29	34.690
332.66	35.443
333.02	36.955
333.38	36.489
333.75	35.316
334.11	35.533
334.48	35.242
334.84	35.681
335.20	34.378
335.57	37.421
335.93	35.814
336.29	34.461
336.66	35.974
337.02	36.446
337.38	36.604
337.75	36.727
338.11	37.830
338.47	37.790
338.84	37.293
339.20	36.847
339.56	37.185
339.93	36.486
340.29	36.990
340.65	37.626
341.02	36.138
341.38	36.275
341.74	38.523
342.11	38.108
342.47	37.150
342.83	37.034
343.20	37.577
343.56	36.101
343.92	37.883
344.28	36.792
344.65	36.558
345.01	36.760
345.37	37.009
345.73	36.606
346.10	37.338
346.46	36.583
346.82	37.553
347.19	37.258
347.55	37.840
347.91	36.855
348.27	36.984
348.63	37.770
349.00	37.479
349.36	37.923
349.72	38.424
350.08	38.216
350.45	37.266
350.81	37.325
351.17	37.150
351.53	37.279
351.89	37.824
352.26	37.073
352.62	37.776
352.98	38.577
353.34	37.845
353.70	36.461
354.07	38.056
354.43	37.312
354.79	37.295
355.15	36.562
355.51	38.223
355.87	38.551
356.24	39.216
356.60	37.563
356.96	36.651
357.32	40.082
357.68	38.345
358.04	38.493
358.40	38.953
358.77	37.751
359.13	38.795
359.49	37.600
359.85	38.609
360.21	36.955
360.57	38.437
360.93	39.034
361.29	37.305
361.66	37.855
362.02	38.932
362.38	38.850
362.74	40.046
363.10	39.216
363.46	39.127
363.82	39.280
364.18	37.547
364.54	39.771
364.90	39.407
365.26	38.674
365.62	39.818
365.98	40.255
366.35	40.242
366.71	39.955
367.07	39.483
367.43	39.495
367.79	39.826
368.15	38.918
368.51	39.700
368.87	40.896
369.23	40.424
369.59	40.000
369.95	40.238
370.31	40.303
370.67	41.729
371.03	41.254
371.39	41.088
371.75	39.896
372.11	41.259
372.47	40.757
372.83	41.563
373.19	41.792
373.55	42.216
373.91	41.742
374.27	43.561
374.63	42.784
374.99	42.533
375.35	41.945
375.71	42.611
376.07	42.261
376.42	42.324
376.78	42.997
377.14	43.366
377.50	43.228
377.86	43.106
378.22	42.470
378.58	43.750
378.94	44.401
379.30	43.436
379.66	44.110
380.02	44.755
380.38	44.020
380.74	44.500
381.09	44.409
381.45	44.444
381.81	45.344
382.17	44.691
382.53	46.022
382.89	45.157
383.25	45.276
383.61	45.963
383.97	45.484
384.32	44.968
384.68	45.913
385.04	45.640
385.40	45.559
385.76	47.185
386.12	47.327
386.48	46.641
386.83	47.531
387.19	47.893
387.55	46.762
387.91	45.607
388.27	46.705
388.62	47.474
388.98	48.473
389.34	47.235
389.70	49.359
390.06	47.459
390.42	48.884
390.77	48.893
391.13	49.837
391.49	50.000
391.85	49.035
392.20	51.221
392.56	48.854
392.92	50.464
393.28	50.509
393.64	50.982
393.99	50.455
394.35	50.746
394.71	51.656
395.07	51.194
395.42	50.222
395.78	51.815
396.14	52.298
396.50	50.970
396.85	51.553
397.21	50.841
397.57	52.140
397.92	52.481
398.28	53.837
398.64	53.016
399.00	52.815
399.35	53.400
399.71	53.234
400.07	53.366
400.42	53.910
400.78	54.511
401.14	55.303
401.49	54.841
401.85	54.667
402.21	55.393
402.57	52.028
402.92	56.042
403.28	57.347
403.63	55.962
403.99	56.737
404.35	54.841
404.70	56.871
405.06	57.347
405.42	57.189
405.77	55.826
406.13	55.197
406.49	58.044
406.84	57.970
407.20	56.691
407.55	58.317
407.91	58.042
408.27	60.040
408.62	57.106
408.98	59.588
409.34	59.027
409.69	58.662
410.05	58.484
410.40	59.859
410.76	59.963
411.11	59.729
411.47	60.476
411.83	58.854
412.18	59.817
412.54	59.379
412.89	60.751
413.25	60.063
413.60	62.054
413.96	62.136
414.31	60.548
414.67	61.715
415.03	60.858
415.38	61.003
415.74	61.988
416.09	62.578
416.45	63.623
416.80	62.587
417.16	63.611
417.51	62.942
417.87	64.159
418.22	63.235
418.58	65.031
418.93	64.217
419.29	64.383
419.64	66.003
420.00	64.506
420.35	64.532
420.71	65.109
421.06	65.801
421.42	64.931
421.77	65.591
422.12	65.151
422.48	66.077
422.83	64.924
423.19	65.765
423.54	66.402
423.90	66.255
424.25	68.640
424.61	68.194
424.96	67.322
425.31	67.935
425.67	67.212
426.02	68.696
426.38	68.082
426.73	68.536
427.09	68.418
427.44	68.827
427.79	70.606
428.15	66.709
428.50	69.347
428.85	69.788
429.21	69.038
429.56	68.232
429.92	69.281
430.27	69.067
430.62	69.605
430.98	68.135
431.33	70.133
431.68	69.311
432.04	69.908
432.39	70.291
432.74	70.082
433.10	71.134
433.45	72.324
433.80	72.262
434.16	71.461
434.51	71.349
434.86	71.239
435.22	71.304
435.57	73.879
435.92	71.084
436.28	70.486
436.63	71.855
436.98	73.210
437.34	73.448
437.69	73.704
438.04	73.017
438.39	73.107
438.75	72.492
439.10	73.690
439.45	74.968
439.81	72.698
440.16	75.201
440.51	74.102
440.86	74.684
441.22	73.973
441.57	73.219
441.92	76.588
442.27	74.629
442.63	75.395
442.98	76.956
443.33	74.442
443.68	75.541
444.03	74.742
444.39	75.742
444.74	76.188
445.09	77.450
445.44	75.685
445.79	75.620
446.15	76.327
446.50	74.667
446.85	75.963
447.20	75.000
447.55	74.636
447.91	76.073
448.26	76.202
448.61	78.066
448.96	75.754
449.31	77.577
449.66	75.787
450.02	75.740
450.37	77.582
450.72	76.122
451.07	77.324
451.42	77.931
451.77	76.356
452.12	75.689
452.47	77.642
452.83	79.452
453.18	78.596
453.53	78.707
453.88	77.409
454.23	79.553
454.58	76.828
454.93	77.997
455.28	78.004
455.63	77.973
455.98	77.665
456.34	77.428
456.69	79.350
457.04	77.297
457.39	78.215
457.74	78.382
458.09	79.029
458.44	79.215
458.79	77.621
459.14	78.116
459.49	78.726
459.84	79.548
460.19	77.236
460.54	77.525
460.89	77.882
461.24	78.831
461.59	78.864
461.94	78.764
462.29	77.569
462.64	79.248
462.99	80.276
463.34	79.707
463.69	80.110
464.04	79.987
464.39	78.585
464.74	79.624
465.09	78.135
465.44	78.104
465.79	78.821
466.14	78.162
466.49	78.822
466.84	77.518
467.19	78.103
467.54	76.592
467.89	79.882
468.24	77.336
468.59	78.665
468.94	79.018
469.29	80.554
469.64	80.817
469.99	78.659
470.34	78.501
470.68	79.385
471.03	78.905
471.38	80.479
471.73	79.360
472.08	78.363
472.43	81.051
472.78	80.348
473.13	78.246
473.48	80.360
473.83	80.779
474.17	79.853
474.52	80.911
474.87	78.283
475.22	79.416
475.57	79.142
475.92	78.908
476.27	79.144
476.61	80.792
476.96	79.668
477.31	78.767
477.66	78.559
478.01	81.342
478.36	79.370
478.70	81.521
479.05	78.932
479.40	79.104
479.75	81.548
480.10	80.790
480.45	80.785
480.79	80.176
481.14	80.759
481.49	80.154
481.84	80.202
482.19	79.366
482.53	78.775
482.88	80.478
483.23	80.653
483.58	79.752
483.92	80.101
484.27	80.978
484.62	79.114
484.97	78.339
485.31	77.340
485.66	75.976
486.01	74.743
486.36	75.492
486.70	76.435
487.05	76.885
487.40	75.596
487.75	75.265
488.09	75.940
488.44	77.334
488.79	77.294
489.13	77.639
489.48	78.975
489.83	78.872
490.17	79.231
490.52	78.872
490.87	81.009
491.22	79.882
491.56	78.310
491.91	78.614
492.26	81.438
492.60	80.867
492.95	81.006
493.30	81.129
493.64	80.426
493.99	80.647
494.34	80.689
494.68	78.444
495.03	79.767
495.37	79.676
495.72	79.536
496.07	80.375
496.41	78.557
496.76	78.223
497.11	80.847
497.45	80.110
497.80	79.699
498.14	80.201
498.49	80.619
498.84	78.931
499.18	79.917
499.53	79.543
499.87	80.236
500.22	80.416
500.56	81.685
500.91	81.384
501.26	80.210
501.60	80.173
501.95	80.553
502.29	80.195
502.64	78.099
502.98	78.445
503.33	77.783
503.67	79.632
504.02	79.826
504.36	78.172
504.71	79.787
505.06	80.075
505.40	81.823
505.75	79.200
506.09	82.719
506.44	79.775
506.78	80.460
507.13	80.402
507.47	82.438
507.82	80.971
508.16	81.292
508.51	82.166
508.85	80.714
509.19	81.240
509.54	81.586
509.88	80.725
510.23	81.798
510.57	82.396
510.92	82.200
511.26	82.711
511.61	82.021
511.95	82.707
512.30	82.319
512.64	82.053
512.98	82.812
513.33	82.356
513.67	82.156
514.02	83.053
514.36	82.681
514.70	83.667
515.05	83.537
515.39	84.818
515.74	84.273
516.08	84.055
516.42	83.468
516.77	84.969
517.11	81.651
517.46	84.447
517.80	85.258
518.14	83.808
518.49	84.411
518.83	85.344
519.17	84.062
519.52	83.823
519.86	84.927
520.20	82.611
520.55	85.836
520.89	86.235
521.23	85.571
521.58	84.722
521.92	84.980
522.26	85.636
522.61	86.212
522.95	85.479
523.29	84.750
523.64	84.803
523.98	84.140
524.32	85.657
524.66	86.880
525.01	85.911
525.35	84.610
525.69	85.065
526.04	87.526
526.38	86.635
526.72	86.806
527.06	87.764
527.41	87.739
527.75	86.648
528.09	85.785
528.43	84.904
528.78	84.556
529.12	83.288
529.46	84.518
529.80	85.773
530.15	85.754
530.49	86.541
530.83	87.563
531.17	87.641
531.51	87.152
531.86	85.084
532.20	84.848
532.54	86.043
532.88	86.255
533.22	86.494
533.57	84.552
533.91	85.616
534.25	85.404
534.59	87.208
534.93	84.889
535.27	84.108
535.62	84.943
535.96	86.113
536.30	83.786
536.64	86.481
536.98	86.504
537.32	86.384
537.66	84.384
538.01	86.009
538.35	84.800
538.69	84.430
539.03	84.571
539.37	84.709
539.71	86.232
540.05	87.192
540.39	85.330
540.73	85.495
541.07	85.735
541.42	83.464
541.76	84.029
542.10	83.429
542.44	85.838
542.78	84.751
543.12	83.610
543.46	85.022
543.80	83.417
544.14	85.305
544.48	82.035
544.82	84.244
545.16	85.725
545.50	84.934
545.84	83.760
546.18	83.970
546.52	85.703
546.86	84.927
547.20	84.848
547.54	84.534
547.88	81.197
548.22	82.208
548.56	84.778
548.90	81.474
549.24	83.333
549.58	83.532
549.92	82.782
550.26	83.243
550.60	85.726
550.94	84.841
551.28	84.472
551.62	88.452
551.96	85.703
552.30	83.178
552.64	81.968
552.98	82.318
553.32	82.500
553.66	82.322
554.00	83.320
554.34	86.172
554.68	83.892
555.02	84.365
555.36	83.797
555.69	81.322
556.03	81.818
556.37	82.446
556.71	81.976
557.05	84.609
557.39	83.534
557.73	82.154
558.07	82.316
558.41	82.522
558.75	83.817
559.08	86.553
559.42	84.197
559.76	83.235
560.10	84.923
560.44	80.998
560.78	82.044
561.12	81.893
561.45	83.036
561.79	79.222
562.13	79.985
562.47	83.180
562.81	81.577
563.15	79.316
563.48	79.476
563.82	81.004
564.16	80.261
564.50	79.226
564.84	79.802
565.17	80.472
565.51	79.451
565.85	79.225
566.19	80.585
566.52	82.007
566.86	79.986
567.20	80.838
567.54	79.770
567.88	77.973
568.21	77.902
568.55	76.457
568.89	77.033
569.23	75.050
569.56	75.908
569.90	75.418
570.24	73.483
570.57	74.266
570.91	73.399
571.25	72.899
571.59	71.967
571.92	71.566
572.26	70.688
572.60	71.584
572.93	71.578
573.27	70.376
573.61	70.474
573.95	70.891
574.28	69.683
574.62	68.284
574.96	68.918
575.29	69.076
575.63	68.695
575.97	68.638
576.30	69.144
576.64	67.723
576.98	69.405
577.31	69.063
577.65	68.440
577.98	67.401
578.32	67.132
578.66	67.255
578.99	68.570
579.33	67.988
579.67	67.736
580.00	67.394
580.34	67.972
580.67	67.777
581.01	67.049
581.35	66.427
581.68	66.584
582.02	66.610
582.35	66.686
582.69	67.036
583.02	65.969
583.36	66.235
583.70	66.841
584.03	66.778
584.37	67.970
584.70	67.660
585.04	65.599
585.37	66.471
585.71	65.282
586.04	66.986
586.38	67.039
586.72	66.824
587.05	66.223
587.39	66.552
587.72	66.574
588.06	66.050
588.39	66.930
588.73	67.114
589.06	67.249
589.40	66.702
589.73	67.203
590.07	67.906
590.40	67.497
590.73	66.597
591.07	68.745
591.40	68.936
591.74	68.750
592.07	68.434
592.41	69.025
592.74	67.746
593.08	66.905
593.41	66.335
593.75	66.936
594.08	67.036
594.41	67.219
594.75	66.797
595.08	66.108
595.42	64.626
595.75	66.023
596.09	66.813
596.42	65.074
596.75	66.818
597.09	67.071
597.42	66.682
597.75	67.495
598.09	65.309
598.42	67.487
598.76	66.849
599.09	66.008
599.42	64.437
599.76	65.555
600.09	66.350
600.42	63.828
600.76	65.166
601.09	65.961
601.42	64.130
601.76	64.976
602.09	64.600
602.42	66.479
602.76	65.183
603.09	66.449
603.42	66.397
603.76	65.254
604.09	66.541
604.42	65.436
604.76	65.952
605.09	65.612
605.42	65.877
605.75	65.190
606.09	65.467
606.42	65.879
606.75	64.920
607.09	66.278
607.42	65.397
607.75	63.545
608.08	65.996
608.42	65.422
608.75	66.483
609.08	64.816
609.41	66.045
609.75	65.350
610.08	65.116
610.41	66.463
610.74	64.762
611.07	64.675
611.41	64.347
611.74	64.853
612.07	65.290
612.40	65.237
612.73	65.567
613.07	64.885
613.40	65.497
613.73	64.490
614.06	64.520
614.39	65.612
614.72	65.289
615.06	64.466
615.39	64.434
615.72	63.550
616.05	64.522
616.38	65.125
616.71	63.806
617.05	64.573
617.38	64.258
617.71	65.839
618.04	66.229
618.37	65.337
618.70	65.421
619.03	67.585
619.36	66.274
619.69	65.708
620.03	67.429
620.36	66.969
620.69	66.149
621.02	66.587
621.35	67.915
621.68	69.667
622.01	69.251
622.34	65.745
622.67	68.381
623.00	66.257
623.33	66.299
623.66	67.968
623.99	68.102
624.32	66.481
624.65	66.875
624.99	65.547
625.32	66.430
625.65	65.572
625.98	67.917
626.31	68.658
626.64	66.757
626.97	68.658
627.30	68.148
627.63	68.930
627.96	68.250
628.29	68.069
628.62	69.485
628.95	68.743
629.28	69.835
629.61	68.966
629.94	69.295
630.26	69.874
630.59	70.262
630.92	68.282
631.25	71.397
631.58	70.465
631.91	68.907
632.24	70.888
632.57	71.819
632.90	69.619
633.23	72.903
633.56	70.440
633.89	71.504
634.22	69.872
634.55	72.405
634.88	70.013
635.20	73.699
635.53	72.765
635.86	73.913
636.19	71.078
636.52	72.642
636.85	69.361
637.18	70.337
637.51	70.054
637.83	70.950
638.16	71.550
638.49	71.182
638.82	72.433
639.15	70.143
639.48	71.470
639.81	73.323
640.13	72.588
640.46	74.646
640.79	71.473
641.12	73.023
641.45	71.384
641.77	69.904
642.10	72.964
642.43	73.737
642.76	77.061
643.09	73.010
643.41	75.806
643.74	72.396
644.07	71.605
644.40	74.007
644.73	74.033
645.05	76.527
645.38	76.346
645.71	75.382
646.04	73.048
646.36	76.894
646.69	75.242
647.02	75.977
647.35	75.000
647.67	76.754
648.00	74.757
648.33	73.796
648.66	72.727
648.98	66.441
649.31	70.224
649.64	73.666
649.96	70.270
650.29	69.735
650.62	71.985
650.94	70.055
651.27	73.218
651.60	72.658
651.92	71.565
652.25	71.511
652.58	70.557
652.90	66.548
653.23	70.384
653.56	67.361
653.88	69.343
654.21	69.943
654.54	70.544
654.86	69.424
655.19	68.871
655.52	63.920
655.84	55.500
656.17	52.712
656.49	71.068
656.82	81.140
657.15	65.032
657.47	49.702
657.80	36.263
658.13	30.827
658.45	51.957
658.78	50.477
659.10	49.765
659.43	50.959
659.75	50.640
660.08	54.194
660.41	55.874
660.73	59.557
661.06	64.909
661.38	67.944
661.71	72.867
662.03	71.296
662.36	71.838
662.68	71.223
663.01	73.798
663.33	72.877
663.66	72.727
663.98	72.616
664.31	73.902
664.63	67.202
664.96	69.834
665.28	70.213
665.61	70.794
665.93	69.816
666.26	67.329
666.58	69.954
666.91	69.321
667.23	70.936
667.56	69.383
667.88	73.684
668.21	70.812
668.53	73.858
668.86	69.643
669.18	69.797
669.50	68.895
669.83	69.000
670.15	67.500
670.48	68.170
670.80	71.320
671.13	67.229
671.45	70.153
671.77	69.807
672.10	67.253
672.42	63.347
672.75	63.883
673.07	64.486
673.39	63.619
673.72	65.083
674.04	65.532
674.37	65.589
674.69	68.458
675.01	68.605
675.34	62.745
675.66	65.238
675.98	66.162
676.31	68.514
676.63	65.464
676.95	66.187
677.28	67.079
677.60	69.674
677.92	68.421
678.25	66.357
678.57	65.197
678.89	61.927
679.22	64.220
679.54	65.479
679.86	65.096
680.18	59.623
680.51	62.628
680.83	62.292
681.15	68.192
681.48	61.702
681.80	63.913
682.12	65.739
682.44	62.069
682.77	64.773
683.09	64.706
683.41	61.905
683.73	64.070
684.06	65.228
684.38	64.748
684.70	64.896
685.02	63.203
685.34	59.414
685.67	58.103
685.99	61.078
686.31	60.075
686.63	60.583
686.96	60.976
687.28	60.370
687.60	61.602
687.92	62.447
688.24	62.316
688.56	60.220
688.89	62.329
689.21	59.070
689.53	65.217
689.85	65.063
690.17	59.804
690.49	61.647
690.82	60.934
691.14	66.841
691.46	59.000
691.78	62.201
692.10	63.303
692.42	62.156
692.74	63.744
693.06	61.928
693.39	58.867
693.71	54.186
694.03	55.556
694.35	61.386
694.67	57.506
694.99	61.456
695.31	62.890
695.63	58.649
695.95	64.045
696.27	65.722
696.59	63.205
696.91	59.259
697.23	60.745
697.56	59.845
697.88	58.782
698.20	58.596
698.52	59.615
698.84	58.145
699.16	55.937
699.48	59.424
699.80	59.066
700.12	61.157
700.44	55.457
700.76	58.675
701.08	58.413
701.40	61.513
701.72	63.000
702.04	63.265
702.36	58.361
702.68	61.074
703.00	59.937
703.32	55.389
703.64	58.991
703.96	62.975
704.28	60.915
704.60	60.959
704.91	50.987
705.23	61.053
705.55	63.197
705.87	62.950
706.19	66.135
706.51	60.547
706.83	62.271
707.15	58.983
707.47	59.281
707.79	56.734
708.11	55.026
708.43	58.133
708.74	56.284
709.06	59.816
709.38	55.490
709.70	55.519
710.02	61.189
710.34	52.837
710.66	60.674
710.98	59.790
711.29	57.388
711.61	57.092
711.93	62.547
712.25	60.000
712.57	59.375
712.89	61.224
713.20	56.048
713.52	54.472
713.84	58.759
714.16	56.081
714.48	56.655
714.80	59.259
715.11	52.234
715.43	58.020
715.75	54.386
716.07	60.727
716.39	54.608
716.70	60.000
717.02	53.629
717.34	62.771
717.66	61.818
717.97	58.333
718.29	57.778
718.61	57.658
718.93	57.143
719.24	56.904
719.56	62.500
719.88	52.941
720.20	51.709
720.51	57.456
720.83	55.230
721.15	55.510
721.46	53.165
721.78	59.307
722.10	55.039
722.42	58.261
722.73	51.584
723.05	58.525
723.37	57.014
723.68	59.716
724.00	51.389
724.32	58.411
724.63	52.941
724.95	58.904
725.27	56.808
725.58	53.425
725.90	46.396
726.22	55.459
726.53	55.738
726.85	48.519
727.16	55.466
727.48	50.000
727.80	56.621
728.11	56.000
728.43	53.909
728.74	53.947
729.06	46.725
729.38	55.814
729.69	52.400
730.01	51.046
730.32	49.004
730.64	54.231
730.96	50.579
731.27	55.212
731.59	48.822
731.90	46.711
732.22	51.163
732.53	50.526
732.85	45.775
733.16	56.044
733.48	50.000
733.80	52.727
734.11	46.809
734.43	57.762
734.74	47.040
735.06	53.055
735.37	47.284
735.69	48.239
736.00	50.741
736.32	50.350
736.63	50.370
736.95	50.195
737.26	45.652
737.58	48.905
737.89	52.075
738.21	50.382
738.52	54.508
738.83	50.855
739.15	47.727
739.46	48.198
739.78	49.035
740.09	52.778
740.41	53.409
740.72	46.215
741.04	49.407
741.35	48.879
741.66	60.215
741.98	44.898
742.29	53.368
742.61	43.931
742.92	59.804
743.23	59.204
743.55	47.668
743.86	54.589
744.18	47.000
744.49	56.111
744.80	51.613
745.12	48.205
745.43	45.989
745.74	45.989
746.06	58.621
746.37	55.000
746.68	51.892
747.00	51.934
747.31	53.927
747.62	54.211
747.94	52.358
748.25	57.143
748.56	52.020
748.88	49.727
749.19	49.223
749.50	57.647
749.82	59.500
750.13	53.398
750.44	45.923
750.75	47.200
751.07	46.025
751.38	48.828
751.69	50.000
752.01	49.160
752.32	47.521
752.63	49.345
752.94	44.400
753.26	43.836
753.57	48.341
753.88	43.721
754.19	44.934
754.51	42.678
754.82	43.333
755.13	46.903
755.44	52.814
755.75	45.382
756.07	50.644
756.38	48.536
756.69	49.434
757.00	45.390
757.31	44.983
757.63	42.810
757.94	40.000
758.25	45.238
758.56	43.514
758.87	40.774
759.18	46.106
759.50	45.196
759.81	45.560
760.12	43.060
760.43	47.841
760.74	43.413
761.05	44.872
761.36	46.291
761.67	43.161
761.99	46.488
762.30	39.273
762.61	48.374
762.92	50.222
763.23	50.233
763.54	48.223
763.85	45.249
764.16	36.957
764.47	43.478
764.78	45.565
765.10	43.307
765.41	41.806
765.72	44.147
766.03	43.144
766.34	41.667
766.65	42.969
766.96	43.111
767.27	46.369
767.58	52.201
767.89	50.649
768.20	45.270
768.51	45.977
768.82	43.125
769.13	47.685
769.44	43.868
769.75	37.255
770.06	44.175
770.37	46.277
770.68	42.564
770.99	43.655
771.30	46.392
771.61	37.668
771.92	45.755
772.23	42.788
772.54	43.529
772.85	51.370
773.16	45.806
773.47	45.860
773.78	47.904
774.09	46.053
774.39	52.206
774.70	47.368
775.01	47.692
775.32	51.587
775.63	38.583
775.94	50.943
776.25	37.778
776.56	45.455
776.87	41.880
777.18	50.000
777.48	41.346
777.79	40.741
778.10	46.226
778.41	44.118
778.72	42.453
779.03	52.632
779.34	40.336
779.65	38.028
779.95	46.043
780.26	40.323
780.57	46.377
780.88	32.110
781.19	49.074
781.50	36.066
781.80	35.766
782.11	33.974
782.42	31.724
782.73	40.559
783.04	39.200
783.34	39.200
783.65	40.650
783.96	36.066
784.27	38.655
784.57	38.318
784.88	33.929
785.19	36.082
785.50	44.211
785.81	40.000
786.11	36.634
786.42	34.118
786.73	45.833
787.04	45.918
787.34	41.667
787.65	39.623
787.96	41.237
788.26	37.624
788.57	43.478
788.88	31.193
789.19	42.149
789.49	40.000
789.80	40.517
790.11	30.488
790.41	49.438
790.72	27.907
791.03	39.535
791.33	38.961
791.64	46.341
791.95	42.683
792.25	22.892
792.56	29.630
792.87	22.535
793.17	43.373
793.48	45.882
793.79	52.500
794.09	30.000
794.40	38.043
794.70	40.000
795.01	33.945
795.32	31.496
795.62	38.235
795.93	40.196
796.23	42.424
796.54	33.721
796.85	21.739
797.15	28.125
797.46	22.034
797.76	40.984
798.07	28.947
798.37	37.097
798.68	34.375
798.99	47.692
799.29	54.545
799.60	31.884
799.90	40.000
800.21	28.070
800.51	24.138
800.82	33.962
801.12	23.529
801.43	30.645
801.73	43.548
802.04	32.000
802.34	26.415
802.65	36.842
802.95	40.000
803.26	39.623
803.56	32.787
803.87	44.000
804.17	12.963
804.48	44.231
804.78	28.571
805.09	48.936
805.39	47.458
805.70	37.500
806.00	30.357
806.30	52.542
806.61	26.154
806.91	32.308
807.22	13.158
807.52	18.571
807.83	29.310
808.13	40.506
808.43	24.590
808.74	57.377
809.04	43.243
809.35	24.074
809.65	26.786
809.95	42.373
810.26	-6.122
810.56	35.849
810.86	47.059
811.17	18.919
811.47	25.926
811.77	21.569
812.08	6.818
812.38	25.000
812.69	30.769
812.99	26.190
813.29	30.435
813.59	5.714
813.90	45.238
814.20	27.273
814.50	32.653
814.81	13.725
815.11	33.333
815.41	14.634
815.72	-7.692
816.02	34.043
816.32	50.000
816.62	27.273
816.93	18.182
817.23	21.622
817.53	55.882
817.84	40.000
818.14	-2.941
818.44	40.625
818.74	-9.524
819.04	14.286
819.35	34.286
819.65	45.455
819.95	25.641
820.25	22.222
820.56	-27.586
820.86	39.286
821.16	-34.783
821.46	26.190
821.76	42.593
822.07	56.522
822.37	20.408
822.67	2.326
822.97	-39.130
823.27	-19.231
823.57	25.926
823.88	32.143
824.18	15.385
824.48	21.429
824.78	30.303
825.08	-46.667
825.38	20.000
825.69	-33.333
825.99	3.704
826.29	15.556
826.59	11.111
826.89	44.444
827.19	-3.571
827.49	-9.091
827.79	-45.455
828.09	22.727
828.39	-47.826
828.70	7.407
829.00	3.571
829.30	19.048
829.60	3.226
829.90	-38.462
830.20	5.128
830.50	4.545
830.80	0.000
831.10	27.778
831.40	-57.143
831.70	14.815
832.00	70.588
832.30	52.174
832.60	45.833
832.90	18.182
833.20	5.556
833.50	34.375
833.80	26.923
834.10	76.000
834.40	37.500
834.70	-13.636
835.00	80.769
835.30	45.000
835.60	-70.000
835.90	25.000
836.20	-7.143
836.50	26.087
836.80	38.889
837.10	73.333
837.40	-100.000
837.70	4.348
838.00	0.000
838.30	900.000
838.60	48.000
838.90	-300.000
839.19	88.889
839.49	-800.000
839.79	41.176
840.09	11.111
840.39	3.571
840.69	5.556
840.99	-50.000
841.29	31.034
841.59	6.667
841.88	36.364
842.18	-133.333
842.48	93.750
842.78	19.231
843.08	-47.059
843.38	-30.000
843.68	-46.154
843.97	-23.529
844.27	130.000
844.57	37.500
844.87	9.091
845.17	-5.263
845.47	-66.667
845.76	22.222
846.06	-61.905
846.36	-7.143
846.66	-33.333
846.96	25.000
847.25	-20.000
847.55	25.000
847.85	-60.000
848.15	-225.000
848.44	-10.526
848.74	-6.667
849.04	-36.842
849.34	-333.333
849.63	-83.333
849.93	-41.176
850.23	-45.455
850.53	-133.333
850.82	-220.000
851.12	-22.222
851.42	157.143
851.71	-160.000
852.01	-21.429
852.31	-266.667
852.61	-53.846
852.90	-80.000
853.20	-66.667
853.50	-177.778
853.79	-120.000
854.09	-15.000
854.39	-31.579
854.68	-40.000
854.98	0.000
855.28	72.222
855.57	-50.000
855.87	5.263
856.17	-87.500
856.46	11.538
856.76	-60.000
857.05	-12.500
857.35	41.667
857.65	-27.778
857.94	-25.000
858.24	-43.478
858.53	-20.000
858.83	66.667
859.13	-172.727
859.42	-180.000
859.72	266.667
860.01	-76.923
860.31	-70.000
860.60	-87.500
860.90	-250.000
861.20	-266.667
861.49	25.000
861.79	450.000
862.08	35.484
862.38	-36.842
862.67	-69.231
862.97	-100.000
863.26	-8.333
863.56	-4.348
863.85	-216.667
864.15	21.429
864.44	-18.750
864.74	-91.667
865.03	-55.556
865.33	33.333
865.62	-700.000
865.92	-400.000
866.21	-183.333
866.51	45.455
866.80	-200.000
867.10	-85.714
867.39	-100.000
867.69	-16.667
867.98	60.000
868.27	-400.000
868.57	225.000
868.86	-13.333
869.16	-23.077
869.45	450.000
869.75	-133.333
870.04	-75.000
870.33	29.412
870.63	-142.857
870.92	65.217
871.22	-200.000
871.51	440.000
871.80	-12.500
872.10	-433.333
>>>>>End Processed Spectral Data<<<<<
