SpectraSuite Data File
++++++++++++++++++++++++++++++++++++
Date: Tue May 12 20:00:04 PDT 2015
User: schluterlab
Dark Spectrum Present: Yes
Reference Spectrum Present: Yes
Number of Sampled Component Spectra: 1
Spectrometers: USB2E3373
Integration Time (usec): 3000 (USB2E3373)
Spectra Averaged: 3 (USB2E3373)
Boxcar Smoothing: 0 (USB2E3373)
Correct for Electrical Dark: No (USB2E3373)
Strobe/Lamp Enabled: No (USB2E3373)
Correct for Detector Non-linearity: No (USB2E3373)
Correct for Stray Light: No (USB2E3373)
Number of Pixels in Processed Spectrum: 2048
>>>>>Begin Processed Spectral Data<<<<<
178.53	0.000
178.91	-120.000
179.29	-266.667
179.67	666.667
180.04	0.000
180.42	-300.000
180.80	-433.333
181.18	1250.000
181.56	-900.000
181.94	416.667
182.31	2400.000
182.69	-185.714
183.07	0.000
183.45	158.333
183.83	400.000
184.20	416.667
184.58	1200.000
184.96	366.667
185.34	-600.000
185.72	-128.571
186.09	-333.333
186.47	-900.000
186.85	-360.000
187.23	183.333
187.61	-228.571
187.98	-340.000
188.36	1250.000
188.74	-375.000
189.12	-188.889
189.49	-250.000
189.87	725.000
190.25	288.889
190.63	766.667
191.00	540.000
191.38	-833.333
191.76	540.000
192.14	-271.429
192.51	-200.000
192.89	-240.000
193.27	-280.000
193.65	-566.667
194.02	-383.333
194.40	1700.000
194.78	-200.000
195.15	-171.429
195.53	33.333
195.91	380.000
196.29	-775.000
196.66	-633.333
197.04	-271.429
197.42	460.000
197.79	-162.500
198.17	-150.000
198.55	-600.000
198.92	-222.222
199.30	1150.000
199.68	-625.000
200.05	-900.000
200.43	-61.111
200.81	-116.667
201.18	366.667
201.56	-1200.000
201.94	-1500.000
202.31	-158.333
202.69	-100.000
203.07	-175.000
203.44	-700.000
203.82	0.000
204.19	412.500
204.57	-833.333
204.95	145.455
205.32	300.000
205.70	475.000
206.08	-1400.000
206.45	-240.000
206.83	1900.000
207.20	-277.778
207.58	-146.154
207.96	533.333
208.33	766.667
208.71	833.333
209.08	650.000
209.46	-122.222
209.84	900.000
210.21	-900.000
210.59	550.000
210.96	266.667
211.34	-500.000
211.71	1600.000
212.09	-440.000
212.46	-325.000
212.84	-187.500
213.22	185.714
213.59	-237.500
213.97	0.000
214.34	-1050.000
214.72	-1700.000
215.09	1050.000
215.47	-66.667
215.84	-87.500
216.22	-1500.000
216.59	2600.000
216.97	-125.000
217.34	-300.000
217.72	-77.778
218.09	325.000
218.47	-94.737
218.84	-275.000
219.22	-85.714
219.59	-200.000
219.97	-150.000
220.34	350.000
220.72	209.091
221.09	-1400.000
221.47	0.000
221.84	850.000
222.22	-325.000
222.59	-625.000
222.97	0.000
223.34	213.333
223.72	300.000
224.09	-250.000
224.46	207.692
224.84	-60.000
225.21	-1000.000
225.59	-500.000
225.96	-5.000
226.34	466.667
226.71	220.000
227.08	-84.615
227.46	-257.143
227.83	-125.000
228.21	-1050.000
228.58	400.000
228.95	-84.211
229.33	-43.750
229.70	-366.667
230.08	-111.111
230.45	-533.333
230.82	-1900.000
231.20	-66.667
231.57	-440.000
231.95	-666.667
232.32	322.222
232.69	-1450.000
233.07	-18.750
233.44	-200.000
233.81	-16.129
234.19	-480.000
234.56	-94.444
234.93	-366.667
235.31	-44.444
235.68	-51.852
236.05	-61.538
236.43	-89.474
236.80	-27.273
237.17	-135.714
237.55	-85.000
237.92	-9.302
238.29	-32.258
238.67	-39.286
239.04	-20.000
239.41	-29.412
239.79	-10.000
240.16	-22.500
240.53	-25.862
240.91	-12.329
241.28	-11.268
241.65	10.938
242.02	-14.035
242.40	-4.000
242.77	8.421
243.14	20.000
243.51	1.075
243.89	0.952
244.26	2.778
244.63	3.061
245.00	0.893
245.38	-5.882
245.75	9.322
246.12	2.344
246.49	15.200
246.87	8.197
247.24	11.972
247.61	13.245
247.98	10.674
248.36	13.836
248.73	11.364
249.10	8.333
249.47	15.104
249.84	14.213
250.22	13.542
250.59	8.427
250.96	15.000
251.33	15.566
251.70	14.679
252.08	18.182
252.45	13.878
252.82	11.814
253.19	13.619
253.56	18.039
253.94	16.667
254.31	19.065
254.68	14.583
255.05	17.550
255.42	18.545
255.79	21.523
256.16	19.792
256.54	17.273
256.91	17.308
257.28	19.481
257.65	15.410
258.02	15.916
258.39	16.918
258.76	19.266
259.14	15.294
259.51	21.408
259.88	19.020
260.25	17.045
260.62	15.169
260.99	20.891
261.36	20.115
261.73	22.667
262.10	18.529
262.47	20.661
262.85	20.051
263.22	18.011
263.59	18.767
263.96	17.493
264.33	14.825
264.70	18.428
265.07	18.473
265.44	18.267
265.81	25.301
266.18	20.843
266.55	20.000
266.92	19.196
267.29	20.222
267.66	15.909
268.03	20.215
268.40	21.510
268.77	20.490
269.14	17.227
269.51	19.683
269.88	20.299
270.25	18.354
270.62	19.748
270.99	20.632
271.36	17.660
271.73	20.000
272.10	19.917
272.47	18.400
272.84	18.259
273.21	20.668
273.58	18.367
273.95	19.920
274.32	22.050
274.69	18.591
275.06	19.512
275.43	19.000
275.80	20.650
276.17	18.972
276.54	20.152
276.91	21.113
277.28	20.503
277.65	20.416
278.02	20.265
278.39	21.053
278.76	21.229
279.13	23.077
279.50	18.592
279.87	20.377
280.23	21.129
280.60	17.668
280.97	20.914
281.34	20.339
281.71	18.828
282.08	19.141
282.45	19.577
282.82	18.182
283.19	20.034
283.56	22.355
283.92	19.747
284.29	19.459
284.66	17.699
285.03	16.638
285.40	20.500
285.77	20.525
286.14	19.651
286.51	19.614
286.87	18.476
287.24	18.910
287.61	19.444
287.98	19.875
288.35	20.930
288.72	18.807
289.08	18.082
289.45	18.877
289.82	18.168
290.19	18.485
290.56	18.090
290.93	18.464
291.29	18.440
291.66	17.556
292.03	18.508
292.40	17.554
292.77	17.930
293.13	17.915
293.50	19.008
293.87	18.863
294.24	19.944
294.60	18.033
294.97	16.620
295.34	15.342
295.71	16.227
296.08	16.393
296.44	17.655
296.81	15.524
297.18	17.206
297.55	17.211
297.91	17.132
298.28	14.578
298.65	14.748
299.02	16.769
299.38	15.816
299.75	15.701
300.12	15.468
300.48	15.023
300.85	15.526
301.22	16.226
301.59	17.153
301.95	16.098
302.32	16.403
302.69	15.101
303.05	15.939
303.42	15.217
303.79	15.730
304.15	14.836
304.52	15.978
304.89	15.671
305.25	15.138
305.62	15.568
305.99	14.446
306.35	16.331
306.72	15.904
307.09	15.016
307.45	14.995
307.82	14.514
308.19	16.612
308.55	15.506
308.92	15.784
309.29	15.795
309.65	14.654
310.02	14.570
310.38	16.525
310.75	16.189
311.12	15.361
311.48	15.622
311.85	13.576
312.22	15.393
312.58	14.904
312.95	16.222
313.31	16.028
313.68	15.492
314.05	16.683
314.41	16.012
314.78	14.472
315.14	15.671
315.51	16.882
315.87	16.992
316.24	15.925
316.61	16.505
316.97	15.882
317.34	16.555
317.70	17.087
318.07	17.261
318.43	17.202
318.80	17.486
319.16	17.241
319.53	17.830
319.89	17.235
320.26	18.781
320.62	19.089
320.99	19.694
321.35	20.356
321.72	21.010
322.08	21.485
322.45	22.288
322.81	22.759
323.18	22.435
323.54	22.180
323.91	22.581
324.27	22.179
324.64	22.774
325.00	22.293
325.37	23.921
325.73	24.361
326.10	24.518
326.46	26.836
326.83	26.121
327.19	26.288
327.56	30.327
327.92	27.517
328.29	29.659
328.65	29.944
329.01	29.633
329.38	29.385
329.74	30.362
330.11	29.264
330.47	30.726
330.84	30.169
331.20	31.793
331.56	30.472
331.93	31.930
332.29	31.360
332.66	31.103
333.02	32.962
333.38	33.364
333.75	32.754
334.11	33.454
334.48	32.290
334.84	33.146
335.20	31.603
335.57	33.061
335.93	32.744
336.29	32.907
336.66	32.058
337.02	33.817
337.38	32.830
337.75	33.727
338.11	33.820
338.47	34.076
338.84	33.886
339.20	34.830
339.56	34.110
339.93	34.234
340.29	34.270
340.65	33.516
341.02	33.304
341.38	34.245
341.74	34.875
342.11	35.809
342.47	34.091
342.83	33.131
343.20	33.510
343.56	33.042
343.92	34.733
344.28	33.019
344.65	34.332
345.01	34.408
345.37	32.650
345.73	32.644
346.10	33.708
346.46	32.873
346.82	33.220
347.19	32.885
347.55	34.694
347.91	33.497
348.27	33.530
348.63	33.967
349.00	35.643
349.36	34.460
349.72	34.154
350.08	34.043
350.45	33.442
350.81	35.178
351.17	33.031
351.53	33.736
351.89	34.197
352.26	33.659
352.62	34.669
352.98	34.226
353.34	35.422
353.70	32.346
354.07	34.761
354.43	32.638
354.79	34.426
355.15	33.656
355.51	34.556
355.87	34.555
356.24	34.804
356.60	33.472
356.96	33.728
357.32	35.556
357.68	34.527
358.04	36.062
358.40	35.106
358.77	33.655
359.13	34.538
359.49	33.200
359.85	32.614
360.21	34.338
360.57	34.689
360.93	34.283
361.29	34.579
361.66	34.148
362.02	35.557
362.38	35.043
362.74	36.972
363.10	35.219
363.46	35.892
363.82	34.533
364.18	35.806
364.54	34.504
364.90	35.778
365.26	35.320
365.62	36.639
365.98	35.682
366.35	36.157
366.71	36.221
367.07	35.867
367.43	35.307
367.79	35.102
368.15	36.249
368.51	35.805
368.87	35.977
369.23	35.882
369.59	35.588
369.95	34.128
370.31	35.985
370.67	35.564
371.03	36.068
371.39	37.689
371.75	35.736
372.11	36.593
372.47	36.451
372.83	36.596
373.19	35.768
373.55	37.051
373.91	36.591
374.27	36.497
374.63	37.555
374.99	37.994
375.35	37.663
375.71	39.168
376.07	36.396
376.42	36.791
376.78	35.958
377.14	37.570
377.50	37.551
377.86	39.067
378.22	38.243
378.58	38.684
378.94	38.441
379.30	37.516
379.66	38.604
380.02	39.606
380.38	38.550
380.74	39.466
381.09	38.945
381.45	38.857
381.81	38.839
382.17	39.414
382.53	39.053
382.89	38.550
383.25	38.237
383.61	38.525
383.97	40.026
384.32	38.968
384.68	40.166
385.04	40.229
385.40	39.105
385.76	39.342
386.12	40.000
386.48	39.987
386.83	40.619
387.19	40.038
387.55	40.285
387.91	39.502
388.27	40.755
388.62	40.350
388.98	41.794
389.34	39.948
389.70	40.962
390.06	41.320
390.42	41.176
390.77	41.985
391.13	42.160
391.49	42.251
391.85	41.384
392.20	42.508
392.56	41.388
392.92	42.177
393.28	41.652
393.64	43.255
393.99	42.727
394.35	42.894
394.71	42.252
395.07	42.374
395.42	42.476
395.78	42.204
396.14	42.239
396.50	42.691
396.85	42.564
397.21	41.656
397.57	42.857
397.92	42.621
398.28	43.345
398.64	42.921
399.00	43.471
399.35	43.962
399.71	42.275
400.07	43.916
400.42	43.077
400.78	45.042
401.14	43.750
401.49	43.598
401.85	44.698
402.21	44.924
402.57	43.335
402.92	45.153
403.28	45.059
403.63	44.167
403.99	43.593
404.35	45.860
404.70	45.028
405.06	44.637
405.42	45.608
405.77	45.303
406.13	43.907
406.49	45.868
406.84	45.953
407.20	45.663
407.55	45.224
407.91	46.014
408.27	46.742
408.62	45.273
408.98	46.654
409.34	45.967
409.69	44.749
410.05	44.106
410.40	46.757
410.76	46.638
411.11	46.348
411.47	47.007
411.83	46.169
412.18	46.401
412.54	46.572
412.89	46.503
413.25	46.834
413.60	47.321
413.96	47.443
414.31	47.737
414.67	48.751
415.03	47.994
415.38	47.772
415.74	47.347
416.09	47.553
416.45	47.912
416.80	47.427
417.16	49.224
417.51	47.398
417.87	48.016
418.22	47.928
418.58	48.860
418.93	48.614
419.29	49.389
419.64	50.206
420.00	49.181
420.35	49.215
420.71	49.808
421.06	49.968
421.42	49.247
421.77	50.548
422.12	48.258
422.48	49.286
422.83	49.909
423.19	50.294
423.54	49.420
423.90	50.062
424.25	50.816
424.61	52.129
424.96	50.737
425.31	50.845
425.67	51.636
426.02	51.863
426.38	50.193
426.73	51.340
427.09	52.856
427.44	51.481
427.79	51.980
428.15	51.110
428.50	51.068
428.85	52.213
429.21	52.540
429.56	51.657
429.92	51.758
430.27	50.240
430.62	52.244
430.98	52.230
431.33	52.836
431.68	52.243
432.04	53.452
432.39	52.347
432.74	52.245
433.10	52.577
433.45	53.008
433.80	53.631
434.16	52.647
434.51	53.233
434.86	53.656
435.22	53.958
435.57	54.815
435.92	51.517
436.28	52.927
436.63	52.415
436.98	53.519
437.34	54.894
437.69	53.519
438.04	54.147
438.39	55.679
438.75	53.477
439.10	55.833
439.45	55.520
439.81	54.159
440.16	54.978
440.51	53.346
440.86	55.619
441.22	54.616
441.57	54.530
441.92	56.046
442.27	56.229
442.63	56.772
442.98	57.090
443.33	55.817
443.68	55.130
444.03	55.567
444.39	55.648
444.74	56.382
445.09	57.025
445.44	55.569
445.79	56.742
446.15	57.143
446.50	56.160
446.85	56.381
447.20	56.455
447.55	56.835
447.91	56.908
448.26	57.567
448.61	57.523
448.96	56.535
449.31	56.480
449.66	56.901
450.02	56.450
450.37	59.052
450.72	57.391
451.07	57.680
451.42	58.366
451.77	57.503
452.12	55.639
452.47	58.333
452.83	58.344
453.18	59.419
453.53	60.549
453.88	59.285
454.23	58.722
454.58	59.465
454.93	57.902
455.28	58.384
455.63	59.649
455.98	59.518
456.34	59.745
456.69	59.851
457.04	59.646
457.39	59.488
457.74	58.850
458.09	58.370
458.44	58.798
458.79	58.186
459.14	58.617
459.49	60.127
459.84	60.404
460.19	59.162
460.54	57.828
460.89	59.824
461.24	60.779
461.59	60.568
461.94	60.487
462.29	58.396
462.64	60.585
462.99	61.711
463.34	61.685
463.69	61.934
464.04	60.744
464.39	62.122
464.74	59.507
465.09	61.093
465.44	60.288
465.79	60.229
466.14	59.666
466.49	60.857
466.84	60.012
467.19	61.144
467.54	59.549
467.89	60.483
468.24	60.669
468.59	60.668
468.94	61.264
469.29	62.907
469.64	62.947
469.99	60.923
470.34	61.740
470.68	61.846
471.03	60.730
471.38	62.229
471.73	61.773
472.08	60.854
472.43	62.794
472.78	61.276
473.13	62.246
473.48	62.794
473.83	62.153
474.17	62.175
474.52	62.693
474.87	61.301
475.22	63.024
475.57	62.456
475.92	62.933
476.27	62.327
476.61	63.357
476.96	63.485
477.31	63.128
477.66	63.684
478.01	62.802
478.36	63.840
478.70	63.887
479.05	63.726
479.40	62.852
479.75	64.778
480.10	63.853
480.45	63.665
480.79	64.141
481.14	64.101
481.49	63.290
481.84	64.949
482.19	64.293
482.53	63.088
482.88	64.108
483.23	65.025
483.58	63.317
483.92	62.663
484.27	63.020
484.62	64.592
484.97	62.434
485.31	62.606
485.66	61.805
486.01	60.786
486.36	61.010
486.70	62.631
487.05	63.624
487.40	61.791
487.75	61.208
488.09	60.777
488.44	62.093
488.79	61.812
489.13	63.799
489.48	64.399
489.83	63.708
490.17	65.307
490.52	65.392
490.87	65.282
491.22	65.138
491.56	65.069
491.91	65.562
492.26	66.446
492.60	65.867
492.95	66.786
493.30	66.231
493.64	67.241
493.99	66.119
494.34	67.258
494.68	65.015
495.03	66.075
495.37	65.687
495.72	67.985
496.07	66.075
496.41	66.008
496.76	65.712
497.11	66.273
497.45	67.604
497.80	67.342
498.14	66.948
498.49	67.859
498.84	65.514
499.18	66.943
499.53	68.017
499.87	67.742
500.22	67.688
500.56	68.289
500.91	67.069
501.26	67.402
501.60	67.737
501.95	68.066
502.29	67.470
502.64	66.451
502.98	66.734
503.33	66.151
503.67	67.483
504.02	67.978
504.36	66.718
504.71	68.351
505.06	67.916
505.40	68.472
505.75	67.562
506.09	69.177
506.44	68.240
506.78	68.201
507.13	68.947
507.47	69.363
507.82	67.857
508.16	68.207
508.51	68.545
508.85	68.901
509.19	67.800
509.54	69.462
509.88	70.196
510.23	70.225
510.57	69.392
510.92	69.615
511.26	69.673
511.61	71.005
511.95	71.082
512.30	70.087
512.64	70.557
512.98	69.876
513.33	68.933
513.67	70.120
514.02	71.154
514.36	70.700
514.70	71.645
515.05	72.378
515.39	71.832
515.74	72.682
516.08	70.935
516.42	73.586
516.77	72.484
517.11	72.477
517.46	72.767
517.80	73.006
518.14	71.980
518.49	73.739
518.83	73.476
519.17	72.494
519.52	72.330
519.86	74.478
520.20	72.484
520.55	73.433
520.89	74.359
521.23	72.745
521.58	73.545
521.92	73.832
522.26	75.052
522.61	75.290
522.95	74.041
523.29	74.831
523.64	74.627
523.98	73.858
524.32	75.354
524.66	75.663
525.01	75.533
525.35	74.829
525.69	74.880
526.04	76.321
526.38	75.600
526.72	76.389
527.06	76.231
527.41	75.974
527.75	76.238
528.09	74.965
528.43	75.478
528.78	77.009
529.12	75.000
529.46	74.352
529.80	74.745
530.15	75.747
530.49	75.453
530.83	74.765
531.17	76.624
531.51	77.016
531.86	75.140
532.20	74.170
532.54	74.820
532.88	77.455
533.22	75.216
533.57	75.448
533.91	76.600
534.25	74.474
534.59	74.828
534.93	74.614
535.27	74.411
535.62	76.232
535.96	75.785
536.30	74.878
536.64	76.824
536.98	76.254
537.32	76.042
537.66	74.927
538.01	75.847
538.35	76.073
538.69	73.673
539.03	74.549
539.37	75.951
539.71	75.072
540.05	76.628
540.39	76.035
540.73	77.289
541.07	76.544
541.42	74.483
541.76	75.683
542.10	74.462
542.44	75.650
542.78	75.367
543.12	74.007
543.46	77.198
543.80	73.981
544.14	75.771
544.48	73.614
544.82	74.450
545.16	75.942
545.50	77.001
545.84	76.372
546.18	75.655
546.52	75.711
546.86	74.981
547.20	75.227
547.54	75.891
547.88	74.715
548.22	74.332
548.56	75.899
548.90	73.193
549.24	74.635
549.58	73.920
549.92	76.917
550.26	77.683
550.60	76.844
550.94	77.540
551.28	76.341
551.62	76.331
551.96	76.997
552.30	76.124
552.64	74.906
552.98	76.300
553.32	76.288
553.66	75.569
554.00	76.062
554.34	78.203
554.68	77.432
555.02	75.397
555.36	74.345
555.69	75.019
556.03	74.723
556.37	74.269
556.71	75.943
557.05	76.016
557.39	75.341
557.73	74.292
558.07	74.961
558.41	74.381
558.75	77.344
559.08	78.298
559.42	75.334
559.76	76.664
560.10	75.795
560.44	74.980
560.78	74.681
561.12	75.056
561.45	75.298
561.79	73.128
562.13	75.389
562.47	74.924
562.81	74.602
563.15	72.776
563.48	74.007
563.82	72.635
564.16	72.424
564.50	73.281
564.84	74.841
565.17	74.177
565.51	73.962
565.85	73.944
566.19	72.234
566.52	74.767
566.86	73.019
567.20	72.987
567.54	72.878
567.88	71.784
568.21	70.750
568.55	71.024
568.89	72.253
569.23	70.131
569.56	69.425
569.90	69.079
570.24	68.085
570.57	67.306
570.91	68.086
571.25	66.667
571.59	67.508
571.92	65.798
572.26	65.319
572.60	65.266
572.93	65.619
573.27	65.412
573.61	64.655
573.95	64.413
574.28	65.131
574.62	63.980
574.96	64.407
575.29	63.965
575.63	62.637
575.97	63.360
576.30	64.777
576.64	62.789
576.98	63.937
577.31	64.542
577.65	64.007
577.98	62.885
578.32	62.776
578.66	62.712
578.99	63.724
579.33	63.130
579.67	63.537
580.00	62.928
580.34	61.973
580.67	62.640
581.01	63.088
581.35	61.692
581.68	61.811
582.02	61.837
582.35	61.810
582.69	62.925
583.02	62.473
583.36	61.687
583.70	63.049
584.03	61.881
584.37	62.432
584.70	61.759
585.04	61.696
585.37	61.513
585.71	61.480
586.04	62.351
586.38	62.817
586.72	62.644
587.05	62.644
587.39	62.561
587.72	62.740
588.06	62.630
588.39	63.365
588.73	62.961
589.06	62.669
589.40	63.886
589.73	63.052
590.07	63.260
590.40	63.266
590.73	63.973
591.07	62.944
591.40	63.180
591.74	63.666
592.07	64.040
592.41	64.246
592.74	65.062
593.08	62.509
593.41	62.633
593.75	62.791
594.08	63.604
594.41	63.376
594.75	62.647
595.08	62.369
595.42	62.110
595.75	63.295
596.09	63.691
596.42	63.171
596.75	64.318
597.09	62.687
597.42	62.787
597.75	63.227
598.09	63.436
598.42	63.464
598.76	62.158
599.09	62.857
599.42	61.448
599.76	62.495
600.09	62.673
600.42	61.055
600.76	60.778
601.09	61.059
601.42	60.990
601.76	61.282
602.09	60.997
602.42	62.484
602.76	62.173
603.09	62.402
603.42	62.223
603.76	62.274
604.09	61.111
604.42	62.044
604.76	61.890
605.09	62.211
605.42	62.038
605.75	62.037
606.09	61.511
606.42	60.717
606.75	62.300
607.09	63.060
607.42	61.450
607.75	60.744
608.08	61.366
608.42	61.494
608.75	62.181
609.08	61.232
609.41	60.964
609.75	61.611
610.08	61.602
610.41	61.323
610.74	62.336
611.07	62.665
611.41	62.045
611.74	62.296
612.07	61.105
612.40	62.340
612.73	62.269
613.07	60.775
613.40	61.530
613.73	61.397
614.06	59.895
614.39	61.980
614.72	62.397
615.06	61.194
615.39	60.797
615.72	61.422
616.05	61.449
616.38	61.151
616.71	61.443
617.05	61.118
617.38	61.484
617.71	62.182
618.04	62.484
618.37	61.413
618.70	61.685
619.03	62.872
619.36	63.770
619.69	62.597
620.03	63.387
620.36	65.382
620.69	62.158
621.02	62.470
621.35	65.447
621.68	65.617
622.01	65.062
622.34	63.903
622.67	64.081
623.00	63.227
623.33	62.283
623.66	64.064
623.99	63.397
624.32	63.225
624.65	61.953
624.99	63.203
625.32	63.270
625.65	61.009
625.98	63.667
626.31	63.723
626.64	65.045
626.97	65.993
627.30	65.463
627.63	63.349
627.96	64.898
628.29	62.524
628.62	64.639
628.95	64.414
629.28	64.876
629.61	64.577
629.94	64.834
630.26	64.958
630.59	64.607
630.92	62.487
631.25	67.598
631.58	65.465
631.91	64.692
632.24	66.154
632.57	67.776
632.90	65.929
633.23	70.065
633.56	64.906
633.89	68.206
634.22	66.154
634.55	67.017
634.88	67.470
635.20	69.863
635.53	68.715
635.86	68.478
636.19	65.621
636.52	67.385
636.85	63.885
637.18	66.062
637.51	66.667
637.83	67.737
638.16	68.279
638.49	67.003
638.82	66.948
639.15	65.857
639.48	67.686
639.81	66.915
640.13	67.534
640.46	69.134
640.79	66.667
641.12	65.891
641.45	66.407
641.77	64.809
642.10	64.984
642.43	66.498
642.76	67.204
643.09	67.474
643.41	69.713
643.74	65.104
644.07	68.783
644.40	68.051
644.73	67.035
645.05	69.466
645.38	69.038
645.71	70.229
646.04	68.773
646.36	69.318
646.69	71.954
647.02	68.555
647.35	72.000
647.67	72.345
648.00	69.709
648.33	68.015
648.66	65.677
648.98	62.881
649.31	67.642
649.64	65.404
649.96	62.669
650.29	61.770
650.62	67.347
650.94	66.359
651.27	63.969
651.60	65.774
651.92	65.458
652.25	62.906
652.58	64.632
652.90	63.345
653.23	62.157
653.56	61.979
653.88	64.599
654.21	65.217
654.54	63.602
654.86	64.388
655.19	61.290
655.52	63.808
655.84	55.180
656.17	50.943
656.49	68.443
656.82	77.852
657.15	63.413
657.47	47.838
657.80	35.011
658.13	28.826
658.45	47.857
658.78	46.532
659.10	45.844
659.43	45.308
659.75	45.704
660.08	47.051
660.41	49.852
660.73	55.956
661.06	61.273
661.38	61.694
661.71	61.707
662.03	65.509
662.36	66.348
662.68	65.228
663.01	66.346
663.33	64.151
663.66	66.746
663.98	67.237
664.31	65.610
664.63	61.468
664.96	66.508
665.28	62.175
665.61	62.850
665.93	62.903
666.26	60.486
666.58	65.138
666.91	64.403
667.23	63.793
667.56	61.481
667.88	61.404
668.21	63.959
668.53	64.721
668.86	60.969
669.18	62.690
669.50	67.609
669.83	61.500
670.15	59.750
670.48	57.143
670.80	62.690
671.13	61.928
671.45	66.327
671.77	58.454
672.10	61.319
672.42	57.769
672.75	56.505
673.07	59.252
673.39	59.728
673.72	59.711
674.04	59.362
674.37	64.203
674.69	60.280
675.01	59.302
675.34	62.010
675.66	57.143
675.98	58.333
676.31	63.476
676.63	63.918
676.95	58.513
677.28	59.406
677.60	59.148
677.92	58.145
678.25	58.469
678.57	56.381
678.89	59.633
679.22	57.798
679.54	56.793
679.86	60.600
680.18	59.205
680.51	56.263
680.83	57.500
681.15	61.002
681.48	53.617
681.80	56.087
682.12	55.675
682.44	53.664
682.77	58.182
683.09	60.049
683.41	59.900
683.73	59.296
684.06	54.822
684.38	57.554
684.70	60.277
685.02	55.411
685.34	54.812
685.67	52.767
685.99	56.886
686.31	53.545
686.63	55.340
686.96	54.675
687.28	52.977
687.60	54.825
687.92	51.477
688.24	55.579
688.56	54.945
688.89	56.164
689.21	51.395
689.53	59.335
689.85	55.443
690.17	52.696
690.49	52.471
690.82	56.020
691.14	57.702
691.46	51.500
691.78	54.067
692.10	55.963
692.42	57.339
692.74	58.294
693.06	58.072
693.39	53.695
693.71	51.395
694.03	51.208
694.35	51.980
694.67	53.435
694.99	53.639
695.31	53.541
695.63	53.243
695.95	56.461
696.27	53.824
696.59	54.303
696.91	54.986
697.23	57.593
697.56	52.332
697.88	53.864
698.20	54.479
698.52	49.279
698.84	50.376
699.16	49.868
699.48	52.618
699.80	48.901
700.12	53.168
700.44	44.838
700.76	52.681
701.08	55.873
701.40	51.645
701.72	53.667
702.04	56.122
702.36	53.770
702.68	55.705
703.00	58.360
703.32	49.102
703.64	50.158
703.96	51.582
704.28	52.113
704.60	58.562
704.91	49.013
705.23	52.982
705.55	50.186
705.87	51.799
706.19	58.167
706.51	51.172
706.83	52.747
707.15	49.831
707.47	52.695
707.79	48.138
708.11	47.884
708.43	48.000
708.74	47.814
709.06	50.307
709.38	49.852
709.70	47.078
710.02	47.902
710.34	48.936
710.66	47.191
710.98	51.049
711.29	55.326
711.61	50.355
711.93	50.936
712.25	49.434
712.57	54.688
712.89	55.102
713.20	58.468
713.52	47.967
713.84	48.175
714.16	44.257
714.48	48.464
714.80	51.515
715.11	51.890
715.43	47.099
715.75	49.123
716.07	50.909
716.39	50.512
716.70	49.600
717.02	47.984
717.34	51.515
717.66	49.545
717.97	45.833
718.29	48.889
718.61	51.802
718.93	44.958
719.24	50.628
719.56	50.446
719.88	44.314
720.20	48.291
720.51	49.123
720.83	45.188
721.15	51.429
721.46	49.789
721.78	44.589
722.10	45.736
722.42	49.130
722.73	46.154
723.05	50.691
723.37	43.891
723.68	52.607
724.00	46.759
724.32	41.121
724.63	48.416
724.95	40.639
725.27	48.357
725.58	52.055
725.90	43.243
726.22	41.048
726.53	47.541
726.85	44.815
727.16	45.749
727.48	49.597
727.80	46.575
728.11	45.778
728.43	45.267
728.74	44.737
729.06	47.162
729.38	47.287
729.69	41.600
730.01	45.188
730.32	43.028
730.64	40.769
730.96	40.541
731.27	38.996
731.59	38.721
731.90	44.408
732.22	46.512
732.53	41.053
732.85	35.563
733.16	47.985
733.48	43.284
733.80	46.909
734.11	44.326
734.43	47.292
734.74	42.679
735.06	39.871
735.37	39.936
735.69	40.141
736.00	43.704
736.32	40.559
736.63	45.556
736.95	38.521
737.26	43.841
737.58	45.985
737.89	43.396
738.21	43.511
738.52	44.262
738.83	43.590
739.15	49.545
739.46	39.640
739.78	39.382
740.09	42.460
740.41	37.879
740.72	35.857
741.04	41.897
741.35	43.946
741.66	45.161
741.98	36.224
742.29	43.523
742.61	35.838
742.92	47.549
743.23	44.279
743.55	41.451
743.86	41.546
744.18	37.000
744.49	37.222
744.80	45.161
745.12	42.051
745.43	40.107
745.74	40.107
746.06	51.724
746.37	45.000
746.68	38.378
747.00	35.912
747.31	46.073
747.62	45.263
747.94	39.151
748.25	50.246
748.56	44.444
748.88	46.448
749.19	43.005
749.50	37.647
749.82	47.000
750.13	47.573
750.44	41.202
750.75	39.600
751.07	40.586
751.38	37.109
751.69	42.857
752.01	39.496
752.32	43.802
752.63	40.611
752.94	37.200
753.26	35.160
753.57	43.602
753.88	40.465
754.19	33.480
754.51	38.912
754.82	37.083
755.13	33.186
755.44	44.589
755.75	41.365
756.07	39.485
756.38	42.678
756.69	39.245
757.00	35.816
757.31	38.408
757.63	42.157
757.94	34.545
758.25	36.905
758.56	32.162
758.87	36.012
759.18	39.252
759.50	37.722
759.81	39.382
760.12	39.858
760.43	41.196
760.74	38.323
761.05	32.692
761.36	40.356
761.67	34.954
761.99	36.789
762.30	36.000
762.61	38.211
762.92	34.222
763.23	37.209
763.54	42.640
763.85	39.819
764.16	29.565
764.47	34.783
764.78	36.694
765.10	39.764
765.41	36.789
765.72	38.462
766.03	36.120
766.34	33.333
766.65	35.937
766.96	37.778
767.27	44.134
767.58	42.767
767.89	31.169
768.20	35.811
768.51	40.230
768.82	40.000
769.13	39.352
769.44	33.491
769.75	29.412
770.06	31.553
770.37	36.702
770.68	29.744
770.99	32.995
771.30	33.505
771.61	33.632
771.92	36.321
772.23	29.808
772.54	35.882
772.85	33.562
773.16	32.258
773.47	35.669
773.78	38.922
774.09	26.974
774.39	26.471
774.70	29.323
775.01	32.308
775.32	36.508
775.63	35.433
775.94	27.358
776.25	34.074
776.56	34.545
776.87	31.624
777.18	26.000
777.48	31.731
777.79	24.074
778.10	23.585
778.41	33.333
778.72	29.245
779.03	22.807
779.34	34.454
779.65	29.577
779.95	29.496
780.26	30.645
780.57	29.710
780.88	22.936
781.19	42.593
781.50	25.410
781.80	32.117
782.11	29.487
782.42	26.207
782.73	31.469
783.04	23.200
783.34	24.800
783.65	27.642
783.96	19.672
784.27	26.891
784.57	27.103
784.88	21.429
785.19	32.990
785.50	22.105
785.81	28.000
786.11	17.822
786.42	20.000
786.73	25.000
787.04	12.245
787.34	29.630
787.65	31.132
787.96	23.711
788.26	22.772
788.57	33.913
788.88	14.679
789.19	17.355
789.49	27.826
789.80	31.897
790.11	28.049
790.41	34.831
790.72	15.116
791.03	32.558
791.33	20.779
791.64	17.073
791.95	14.634
792.25	9.639
792.56	0.000
792.87	25.352
793.17	20.482
793.48	25.882
793.79	31.250
794.09	13.333
794.40	28.261
794.70	22.609
795.01	25.688
795.32	34.646
795.62	33.333
795.93	21.569
796.23	18.182
796.54	11.628
796.85	30.435
797.15	23.437
797.46	18.644
797.76	27.869
798.07	3.947
798.37	8.065
798.68	10.938
798.99	26.154
799.29	4.545
799.60	13.043
799.90	18.571
800.21	-1.754
800.51	6.897
800.82	20.755
801.12	13.725
801.43	8.065
801.73	19.355
802.04	2.000
802.34	11.321
802.65	-21.053
802.95	9.091
803.26	13.208
803.56	18.033
803.87	16.000
804.17	3.704
804.48	13.462
804.78	-20.408
805.09	10.638
805.39	3.390
805.70	2.083
806.00	12.500
806.30	-5.085
806.61	10.769
806.91	4.615
807.22	5.263
807.52	22.857
807.83	1.724
808.13	20.253
808.43	21.311
808.74	21.311
809.04	29.730
809.35	11.111
809.65	12.500
809.95	10.169
810.26	10.204
810.56	1.887
810.86	0.000
811.17	-29.730
811.47	-29.630
811.77	-19.608
812.08	2.273
812.38	29.167
812.69	-20.513
812.99	16.667
813.29	2.174
813.59	-14.286
813.90	-11.905
814.20	12.727
814.50	-4.082
814.81	17.647
815.11	-18.750
815.41	-21.951
815.72	-23.077
816.02	-14.894
816.32	-3.125
816.62	3.030
816.93	-42.424
817.23	0.000
817.53	-38.235
817.84	20.000
818.14	-23.529
818.44	-3.125
818.74	-95.238
819.04	-20.000
819.35	-11.429
819.65	9.091
819.95	25.641
820.25	-33.333
820.56	-27.586
820.86	-39.286
821.16	-91.304
821.46	-9.524
821.76	-1.852
822.07	-8.696
822.37	-6.122
822.67	-13.953
822.97	-82.609
823.27	-50.000
823.57	-55.556
823.88	-25.000
824.18	-15.385
824.48	3.571
824.78	-6.061
825.08	-60.000
825.38	-5.000
825.69	-66.667
825.99	-25.926
826.29	0.000
826.59	-66.667
826.89	-29.630
827.19	-39.286
827.49	-27.273
827.79	-109.091
828.09	-95.455
828.39	-30.435
828.70	-51.852
829.00	-7.143
829.30	-11.905
829.60	-6.452
829.90	-46.154
830.20	-2.564
830.50	-50.000
830.80	-23.810
831.10	-111.111
831.40	-200.000
831.70	-33.333
832.00	-29.412
832.30	-30.435
832.60	-29.167
832.90	-190.909
833.20	-38.889
833.50	12.500
833.80	-42.308
834.10	16.000
834.40	-37.500
834.70	-31.818
835.00	-7.692
835.30	-55.000
835.60	-240.000
835.90	-10.000
836.20	-85.714
836.50	-56.522
836.80	-83.333
837.10	-100.000
837.40	-230.000
837.70	-43.478
838.00	-135.714
838.30	3100.000
838.60	-8.000
838.90	-120.000
839.19	-144.444
839.49	-950.000
839.79	-11.765
840.09	-177.778
840.39	-28.571
840.69	-105.556
840.99	-100.000
841.29	-44.828
841.59	-66.667
841.88	-109.091
842.18	-266.667
842.48	0.000
842.78	-34.615
843.08	-105.882
843.38	-60.000
843.68	-153.846
843.97	-105.882
844.27	-100.000
844.57	-45.833
844.87	-72.727
845.17	-100.000
845.47	-94.444
845.76	-22.222
846.06	-71.429
846.36	-150.000
846.66	-233.333
846.96	-55.000
847.25	-160.000
847.55	-225.000
847.85	-113.333
848.15	-350.000
848.44	-47.368
848.74	-106.667
849.04	-26.316
849.34	-433.333
849.63	-333.333
849.93	-47.059
850.23	-218.182
850.53	-533.333
850.82	-240.000
851.12	-177.778
851.42	-71.429
851.71	-340.000
852.01	-57.143
852.31	-100.000
852.61	-92.308
852.90	-420.000
853.20	-233.333
853.50	-122.222
853.79	-70.000
854.09	-105.000
854.39	-73.684
854.68	-95.000
854.98	-525.000
855.28	-16.667
855.57	-164.286
855.87	-63.158
856.17	-100.000
856.46	-30.769
856.76	-146.667
857.05	-87.500
857.35	-4.167
857.65	-77.778
857.94	-87.500
858.24	-60.870
858.53	-260.000
858.83	-566.667
859.13	-145.455
859.42	-190.000
859.72	283.333
860.01	-69.231
860.31	-130.000
860.60	-325.000
860.90	-500.000
861.20	-516.667
861.49	-450.000
861.79	1200.000
862.08	3.226
862.38	-105.263
862.67	-115.385
862.97	-150.000
863.26	-125.000
863.56	-73.913
863.85	-450.000
864.15	-92.857
864.44	-37.500
864.74	-58.333
865.03	-233.333
865.33	-566.667
865.62	-1900.000
865.92	-1150.000
866.21	-300.000
866.51	-100.000
866.80	-366.667
867.10	-300.000
867.39	-111.111
867.69	-141.667
867.98	100.000
868.27	-400.000
868.57	800.000
868.86	-60.000
869.16	-115.385
869.45	1200.000
869.75	-300.000
870.04	-216.667
870.33	-70.588
870.63	-128.571
870.92	30.435
871.22	-250.000
871.51	860.000
871.80	-37.500
872.10	-233.333
>>>>>End Processed Spectral Data<<<<<
