SpectraSuite Data File
++++++++++++++++++++++++++++++++++++
Date: Tue May 12 19:47:58 PDT 2015
User: schluterlab
Dark Spectrum Present: Yes
Reference Spectrum Present: Yes
Number of Sampled Component Spectra: 1
Spectrometers: USB2E3373
Integration Time (usec): 3000 (USB2E3373)
Spectra Averaged: 3 (USB2E3373)
Boxcar Smoothing: 0 (USB2E3373)
Correct for Electrical Dark: No (USB2E3373)
Strobe/Lamp Enabled: No (USB2E3373)
Correct for Detector Non-linearity: No (USB2E3373)
Correct for Stray Light: No (USB2E3373)
Number of Pixels in Processed Spectrum: 2048
>>>>>Begin Processed Spectral Data<<<<<
178.53	0.000
178.91	-40.000
179.29	-283.333
179.67	433.333
180.04	0.000
180.42	-60.000
180.80	-266.667
181.18	1100.000
181.56	-700.000
181.94	216.667
182.31	1400.000
182.69	-157.143
183.07	0.000
183.45	233.333
183.83	340.000
184.20	216.667
184.58	750.000
184.96	233.333
185.34	-466.667
185.72	-64.286
186.09	-16.667
186.47	-1200.000
186.85	80.000
187.23	125.000
187.61	-157.143
187.98	-220.000
188.36	650.000
188.74	-225.000
189.12	-133.333
189.49	-150.000
189.87	300.000
190.25	255.556
190.63	600.000
191.00	260.000
191.38	-566.667
191.76	320.000
192.14	-128.571
192.51	-40.000
192.89	-160.000
193.27	-100.000
193.65	-400.000
194.02	-183.333
194.40	400.000
194.78	-87.500
195.15	-257.143
195.53	166.667
195.91	220.000
196.29	-575.000
196.66	-400.000
197.04	-200.000
197.42	180.000
197.79	-237.500
198.17	-75.000
198.55	-400.000
198.92	-188.889
199.30	450.000
199.68	-275.000
200.05	-1100.000
200.43	-61.111
200.81	-158.333
201.18	250.000
201.56	-450.000
201.94	-2200.000
202.31	-150.000
202.69	0.000
203.07	-100.000
203.44	-425.000
203.82	0.000
204.19	212.500
204.57	-533.333
204.95	163.636
205.32	160.000
205.70	475.000
206.08	-900.000
206.45	-180.000
206.83	2700.000
207.20	-177.778
207.58	-15.385
207.96	633.333
208.33	800.000
208.71	666.667
209.08	300.000
209.46	-111.111
209.84	500.000
210.21	-700.000
210.59	600.000
210.96	177.778
211.34	-400.000
211.71	1150.000
212.09	-40.000
212.46	-175.000
212.84	-200.000
213.22	114.286
213.59	-212.500
213.97	0.000
214.34	-400.000
214.72	-1700.000
215.09	550.000
215.47	-53.333
215.84	-75.000
216.22	-2100.000
216.59	2200.000
216.97	-100.000
217.34	-233.333
217.72	5.556
218.09	275.000
218.47	-42.105
218.84	-162.500
219.22	-28.571
219.59	-110.000
219.97	-190.000
220.34	366.667
220.72	236.364
221.09	-950.000
221.47	0.000
221.84	500.000
222.22	-325.000
222.59	-250.000
222.97	-8.696
223.34	180.000
223.72	328.571
224.09	-183.333
224.46	253.846
224.84	-40.000
225.21	-550.000
225.59	-450.000
225.96	0.000
226.34	333.333
226.71	240.000
227.08	-92.308
227.46	-214.286
227.83	-50.000
228.21	-1150.000
228.58	400.000
228.95	-31.579
229.33	6.250
229.70	-366.667
230.08	-288.889
230.45	-733.333
230.82	-1700.000
231.20	-28.571
231.57	-620.000
231.95	-33.333
232.32	144.444
232.69	-1150.000
233.07	-25.000
233.44	-75.000
233.81	-6.452
234.19	-360.000
234.56	-50.000
234.93	-250.000
235.31	18.519
235.68	-29.630
236.05	-53.846
236.43	-21.053
236.80	-50.000
237.17	-100.000
237.55	-100.000
237.92	-16.279
238.29	-58.065
238.67	-82.143
239.04	-14.286
239.41	-27.451
239.79	0.000
240.16	-10.000
240.53	-12.069
240.91	1.370
241.28	7.042
241.65	-6.250
242.02	-14.035
242.40	-4.000
242.77	1.053
243.14	-3.529
243.51	1.075
243.89	-7.619
244.26	-0.926
244.63	-5.102
245.00	-10.714
245.38	-15.126
245.75	-5.085
246.12	3.125
246.49	-9.600
246.87	-4.098
247.24	-9.859
247.61	-11.258
247.98	1.124
248.36	-4.403
248.73	1.136
249.10	-3.333
249.47	1.042
249.84	-1.523
250.22	-4.688
250.59	-7.865
250.96	3.636
251.33	0.943
251.70	-0.459
252.08	6.494
252.45	2.041
252.82	-0.422
253.19	3.891
253.56	3.137
253.94	0.000
254.31	6.115
254.68	2.778
255.05	8.940
255.42	1.818
255.79	6.623
256.16	2.431
256.54	7.273
256.91	6.410
257.28	6.169
257.65	1.967
258.02	4.204
258.39	7.251
258.76	3.058
259.14	-0.294
259.51	5.915
259.88	5.187
260.25	0.284
260.62	1.124
260.99	6.128
261.36	3.448
261.73	3.467
262.10	6.267
262.47	4.132
262.85	6.427
263.22	3.226
263.59	5.094
263.96	4.178
264.33	0.270
264.70	3.686
265.07	3.448
265.44	4.450
265.81	9.639
266.18	6.089
266.55	3.095
266.92	6.696
267.29	3.333
267.66	1.591
268.03	6.452
268.40	4.119
268.77	4.232
269.14	4.832
269.51	2.941
269.88	6.838
270.25	3.165
270.62	7.773
270.99	4.000
271.36	2.649
271.73	4.583
272.10	5.602
272.47	4.600
272.84	2.548
273.21	1.461
273.58	2.245
273.95	4.781
274.32	6.963
274.69	4.697
275.06	4.315
275.43	4.200
275.80	4.780
276.17	3.953
276.54	3.802
276.91	5.950
277.28	4.062
277.65	4.159
278.02	6.250
278.39	7.804
278.76	7.263
279.13	5.725
279.50	5.235
279.87	6.415
280.23	5.464
280.60	3.357
280.97	4.569
281.34	5.424
281.71	2.487
282.08	4.830
282.45	4.586
282.82	3.704
283.19	5.892
283.56	5.802
283.92	6.161
284.29	5.245
284.66	3.186
285.03	2.230
285.40	4.833
285.77	6.897
286.14	6.656
286.51	4.019
286.87	4.700
287.24	3.205
287.61	5.710
287.98	6.260
288.35	5.581
288.72	5.963
289.08	4.403
289.45	4.680
289.82	4.814
290.19	5.152
290.56	4.776
290.93	5.318
291.29	6.241
291.66	4.494
292.03	7.174
292.40	4.892
292.77	5.102
293.13	3.818
293.50	4.821
293.87	5.687
294.24	5.197
294.60	5.191
294.97	4.571
295.34	4.932
295.71	4.300
296.08	3.825
296.44	5.007
296.81	4.916
297.18	4.787
297.55	5.151
297.91	5.076
298.28	4.859
298.65	4.140
299.02	4.809
299.38	3.699
299.75	5.019
300.12	4.556
300.48	5.282
300.85	4.523
301.22	4.087
301.59	5.474
301.95	4.268
302.32	3.645
302.69	3.329
303.05	5.077
303.42	5.676
303.79	4.831
304.15	5.323
304.52	6.034
304.89	4.284
305.25	4.472
305.62	4.886
305.99	3.471
306.35	4.139
306.72	5.773
307.09	2.829
307.45	5.825
307.82	5.550
308.19	5.391
308.55	4.747
308.92	5.297
309.29	5.753
309.65	5.470
310.02	5.031
310.38	6.503
310.75	6.352
311.12	4.680
311.48	6.475
311.85	6.079
312.22	6.198
312.58	6.244
312.95	5.749
313.31	6.391
313.68	6.852
314.05	7.746
314.41	7.171
314.78	8.040
315.14	6.660
315.51	6.852
315.87	8.398
316.24	8.704
316.61	6.796
316.97	7.941
317.34	7.943
317.70	8.683
318.07	7.715
318.43	9.641
318.80	8.561
319.16	8.015
319.53	8.868
319.89	9.754
320.26	8.850
320.62	10.078
320.99	11.531
321.35	10.474
321.72	10.202
322.08	12.178
322.45	11.243
322.81	12.808
323.18	12.368
323.54	10.711
323.91	11.575
324.27	10.800
324.64	12.090
325.00	12.830
325.37	13.759
325.73	11.405
326.10	13.310
326.46	13.146
326.83	14.600
327.19	15.546
327.56	14.677
327.92	15.017
328.29	15.323
328.65	16.196
329.01	16.697
329.38	16.070
329.74	17.549
330.11	17.241
330.47	17.970
330.84	17.387
331.20	18.115
331.56	16.321
331.93	17.566
332.29	17.391
332.66	17.993
333.02	18.013
333.38	19.577
333.75	18.664
334.11	17.902
334.48	17.621
334.84	17.934
335.20	17.816
335.57	18.710
335.93	18.326
336.29	18.190
336.66	18.488
337.02	18.948
337.38	17.453
337.75	19.455
338.11	18.870
338.47	19.499
338.84	19.061
339.20	19.340
339.56	18.826
339.93	18.198
340.29	19.946
340.65	18.447
341.02	17.626
341.38	18.005
341.74	18.594
342.11	17.683
342.47	18.794
342.83	17.953
343.20	17.772
343.56	18.444
343.92	19.423
344.28	18.439
344.65	18.493
345.01	17.944
345.37	19.231
345.73	18.260
346.10	18.842
346.46	18.119
346.82	18.267
347.19	17.914
347.55	19.048
347.91	17.527
348.27	17.944
348.63	17.545
349.00	19.282
349.36	19.126
349.72	18.391
350.08	19.067
350.45	17.901
350.81	18.580
351.17	17.133
351.53	17.552
351.89	17.617
352.26	17.480
352.62	18.070
352.98	17.908
353.34	18.129
353.70	17.449
354.07	18.369
354.43	17.696
354.79	18.115
355.15	17.191
355.51	18.337
355.87	17.236
356.24	19.199
356.60	17.195
356.96	17.773
357.32	17.202
357.68	18.059
358.04	17.261
358.40	17.921
358.77	16.787
359.13	18.153
359.49	17.680
359.85	19.105
360.21	17.288
360.57	17.624
360.93	18.290
361.29	18.069
361.66	17.271
362.02	17.425
362.38	17.793
362.74	19.293
363.10	18.024
363.46	18.811
363.82	18.377
364.18	18.017
364.54	18.015
364.90	18.222
365.26	17.362
365.62	18.017
365.98	17.316
366.35	18.306
366.71	18.447
367.07	18.450
367.43	16.895
367.79	18.459
368.15	17.346
368.51	17.303
368.87	18.282
369.23	18.168
369.59	17.941
369.95	16.766
370.31	15.909
370.67	18.647
371.03	18.576
371.39	16.692
371.75	17.905
372.11	17.407
372.47	17.149
372.83	18.846
373.19	17.470
373.55	17.290
373.91	17.197
374.27	18.102
374.63	17.305
374.99	17.496
375.35	16.546
375.71	17.862
376.07	17.032
376.42	17.981
376.78	16.934
377.14	17.737
377.50	17.237
377.86	18.524
378.22	17.834
378.58	17.171
378.94	17.485
379.30	17.503
379.66	17.542
380.02	17.546
380.38	17.112
380.74	17.775
381.09	17.217
381.45	18.286
381.81	17.793
382.17	18.111
382.53	17.160
382.89	17.896
383.25	18.516
383.61	16.402
383.97	17.219
384.32	17.484
384.68	17.561
385.04	15.850
385.40	16.613
385.76	17.015
386.12	17.030
386.48	16.960
386.83	16.590
387.19	16.922
387.55	16.256
387.91	15.888
388.27	16.123
388.62	16.386
388.98	17.176
389.34	17.241
389.70	16.218
390.06	17.162
390.42	17.241
390.77	17.840
391.13	16.786
391.49	16.173
391.85	16.633
392.20	17.162
392.56	16.045
392.92	17.007
393.28	16.756
393.64	16.973
393.99	15.649
394.35	16.418
394.71	15.960
395.07	17.507
395.42	16.571
395.78	16.129
396.14	15.323
396.50	16.171
396.85	15.202
397.21	15.395
397.57	15.932
397.92	16.539
398.28	16.547
398.64	15.810
399.00	15.961
399.35	16.999
399.71	15.689
400.07	16.306
400.42	16.667
400.78	15.931
401.14	15.593
401.49	15.678
401.85	16.444
402.21	16.117
402.57	15.647
402.92	15.737
403.28	15.410
403.63	15.513
403.99	14.795
404.35	16.115
404.70	15.643
405.06	15.499
405.42	15.745
405.77	15.042
406.13	14.875
406.49	14.511
406.84	15.629
407.20	14.808
407.55	15.898
407.91	15.035
408.27	15.160
408.62	15.113
408.98	16.023
409.34	14.853
409.69	14.247
410.05	14.961
410.40	14.322
410.76	14.944
411.11	14.221
411.47	15.306
411.83	14.939
412.18	14.987
412.54	15.201
412.89	13.925
413.25	15.486
413.60	15.242
413.96	14.951
414.31	14.595
414.67	15.395
415.03	14.177
415.38	14.276
415.74	14.036
416.09	14.955
416.45	14.367
416.80	13.282
417.16	15.374
417.51	14.781
417.87	14.979
418.22	14.773
418.58	14.513
418.93	14.507
419.29	14.315
419.64	15.041
420.00	14.669
420.35	15.254
420.71	14.725
421.06	14.925
421.42	15.056
421.77	15.713
422.12	14.471
422.48	14.563
422.83	15.198
423.19	14.706
423.54	14.294
423.90	14.833
424.25	15.650
424.61	14.903
424.96	15.295
425.31	15.459
425.67	14.727
426.02	13.727
426.38	14.607
426.73	14.953
427.09	14.445
427.44	15.432
427.79	15.532
428.15	14.965
428.50	14.761
428.85	15.266
429.21	16.198
429.56	14.807
429.92	15.846
430.27	14.827
430.62	15.414
430.98	15.314
431.33	15.628
431.68	14.661
432.04	15.190
432.39	14.676
432.74	15.370
433.10	14.615
433.45	15.389
433.80	15.655
434.16	15.995
434.51	14.771
434.86	14.924
435.22	15.774
435.57	15.303
435.92	14.613
436.28	16.002
436.63	14.729
436.98	14.877
437.34	15.867
437.69	15.617
438.04	15.084
438.39	15.862
438.75	16.062
439.10	16.488
439.45	16.303
439.81	16.127
440.16	15.646
440.51	15.675
440.86	15.783
441.22	15.068
441.57	15.783
441.92	15.792
442.27	16.171
442.63	15.745
442.98	16.626
443.33	15.629
443.68	15.141
444.03	16.031
444.39	15.877
444.74	15.913
445.09	16.116
445.44	15.685
445.79	16.559
446.15	15.394
446.50	15.905
446.85	16.502
447.20	15.700
447.55	15.823
447.91	15.932
448.26	16.142
448.61	15.831
448.96	16.440
449.31	15.732
449.66	15.799
450.02	15.680
450.37	16.100
450.72	16.338
451.07	15.359
451.42	16.798
451.77	15.700
452.12	16.165
452.47	15.583
452.83	16.438
453.18	16.003
453.53	16.852
453.88	15.890
454.23	16.613
454.58	16.580
454.93	15.736
455.28	15.818
455.63	15.789
455.98	16.688
456.34	16.075
456.69	15.640
457.04	16.142
457.39	16.230
457.74	17.067
458.09	15.930
458.44	16.677
458.79	16.019
459.14	15.921
459.49	15.924
459.84	14.982
460.19	16.886
460.54	15.215
460.89	15.294
461.24	15.909
461.59	16.404
461.94	14.924
462.29	15.664
462.64	15.877
462.99	15.809
463.34	16.557
463.69	15.844
464.04	16.228
464.39	15.949
464.74	16.548
465.09	16.334
465.44	15.297
465.79	16.005
466.14	15.692
466.49	16.657
466.84	16.155
467.19	16.699
467.54	15.915
467.89	16.068
468.24	15.909
468.59	15.641
468.94	16.409
469.29	16.194
469.64	16.265
469.99	15.501
470.34	15.134
470.68	15.615
471.03	16.058
471.38	15.258
471.73	17.297
472.08	17.367
472.43	16.598
472.78	14.866
473.13	16.351
473.48	16.183
473.83	16.579
474.17	16.211
474.52	16.276
474.87	16.540
475.22	16.582
475.57	15.452
475.92	15.179
476.27	16.034
476.61	16.076
476.96	16.064
477.31	15.868
477.66	16.444
478.01	15.185
478.36	15.587
478.70	15.944
479.05	16.309
479.40	16.307
479.75	16.153
480.10	16.613
480.45	15.602
480.79	15.672
481.14	16.183
481.49	15.681
481.84	15.909
482.19	15.659
482.53	15.441
482.88	15.913
483.23	15.276
483.58	15.842
483.92	16.131
484.27	16.118
484.62	16.407
484.97	15.554
485.31	15.236
485.66	14.497
486.01	14.286
486.36	14.465
486.70	14.708
487.05	14.623
487.40	14.494
487.75	15.059
488.09	14.254
488.44	14.887
488.79	15.214
489.13	15.420
489.48	15.636
489.83	15.349
490.17	15.565
490.52	15.535
490.87	16.370
491.22	15.582
491.56	15.464
491.91	15.663
492.26	16.522
492.60	16.224
492.95	16.016
493.30	15.525
493.64	15.112
493.99	16.068
494.34	15.966
494.68	14.866
495.03	15.264
495.37	15.560
495.72	15.559
496.07	15.467
496.41	15.267
496.76	15.855
497.11	16.199
497.45	16.323
497.80	15.836
498.14	15.628
498.49	15.590
498.84	15.409
499.18	14.842
499.53	15.369
499.87	14.951
500.22	14.857
500.56	15.803
500.91	16.466
501.26	16.273
501.60	16.412
501.95	15.353
502.29	15.136
502.64	15.231
502.98	15.295
503.33	15.177
503.67	16.029
504.02	15.986
504.36	14.946
504.71	15.160
505.06	15.265
505.40	16.139
505.75	15.534
506.09	16.089
506.44	15.343
506.78	15.043
507.13	15.309
507.47	15.845
507.82	15.569
508.16	16.091
508.51	16.466
508.85	15.659
509.19	16.018
509.54	16.261
509.88	16.053
510.23	15.112
510.57	15.616
510.92	16.043
511.26	15.221
511.61	15.753
511.95	15.442
512.30	15.652
512.64	15.660
512.98	15.889
513.33	15.358
513.67	15.030
514.02	15.685
514.36	15.421
514.70	16.818
515.05	15.976
515.39	15.997
515.74	15.288
516.08	15.568
516.42	16.346
516.77	15.714
517.11	15.474
517.46	16.052
517.80	16.656
518.14	16.445
518.49	16.494
518.83	15.953
519.17	16.260
519.52	16.115
519.86	15.959
520.20	16.051
520.55	16.841
520.89	16.262
521.23	16.700
521.58	15.939
521.92	16.021
522.26	16.082
522.61	15.973
522.95	15.411
523.29	15.655
523.64	15.875
523.98	15.188
524.32	16.094
524.66	15.976
525.01	15.876
525.35	16.142
525.69	15.829
526.04	15.856
526.38	16.038
526.72	15.833
527.06	15.893
527.41	15.379
527.75	16.080
528.09	15.134
528.43	16.159
528.78	15.164
529.12	15.411
529.46	15.282
529.80	15.725
530.15	15.219
530.49	16.248
530.83	14.823
531.17	14.760
531.51	16.417
531.86	16.036
532.20	15.368
532.54	15.683
532.88	15.055
533.22	15.589
533.57	14.000
533.91	15.898
534.25	15.818
534.59	14.718
534.93	15.447
535.27	15.084
535.62	14.990
535.96	15.143
536.30	15.658
536.64	15.665
536.98	15.487
537.32	15.327
537.66	16.056
538.01	14.875
538.35	15.055
538.69	15.145
539.03	15.573
539.37	15.147
539.71	15.145
540.05	15.268
540.39	14.524
540.73	14.945
541.07	15.882
541.42	15.467
541.76	15.324
542.10	14.993
542.44	14.957
542.78	14.003
543.12	14.152
543.46	14.903
543.80	15.225
544.14	15.556
544.48	14.947
544.82	15.117
545.16	14.638
545.50	15.939
545.84	15.728
546.18	16.105
546.52	16.141
546.86	14.767
547.20	15.227
547.54	14.253
547.88	14.886
548.22	15.190
548.56	15.574
548.90	15.649
549.24	15.497
549.58	15.052
549.92	14.812
550.26	15.598
550.60	15.543
550.94	15.397
551.28	15.528
551.62	15.397
551.96	15.016
552.30	14.264
552.64	15.177
552.98	14.933
553.32	15.000
553.66	15.023
554.00	15.290
554.34	15.234
554.68	14.274
555.02	15.159
555.36	13.662
555.69	14.604
556.03	15.373
556.37	15.079
556.71	15.535
557.05	14.844
557.39	15.663
557.73	16.038
558.07	15.962
558.41	15.164
558.75	15.021
559.08	15.574
559.42	16.304
559.76	14.238
560.10	15.403
560.44	14.806
560.78	14.651
561.12	14.125
561.45	15.253
561.79	14.758
562.13	14.678
562.47	14.297
562.81	14.860
563.15	14.981
563.48	12.959
563.82	15.502
564.16	14.078
564.50	14.756
564.84	14.458
565.17	15.021
565.51	15.412
565.85	14.085
566.19	14.753
566.52	14.839
566.86	15.096
567.20	13.706
567.54	13.529
567.88	13.653
568.21	13.482
568.55	12.903
568.89	13.407
569.23	12.902
569.56	12.828
569.90	12.891
570.24	13.554
570.57	12.566
570.91	13.137
571.25	13.051
571.59	12.492
571.92	11.783
572.26	11.632
572.60	12.316
572.93	12.541
573.27	12.070
573.61	12.071
573.95	11.938
574.28	11.421
574.62	11.320
574.96	11.343
575.29	11.848
575.63	11.342
575.97	11.882
576.30	11.712
576.64	11.549
576.98	11.256
577.31	11.354
577.65	11.335
577.98	11.455
578.32	11.328
578.66	11.092
578.99	11.996
579.33	11.506
579.67	11.502
580.00	11.552
580.34	11.947
580.67	11.699
581.01	11.656
581.35	11.602
581.68	11.255
582.02	11.250
582.35	11.640
582.69	11.482
583.02	11.243
583.36	11.640
583.70	11.454
584.03	11.686
584.37	11.790
584.70	11.716
585.04	11.548
585.37	11.551
585.71	11.556
586.04	11.730
586.38	12.340
586.72	11.834
587.05	12.067
587.39	12.059
587.72	11.698
588.06	12.027
588.39	11.452
588.73	11.743
589.06	12.092
589.40	12.284
589.73	12.453
590.07	11.537
590.40	11.981
590.73	12.995
591.07	12.468
591.40	13.065
591.74	12.174
592.07	12.369
592.41	12.559
592.74	12.740
593.08	12.509
593.41	12.410
593.75	12.909
594.08	12.585
594.41	12.849
594.75	12.294
595.08	12.232
595.42	12.655
595.75	12.614
596.09	12.130
596.42	12.178
596.75	12.455
597.09	12.826
597.42	13.092
597.75	13.508
598.09	12.921
598.42	13.015
598.76	12.978
599.09	12.311
599.42	12.234
599.76	12.358
600.09	12.416
600.42	12.578
600.76	12.202
601.09	12.863
601.42	12.279
601.76	12.216
602.09	12.861
602.42	12.766
602.76	12.653
603.09	13.142
603.42	12.649
603.76	12.757
604.09	12.197
604.42	12.881
604.76	11.821
605.09	11.904
605.42	12.938
605.75	12.563
606.09	13.022
606.42	12.073
606.75	13.632
607.09	12.687
607.42	12.666
607.75	12.443
608.08	12.067
608.42	13.094
608.75	12.506
609.08	12.065
609.41	13.634
609.75	12.902
610.08	13.282
610.41	13.028
610.74	12.588
611.07	12.639
611.41	13.009
611.74	13.221
612.07	13.393
612.40	12.981
612.73	12.905
613.07	12.977
613.40	14.031
613.73	13.058
614.06	12.295
614.39	13.415
614.72	12.515
615.06	13.949
615.39	13.453
615.72	12.542
616.05	12.754
616.38	12.693
616.71	12.749
617.05	13.317
617.38	13.032
617.71	12.606
618.04	13.469
618.37	12.688
618.70	13.519
619.03	15.083
619.36	14.359
619.69	12.442
620.03	14.340
620.36	13.605
620.69	13.525
621.02	13.539
621.35	14.638
621.68	14.671
622.01	15.152
622.34	14.405
622.67	13.828
623.00	14.087
623.33	13.858
623.66	14.422
623.99	14.514
624.32	13.662
624.65	12.500
624.99	12.109
625.32	13.428
625.65	12.890
625.98	14.917
626.31	14.372
626.64	14.505
626.97	15.441
627.30	15.093
627.63	14.512
627.96	15.270
628.29	14.532
628.62	14.433
628.95	14.044
629.28	14.773
629.61	15.674
629.94	14.730
630.26	15.690
630.59	15.707
630.92	13.172
631.25	15.084
631.58	13.605
631.91	13.781
632.24	15.976
632.57	16.290
632.90	17.466
633.23	17.161
633.56	15.346
633.89	13.325
634.22	15.769
634.55	15.112
634.88	16.332
635.20	16.164
635.53	16.061
635.86	18.886
636.19	15.280
636.52	16.712
636.85	13.559
637.18	17.228
637.51	15.312
637.83	16.201
638.16	16.643
638.49	17.291
638.82	15.612
639.15	14.429
639.48	15.721
639.81	16.990
640.13	16.845
640.46	18.740
640.79	14.574
641.12	16.899
641.45	16.019
641.77	15.605
642.10	19.055
642.43	17.340
642.76	17.563
643.09	15.398
643.41	13.799
643.74	19.444
644.07	14.991
644.40	17.148
644.73	17.127
645.05	17.176
645.38	16.923
645.71	17.176
646.04	17.472
646.36	15.720
646.69	17.021
647.02	20.898
647.35	18.200
647.67	19.238
648.00	19.612
648.33	17.341
648.66	15.955
648.98	16.949
649.31	17.556
649.64	18.417
649.96	15.203
650.29	14.336
650.62	18.182
650.94	17.560
651.27	18.112
651.60	17.591
651.92	16.603
652.25	15.105
652.58	17.415
652.90	15.480
653.23	14.625
653.56	17.188
653.88	16.241
654.21	15.501
654.54	16.135
654.86	18.165
655.19	14.677
655.52	13.140
655.84	10.908
656.17	10.386
656.49	14.040
656.82	16.313
657.15	13.464
657.47	10.097
657.80	7.443
658.13	6.012
658.45	10.007
658.78	10.165
659.10	10.037
659.43	10.024
659.75	9.918
660.08	11.206
660.41	10.464
660.73	13.158
661.06	14.182
661.38	17.944
661.71	18.381
662.03	17.130
662.36	14.797
662.68	15.588
663.01	18.510
663.33	14.858
663.66	22.010
663.98	16.381
664.31	16.829
664.63	15.826
664.96	16.865
665.28	17.258
665.61	17.757
665.93	17.281
666.26	18.985
666.58	15.826
666.91	19.204
667.23	18.227
667.56	19.259
667.88	19.048
668.21	13.959
668.53	20.051
668.86	15.816
669.18	15.736
669.50	18.509
669.83	18.250
670.15	17.500
670.48	18.045
670.80	17.766
671.13	16.145
671.45	12.245
671.77	17.874
672.10	16.264
672.42	15.339
672.75	15.534
673.07	15.327
673.39	14.981
673.72	15.909
674.04	16.170
674.37	16.397
674.69	13.318
675.01	19.302
675.34	12.255
675.66	16.190
675.98	16.162
676.31	16.625
676.63	13.660
676.95	15.588
677.28	13.366
677.60	18.546
677.92	15.539
678.25	16.241
678.57	16.009
678.89	15.596
679.22	17.890
679.54	14.254
679.86	15.203
680.18	14.017
680.51	10.678
680.83	14.167
681.15	15.686
681.48	13.404
681.80	14.348
682.12	18.415
682.44	15.086
682.77	13.636
683.09	13.971
683.41	17.794
683.73	15.829
684.06	13.706
684.38	15.108
684.70	16.859
685.02	14.502
685.34	14.017
685.67	16.403
685.99	13.373
686.31	14.366
686.63	14.369
686.96	16.260
687.28	14.990
687.60	14.579
687.92	15.401
688.24	14.737
688.56	13.626
688.89	15.525
689.21	14.651
689.53	15.601
689.85	13.924
690.17	14.706
690.49	16.471
690.82	15.479
691.14	15.405
691.46	15.750
691.78	15.072
692.10	16.514
692.42	16.514
692.74	14.218
693.06	15.663
693.39	14.286
693.71	11.395
694.03	8.937
694.35	11.881
694.67	15.013
694.99	12.668
695.31	14.731
695.63	13.514
695.95	16.292
696.27	15.014
696.59	16.617
696.91	14.530
697.23	16.046
697.56	11.658
697.88	14.286
698.20	8.959
698.52	13.942
698.84	13.784
699.16	14.776
699.48	18.586
699.80	9.615
700.12	14.601
700.44	14.159
700.76	14.196
701.08	11.746
701.40	19.737
701.72	16.333
702.04	14.286
702.36	15.410
702.68	13.087
703.00	14.511
703.32	11.677
703.64	13.880
703.96	11.709
704.28	11.620
704.60	16.781
704.91	11.842
705.23	12.982
705.55	14.498
705.87	12.590
706.19	13.546
706.51	10.937
706.83	12.821
707.15	13.559
707.47	14.671
707.79	14.040
708.11	14.021
708.43	13.867
708.74	13.934
709.06	12.883
709.38	13.056
709.70	12.013
710.02	11.888
710.34	12.057
710.66	11.236
710.98	13.986
711.29	13.402
711.61	13.830
711.93	10.487
712.25	15.472
712.57	15.625
712.89	12.653
713.20	10.887
713.52	12.602
713.84	13.869
714.16	18.581
714.48	15.017
714.80	10.774
715.11	14.433
715.43	11.604
715.75	11.228
716.07	15.636
716.39	17.406
716.70	12.800
717.02	11.290
717.34	13.420
717.66	12.727
717.97	10.648
718.29	14.667
718.61	10.811
718.93	10.084
719.24	13.389
719.56	12.946
719.88	11.765
720.20	6.838
720.51	9.211
720.83	18.410
721.15	10.612
721.46	10.549
721.78	14.286
722.10	18.217
722.42	13.043
722.73	9.502
723.05	12.903
723.37	11.312
723.68	16.114
724.00	9.259
724.32	9.346
724.63	13.122
724.95	12.785
725.27	13.615
725.58	12.329
725.90	4.955
726.22	8.297
726.53	11.475
726.85	14.444
727.16	14.170
727.48	11.290
727.80	2.283
728.11	15.111
728.43	8.642
728.74	12.719
729.06	11.790
729.38	17.829
729.69	8.400
730.01	10.879
730.32	9.163
730.64	14.615
730.96	9.266
731.27	5.405
731.59	10.101
731.90	9.211
732.22	10.963
732.53	3.860
732.85	7.042
733.16	13.919
733.48	4.478
733.80	13.455
734.11	12.766
734.43	12.635
734.74	11.215
735.06	11.576
735.37	7.668
735.69	8.451
736.00	10.741
736.32	15.035
736.63	12.963
736.95	7.393
737.26	9.783
737.58	12.044
737.89	11.698
738.21	11.450
738.52	13.115
738.83	10.256
739.15	11.364
739.46	7.658
739.78	6.950
740.09	9.127
740.41	11.742
740.72	8.765
741.04	11.462
741.35	15.695
741.66	16.129
741.98	8.163
742.29	15.026
742.61	4.624
742.92	16.176
743.23	17.910
743.55	5.699
743.86	14.493
744.18	7.000
744.49	12.778
744.80	13.441
745.12	16.410
745.43	6.952
745.74	11.765
746.06	9.770
746.37	11.111
746.68	13.514
747.00	10.497
747.31	12.565
747.62	10.526
747.94	15.566
748.25	20.197
748.56	10.101
748.88	9.836
749.19	12.953
749.50	16.471
749.82	9.000
750.13	8.738
750.44	8.584
750.75	8.000
751.07	7.113
751.38	9.766
751.69	10.317
752.01	10.504
752.32	13.223
752.63	7.424
752.94	6.800
753.26	7.763
753.57	11.848
753.88	8.372
754.19	7.930
754.51	7.950
754.82	7.500
755.13	7.965
755.44	9.524
755.75	8.434
756.07	10.730
756.38	11.297
756.69	14.717
757.00	11.348
757.31	11.419
757.63	9.804
757.94	7.273
758.25	10.119
758.56	11.622
758.87	8.929
759.18	13.084
759.50	11.032
759.81	7.722
760.12	10.676
760.43	10.963
760.74	9.880
761.05	7.372
761.36	11.573
761.67	8.815
761.99	8.361
762.30	8.364
762.61	11.789
762.92	10.222
763.23	11.163
763.54	7.107
763.85	18.552
764.16	4.783
764.47	6.957
764.78	11.694
765.10	5.512
765.41	8.696
765.72	8.696
766.03	11.706
766.34	7.955
766.65	18.750
766.96	8.889
767.27	15.084
767.58	14.465
767.89	14.286
768.20	6.081
768.51	13.793
768.82	3.125
769.13	8.796
769.44	8.962
769.75	6.863
770.06	6.311
770.37	4.255
770.68	6.667
770.99	11.168
771.30	4.639
771.61	3.587
771.92	12.264
772.23	2.885
772.54	8.235
772.85	-0.685
773.16	9.677
773.47	6.369
773.78	13.772
774.09	12.500
774.39	2.206
774.70	-3.759
775.01	12.308
775.32	2.381
775.63	11.024
775.94	0.000
776.25	9.630
776.56	2.727
776.87	10.256
777.18	8.000
777.48	8.654
777.79	0.000
778.10	7.547
778.41	9.804
778.72	-1.887
779.03	5.263
779.34	0.840
779.65	7.042
779.95	7.914
780.26	1.613
780.57	7.246
780.88	3.670
781.19	7.407
781.50	11.475
781.80	10.219
782.11	12.179
782.42	0.690
782.73	5.594
783.04	3.200
783.34	4.800
783.65	10.569
783.96	-3.279
784.27	0.840
784.57	-1.869
784.88	9.821
785.19	6.186
785.50	4.211
785.81	2.000
786.11	-1.980
786.42	-23.529
786.73	-2.083
787.04	0.000
787.34	5.556
787.65	13.208
787.96	-5.155
788.26	11.881
788.57	0.870
788.88	-6.422
789.19	9.091
789.49	1.739
789.80	5.172
790.11	-8.537
790.41	3.371
790.72	-5.814
791.03	-3.488
791.33	-14.286
791.64	1.220
791.95	2.439
792.25	-2.410
792.56	-2.469
792.87	-4.225
793.17	-2.410
793.48	-3.529
793.79	-5.000
794.09	-18.333
794.40	5.435
794.70	-0.870
795.01	6.422
795.32	1.575
795.62	7.843
795.93	4.902
796.23	10.101
796.54	-4.651
796.85	-1.449
797.15	3.125
797.46	-8.475
797.76	3.279
798.07	-2.632
798.37	-8.065
798.68	-12.500
798.99	0.000
799.29	4.545
799.60	-11.594
799.90	1.429
800.21	-19.298
800.51	12.069
800.82	-16.981
801.12	-27.451
801.43	0.000
801.73	-1.613
802.04	-4.000
802.34	-16.981
802.65	2.632
802.95	-1.818
803.26	-15.094
803.56	-11.475
803.87	-2.000
804.17	-1.852
804.48	3.846
804.78	-34.694
805.09	6.383
805.39	3.390
805.70	-18.750
806.00	-8.929
806.30	-20.339
806.61	3.077
806.91	-20.000
807.22	-22.368
807.52	0.000
807.83	-5.172
808.13	7.595
808.43	-14.754
808.74	-6.557
809.04	6.757
809.35	-3.704
809.65	-14.286
809.95	0.000
810.26	-24.490
810.56	3.774
810.86	-9.804
811.17	29.730
811.47	-59.259
811.77	-5.882
812.08	-27.273
812.38	-41.667
812.69	0.000
812.99	-14.286
813.29	6.522
813.59	-31.429
813.90	7.143
814.20	-5.455
814.50	-16.327
814.81	-3.922
815.11	-22.917
815.41	-21.951
815.72	-7.692
816.02	0.000
816.32	6.250
816.62	-9.091
816.93	-36.364
817.23	-27.027
817.53	-11.765
817.84	17.500
818.14	-29.412
818.44	-31.250
818.74	-76.190
819.04	-34.286
819.35	-14.286
819.65	-13.636
819.95	-23.077
820.25	-83.333
820.56	-34.483
820.86	14.286
821.16	-73.913
821.46	14.286
821.76	3.704
822.07	-21.739
822.37	-6.122
822.67	-23.256
822.97	-43.478
823.27	-53.846
823.57	-55.556
823.88	-17.857
824.18	-5.128
824.48	-10.714
824.78	-15.152
825.08	-113.333
825.38	-27.500
825.69	-122.222
825.99	-37.037
826.29	31.111
826.59	-59.259
826.89	-51.852
827.19	-53.571
827.49	-68.182
827.79	-77.273
828.09	-68.182
828.39	-82.609
828.70	-37.037
829.00	-17.857
829.30	7.143
829.60	-6.452
829.90	-80.769
830.20	-20.513
830.50	-22.727
830.80	-33.333
831.10	-94.444
831.40	-114.286
831.70	-33.333
832.00	-58.824
832.30	13.043
832.60	-66.667
832.90	-154.545
833.20	-127.778
833.50	-15.625
833.80	-46.154
834.10	-24.000
834.40	-16.667
834.70	-45.455
835.00	-3.846
835.30	-30.000
835.60	-170.000
835.90	-60.000
836.20	-92.857
836.50	-26.087
836.80	-77.778
837.10	-53.333
837.40	-200.000
837.70	-56.522
838.00	-128.571
838.30	1700.000
838.60	-8.000
838.90	-400.000
839.19	-133.333
839.49	-1100.000
839.79	-76.471
840.09	-177.778
840.39	21.429
840.69	-55.556
840.99	-125.000
841.29	-31.034
841.59	-60.000
841.88	-127.273
842.18	-283.333
842.48	-31.250
842.78	-19.231
843.08	-52.941
843.38	-35.000
843.68	-61.538
843.97	-82.353
844.27	-110.000
844.57	-16.667
844.87	-90.909
845.17	-78.947
845.47	-88.889
845.76	-27.778
846.06	-57.143
846.36	-14.286
846.66	-244.444
846.96	-45.000
847.25	-300.000
847.55	-225.000
847.85	-46.667
848.15	-200.000
848.44	-47.368
848.74	-60.000
849.04	-26.316
849.34	-166.667
849.63	-166.667
849.93	-5.882
850.23	-190.909
850.53	-266.667
850.82	-120.000
851.12	-144.444
851.42	-71.429
851.71	-160.000
852.01	-71.429
852.31	-466.667
852.61	-23.077
852.90	-260.000
853.20	-233.333
853.50	-233.333
853.79	-40.000
854.09	-95.000
854.39	-94.737
854.68	-50.000
854.98	-500.000
855.28	-27.778
855.57	-85.714
855.87	-47.368
856.17	-106.250
856.46	-26.923
856.76	20.000
857.05	-75.000
857.35	-16.667
857.65	-72.222
857.94	-112.500
858.24	8.696
858.53	-210.000
858.83	-533.333
859.13	-172.727
859.42	-230.000
859.72	216.667
860.01	-23.077
860.31	-140.000
860.60	-150.000
860.90	-450.000
861.20	-216.667
861.49	-250.000
861.79	900.000
862.08	0.000
862.38	-94.737
862.67	-46.154
862.97	-150.000
863.26	-91.667
863.56	-69.565
863.85	-333.333
864.15	-64.286
864.44	-43.750
864.74	-108.333
865.03	-133.333
865.33	-500.000
865.62	-1800.000
865.92	-800.000
866.21	-350.000
866.51	-90.909
866.80	-166.667
867.10	-128.571
867.39	0.000
867.69	-33.333
867.98	200.000
868.27	-450.000
868.57	450.000
868.86	-106.667
869.16	15.385
869.45	1100.000
869.75	-400.000
870.04	-125.000
870.33	-23.529
870.63	-228.571
870.92	21.739
871.22	-237.500
871.51	460.000
871.80	-37.500
872.10	-266.667
>>>>>End Processed Spectral Data<<<<<
