SpectraSuite Data File
++++++++++++++++++++++++++++++++++++
Date: Tue May 12 19:48:04 PDT 2015
User: schluterlab
Dark Spectrum Present: Yes
Reference Spectrum Present: Yes
Number of Sampled Component Spectra: 1
Spectrometers: USB2E3373
Integration Time (usec): 3000 (USB2E3373)
Spectra Averaged: 3 (USB2E3373)
Boxcar Smoothing: 0 (USB2E3373)
Correct for Electrical Dark: No (USB2E3373)
Strobe/Lamp Enabled: No (USB2E3373)
Correct for Detector Non-linearity: No (USB2E3373)
Correct for Stray Light: No (USB2E3373)
Number of Pixels in Processed Spectrum: 2048
>>>>>Begin Processed Spectral Data<<<<<
178.53	0.000
178.91	-40.000
179.29	-116.667
179.67	466.667
180.04	0.000
180.42	-240.000
180.80	-200.000
181.18	800.000
181.56	-200.000
181.94	283.333
182.31	1700.000
182.69	-71.429
183.07	0.000
183.45	208.333
183.83	380.000
184.20	50.000
184.58	450.000
184.96	316.667
185.34	-366.667
185.72	-57.143
186.09	-150.000
186.47	-1200.000
186.85	-220.000
187.23	158.333
187.61	-228.571
187.98	-240.000
188.36	900.000
188.74	-150.000
189.12	-33.333
189.49	-190.000
189.87	375.000
190.25	222.222
190.63	500.000
191.00	260.000
191.38	-566.667
191.76	420.000
192.14	-157.143
192.51	-160.000
192.89	-20.000
193.27	-40.000
193.65	-266.667
194.02	-183.333
194.40	1800.000
194.78	-287.500
195.15	-171.429
195.53	433.333
195.91	340.000
196.29	-250.000
196.66	-266.667
197.04	-171.429
197.42	220.000
197.79	-175.000
198.17	-75.000
198.55	-1500.000
198.92	-55.556
199.30	850.000
199.68	-150.000
200.05	-750.000
200.43	-27.778
200.81	-125.000
201.18	550.000
201.56	-500.000
201.94	-800.000
202.31	-41.667
202.69	-88.889
203.07	-75.000
203.44	-325.000
203.82	0.000
204.19	287.500
204.57	-466.667
204.95	154.545
205.32	300.000
205.70	450.000
206.08	-200.000
206.45	-100.000
206.83	1300.000
207.20	-155.556
207.58	-38.462
207.96	600.000
208.33	800.000
208.71	500.000
209.08	700.000
209.46	-88.889
209.84	566.667
210.21	-400.000
210.59	400.000
210.96	277.778
211.34	-425.000
211.71	700.000
212.09	-200.000
212.46	-100.000
212.84	-87.500
213.22	71.429
213.59	-137.500
213.97	0.000
214.34	-200.000
214.72	-300.000
215.09	550.000
215.47	-13.333
215.84	-187.500
216.22	-1400.000
216.59	1400.000
216.97	-58.333
217.34	-216.667
217.72	16.667
218.09	425.000
218.47	-100.000
218.84	-125.000
219.22	-57.143
219.59	-170.000
219.97	-50.000
220.34	233.333
220.72	81.818
221.09	-1400.000
221.47	0.000
221.84	250.000
222.22	-325.000
222.59	-375.000
222.97	-52.174
223.34	180.000
223.72	414.286
224.09	-183.333
224.46	146.154
224.84	-26.667
225.21	-250.000
225.59	-300.000
225.96	20.000
226.34	200.000
226.71	210.000
227.08	-61.538
227.46	14.286
227.83	-75.000
228.21	-400.000
228.58	233.333
228.95	5.263
229.33	12.500
229.70	-133.333
230.08	-233.333
230.45	-633.333
230.82	-1600.000
231.20	19.048
231.57	-260.000
231.95	-566.667
232.32	188.889
232.69	-1000.000
233.07	0.000
233.44	-200.000
233.81	3.226
234.19	-440.000
234.56	-33.333
234.93	-300.000
235.31	-22.222
235.68	-40.741
236.05	-23.077
236.43	-78.947
236.80	-27.273
237.17	-200.000
237.55	-70.000
237.92	4.651
238.29	-25.806
238.67	-25.000
239.04	25.714
239.41	-9.804
239.79	10.000
240.16	-7.500
240.53	-18.966
240.91	8.219
241.28	-12.676
241.65	15.625
242.02	-7.018
242.40	-9.333
242.77	2.105
243.14	4.706
243.51	4.301
243.89	0.952
244.26	0.000
244.63	7.143
245.00	-3.571
245.38	-1.681
245.75	0.847
246.12	6.250
246.49	2.400
246.87	4.918
247.24	3.521
247.61	5.960
247.98	8.989
248.36	3.145
248.73	5.682
249.10	6.667
249.47	5.208
249.84	2.538
250.22	0.521
250.59	6.180
250.96	10.455
251.33	6.132
251.70	8.257
252.08	9.957
252.45	6.531
252.82	2.954
253.19	7.004
253.56	10.196
253.94	4.065
254.31	12.950
254.68	8.333
255.05	12.583
255.42	10.909
255.79	11.589
256.16	8.333
256.54	12.121
256.91	13.462
257.28	11.039
257.65	5.902
258.02	9.309
258.39	11.178
258.76	8.563
259.14	7.353
259.51	7.887
259.88	13.256
260.25	9.943
260.62	5.899
260.99	5.014
261.36	8.621
261.73	9.600
262.10	12.534
262.47	9.642
262.85	11.054
263.22	8.065
263.59	14.209
263.96	10.966
264.33	9.164
264.70	10.319
265.07	8.867
265.44	12.178
265.81	13.012
266.18	8.665
266.55	12.143
266.92	14.286
267.29	11.778
267.66	8.182
268.03	12.258
268.40	10.526
268.77	11.581
269.14	10.504
269.51	11.086
269.88	12.607
270.25	11.814
270.62	14.286
270.99	9.684
271.36	11.479
271.73	10.208
272.10	12.241
272.47	11.200
272.84	9.342
273.21	9.395
273.58	9.796
273.95	11.554
274.32	11.992
274.69	11.350
275.06	12.383
275.43	9.200
275.80	13.767
276.17	10.277
276.54	13.688
276.91	11.900
277.28	10.832
277.65	9.263
278.02	12.121
278.39	13.975
278.76	11.732
279.13	14.490
279.50	12.816
279.87	10.755
280.23	10.929
280.60	11.131
280.97	13.357
281.34	10.847
281.71	8.171
282.08	11.270
282.45	10.053
282.82	11.616
283.19	11.111
283.56	11.604
283.92	11.374
284.29	9.306
284.66	11.858
285.03	8.748
285.40	12.500
285.77	10.837
286.14	10.460
286.51	10.611
286.87	10.211
287.24	11.378
287.61	11.420
287.98	12.833
288.35	11.628
288.72	11.621
289.08	8.648
289.45	10.452
289.82	10.248
290.19	11.667
290.56	11.288
290.93	10.931
291.29	11.348
291.66	9.831
292.03	11.765
292.40	11.942
292.77	10.496
293.13	11.013
293.50	10.331
293.87	10.957
294.24	11.938
294.60	11.475
294.97	7.895
295.34	9.178
295.71	9.015
296.08	9.153
296.44	10.672
296.81	7.891
297.18	10.996
297.55	10.302
297.91	8.883
298.28	9.335
298.65	8.926
299.02	9.618
299.38	8.929
299.75	9.138
300.12	10.911
300.48	9.742
300.85	8.313
301.22	8.894
301.59	10.462
301.95	10.000
302.32	9.842
302.69	8.205
303.05	9.799
303.42	9.058
303.79	8.427
304.15	8.834
304.52	10.391
304.89	8.681
305.25	9.404
305.62	8.864
305.99	8.399
306.35	9.508
306.72	9.477
307.09	9.249
307.45	9.169
307.82	9.285
308.19	11.221
308.55	9.810
308.92	9.428
309.29	9.100
309.65	8.978
310.02	9.224
310.38	9.915
310.75	9.119
311.12	8.850
311.48	11.100
311.85	7.903
312.22	9.298
312.58	9.164
312.95	10.986
313.31	10.521
313.68	10.328
314.05	10.626
314.41	9.627
314.78	10.452
315.14	10.970
315.51	10.725
315.87	10.840
316.24	11.177
316.61	14.175
316.97	13.824
317.34	11.388
317.70	13.165
318.07	10.897
318.43	13.894
318.80	13.934
319.16	12.488
319.53	14.057
319.89	14.394
320.26	15.143
320.62	14.050
320.99	15.612
321.35	16.107
321.72	17.879
322.08	18.119
322.45	16.075
322.81	17.734
323.18	17.546
323.54	19.810
323.91	19.829
324.27	18.226
324.64	18.088
325.00	20.655
325.37	21.223
325.73	20.620
326.10	22.504
326.46	22.484
326.83	24.626
327.19	24.367
327.56	26.525
327.92	25.521
328.29	26.434
328.65	27.778
329.01	27.982
329.38	27.640
329.74	28.691
330.11	29.077
330.47	29.236
330.84	28.571
331.20	29.020
331.56	29.717
331.93	30.650
332.29	31.637
332.66	31.646
333.02	32.312
333.38	32.077
333.75	33.303
334.11	32.550
334.48	32.826
334.84	31.549
335.20	32.319
335.57	33.697
335.93	33.674
336.29	34.004
336.66	33.789
337.02	33.998
337.38	34.528
337.75	34.636
338.11	33.546
338.47	34.540
338.84	34.162
339.20	34.464
339.56	34.390
339.93	34.595
340.29	34.723
340.65	34.703
341.02	34.367
341.38	35.216
341.74	35.498
342.11	34.836
342.47	33.916
342.83	34.432
343.20	35.544
343.56	33.741
343.92	36.220
344.28	34.391
344.65	35.017
345.01	34.582
345.37	33.675
345.73	35.056
346.10	34.918
346.46	34.167
346.82	35.769
347.19	33.810
347.55	36.139
347.91	34.152
348.27	35.552
348.63	34.831
349.00	35.810
349.36	35.367
349.72	35.386
350.08	34.124
350.45	35.557
350.81	35.343
351.17	34.761
351.53	33.414
351.89	35.751
352.26	33.902
352.62	35.078
352.98	35.565
353.34	35.171
353.70	33.827
354.07	35.255
354.43	34.808
354.79	35.246
355.15	34.060
355.51	35.860
355.87	35.720
356.24	36.601
356.60	34.891
356.96	35.229
357.32	35.638
357.68	34.765
358.04	34.198
358.40	35.925
358.77	35.582
359.13	34.940
359.49	34.560
359.85	35.492
360.21	34.259
360.57	34.928
360.93	36.184
361.29	35.748
361.66	34.700
362.02	35.322
362.38	34.654
362.74	35.511
363.10	34.389
363.46	34.612
363.82	34.074
364.18	35.201
364.54	34.427
364.90	34.370
365.26	35.469
365.62	35.352
365.98	34.933
366.35	34.871
366.71	34.653
367.07	34.686
367.43	35.379
367.79	33.721
368.15	34.099
368.51	34.607
368.87	36.417
369.23	35.958
369.59	35.735
369.95	34.203
370.31	34.470
370.67	35.865
371.03	35.062
371.39	35.121
371.75	35.067
372.11	34.148
372.47	36.006
372.83	36.085
373.19	35.693
373.55	34.506
373.91	35.000
374.27	36.203
374.63	35.346
374.99	34.187
375.35	34.543
375.71	35.796
376.07	35.124
376.42	35.062
376.78	35.331
377.14	35.894
377.50	35.226
377.86	35.167
378.22	35.733
378.58	36.184
378.94	35.822
379.30	34.041
379.66	35.211
380.02	34.202
380.38	34.097
380.74	36.296
381.09	35.769
381.45	35.556
381.81	34.885
382.17	35.505
382.53	36.160
382.89	35.856
383.25	34.940
383.61	35.855
383.97	35.478
384.32	35.742
384.68	35.249
385.04	34.564
385.40	34.569
385.76	35.104
386.12	35.050
386.48	34.768
386.83	35.681
387.19	35.057
387.55	35.622
387.91	34.766
388.27	35.765
388.62	35.104
388.98	36.069
389.34	35.068
389.70	35.449
390.06	35.908
390.42	35.091
390.77	36.016
391.13	34.938
391.49	36.860
391.85	35.662
392.20	36.502
392.56	35.429
392.92	36.178
393.28	34.411
393.64	36.162
393.99	35.455
394.35	36.665
394.71	35.232
395.07	34.416
395.42	34.794
395.78	34.745
396.14	34.910
396.50	34.864
396.85	33.840
397.21	35.511
397.57	34.496
397.92	35.305
398.28	36.451
398.64	34.540
399.00	35.229
399.35	34.525
399.71	35.509
400.07	35.763
400.42	35.833
400.78	36.084
401.14	35.606
401.49	34.853
401.85	34.921
402.21	35.850
402.57	33.290
402.92	36.587
403.28	34.980
403.63	35.577
403.99	35.205
404.35	34.841
404.70	35.465
405.06	34.036
405.42	35.198
405.77	35.196
406.13	34.886
406.49	34.700
406.84	35.305
407.20	35.254
407.55	34.603
407.91	35.524
408.27	35.505
408.62	34.727
408.98	35.972
409.34	34.699
409.69	34.515
410.05	34.391
410.40	33.462
410.76	34.869
411.11	34.648
411.47	35.782
411.83	33.806
412.18	35.013
412.54	35.123
412.89	35.039
413.25	33.918
413.60	34.503
413.96	35.016
414.31	34.608
414.67	36.327
415.03	35.131
415.38	33.914
415.74	34.251
416.09	34.045
416.45	35.386
416.80	34.840
417.16	35.049
417.51	34.629
417.87	35.363
418.22	33.489
418.58	34.140
418.93	34.429
419.29	34.532
419.64	36.401
420.00	34.840
420.35	35.719
420.71	35.275
421.06	35.367
421.42	35.320
421.77	35.323
422.12	33.373
422.48	34.323
422.83	34.711
423.19	33.941
423.54	33.842
423.90	34.487
424.25	35.347
424.61	34.452
424.96	35.012
425.31	33.877
425.67	34.788
426.02	34.534
426.38	34.749
426.73	35.452
427.09	35.194
427.44	35.741
427.79	36.077
428.15	34.115
428.50	36.118
428.85	35.215
429.21	35.804
429.56	35.746
429.92	35.208
430.27	34.827
430.62	34.776
430.98	34.068
431.33	35.206
431.68	35.066
432.04	34.925
432.39	33.809
432.74	35.737
433.10	35.779
433.45	34.769
433.80	34.940
434.16	35.616
434.51	34.727
434.86	34.985
435.22	34.866
435.57	35.950
435.92	33.746
436.28	35.679
436.63	35.599
436.98	36.173
437.34	35.701
437.69	35.926
438.04	34.856
438.39	36.292
438.75	34.954
439.10	35.774
439.45	37.548
439.81	35.937
440.16	34.941
440.51	34.944
440.86	35.732
441.22	34.425
441.57	35.157
441.92	35.505
442.27	34.686
442.63	34.989
442.98	35.330
443.33	35.664
443.68	34.554
444.03	35.206
444.39	35.034
444.74	35.260
445.09	35.773
445.44	35.102
445.79	36.192
446.15	35.394
446.50	35.859
446.85	35.369
447.20	34.683
447.55	35.253
447.91	35.920
448.26	36.202
448.61	35.529
448.96	35.778
449.31	35.142
449.66	34.201
450.02	34.556
450.37	36.027
450.72	35.069
451.07	35.926
451.42	36.430
451.77	34.363
452.12	36.028
452.47	35.298
452.83	34.184
453.18	35.246
453.53	36.904
453.88	37.652
454.23	35.719
454.58	37.272
454.93	35.286
455.28	35.981
455.63	36.647
455.98	36.104
456.34	35.633
456.69	36.967
457.04	34.646
457.39	35.893
457.74	36.599
458.09	35.408
458.44	36.113
458.79	35.395
459.14	35.480
459.49	36.561
459.84	36.385
460.19	35.647
460.54	35.038
460.89	34.353
461.24	36.429
461.59	35.836
461.94	36.358
462.29	34.962
462.64	35.724
462.99	36.258
463.34	36.044
463.69	37.243
464.04	36.690
464.39	36.463
464.74	35.886
465.09	35.756
465.44	35.153
465.79	35.921
466.14	35.322
466.49	36.109
466.84	34.828
467.19	34.893
467.54	33.952
467.89	36.381
468.24	35.164
468.59	35.537
468.94	36.449
469.29	37.232
469.64	35.959
469.99	35.328
470.34	35.007
470.68	36.154
471.03	35.474
471.38	37.023
471.73	37.500
472.08	36.157
472.43	37.898
472.78	35.968
473.13	37.193
473.48	37.137
473.83	37.186
474.17	35.023
474.52	37.508
474.87	36.679
475.22	36.404
475.57	35.605
475.92	35.645
476.27	34.720
476.61	36.111
476.96	36.455
477.31	36.073
477.66	36.258
478.01	37.022
478.36	36.562
478.70	36.563
479.05	36.332
479.40	35.600
479.75	38.026
480.10	36.418
480.45	36.859
480.79	35.703
481.14	35.793
481.49	36.504
481.84	36.313
482.19	35.854
482.53	35.588
482.88	35.841
483.23	36.080
483.58	36.139
483.92	36.583
484.27	35.673
484.62	35.832
484.97	35.018
485.31	34.841
485.66	33.047
486.01	31.433
486.36	32.045
486.70	32.294
487.05	33.492
487.40	33.333
487.75	33.381
488.09	33.083
488.44	33.451
488.79	34.633
489.13	34.414
489.48	35.380
489.83	35.136
490.17	36.053
490.52	35.612
490.87	36.499
491.22	36.637
491.56	36.364
491.91	36.145
492.26	36.563
492.60	36.837
492.95	36.704
493.30	36.017
493.64	35.396
493.99	36.037
494.34	36.442
494.68	35.927
495.03	35.497
495.37	35.580
495.72	36.129
496.07	36.460
496.41	35.919
496.76	35.435
497.11	35.943
497.45	36.966
497.80	36.033
498.14	37.276
498.49	35.985
498.84	35.587
499.18	35.651
499.53	36.552
499.87	36.354
500.22	36.156
500.56	37.153
500.91	37.441
501.26	35.223
501.60	35.984
501.95	36.080
502.29	36.326
502.64	34.694
502.98	35.437
503.33	34.898
503.67	35.835
504.02	36.313
504.36	36.107
504.71	36.170
505.06	36.315
505.40	36.729
505.75	34.966
506.09	36.620
506.44	36.749
506.78	36.081
507.13	35.831
507.47	37.230
507.82	35.826
508.16	36.860
508.51	36.761
508.85	36.538
509.19	36.423
509.54	37.167
509.88	36.824
510.23	37.191
510.57	37.252
510.92	37.302
511.26	36.071
511.61	37.272
511.95	36.553
512.30	36.290
512.64	36.774
512.98	37.626
513.33	36.284
513.67	36.766
514.02	36.959
514.36	36.951
514.70	37.280
515.05	36.402
515.39	37.767
515.74	37.343
516.08	37.100
516.42	37.415
516.77	36.894
517.11	36.636
517.46	37.539
517.80	39.247
518.14	36.686
518.49	37.840
518.83	37.549
519.17	36.954
519.52	37.726
519.86	37.175
520.20	37.516
520.55	37.206
520.89	38.596
521.23	37.475
521.58	36.706
521.92	37.917
522.26	38.282
522.61	37.816
522.95	37.808
523.29	38.529
523.64	38.128
523.98	37.500
524.32	38.384
524.66	38.477
525.01	38.488
525.35	37.551
525.69	36.752
526.04	38.901
526.38	39.822
526.72	38.264
527.06	38.397
527.41	37.704
527.75	38.047
528.09	37.765
528.43	37.208
528.78	37.526
529.12	36.986
529.46	37.940
529.80	36.896
530.15	37.804
530.49	38.842
530.83	37.021
531.17	37.359
531.51	37.830
531.86	37.605
532.20	36.941
532.54	38.417
532.88	37.382
533.22	38.290
533.57	36.759
533.91	36.683
534.25	37.542
534.59	37.414
534.93	35.930
535.27	35.219
535.62	35.449
535.96	36.706
536.30	36.326
536.64	36.409
536.98	37.242
537.32	37.798
537.66	36.657
538.01	36.745
538.35	36.800
538.69	36.730
539.03	36.193
539.37	36.181
539.71	36.377
540.05	36.469
540.39	35.294
540.73	36.190
541.07	37.206
541.42	35.068
541.76	35.252
542.10	35.653
542.44	34.176
542.78	36.804
543.12	34.152
543.46	36.513
543.80	34.596
544.14	36.703
544.48	34.386
544.82	35.557
545.16	37.174
545.50	35.953
545.84	36.211
546.18	36.404
546.52	36.357
546.86	36.649
547.20	35.682
547.54	34.951
547.88	34.330
548.22	35.443
548.56	36.082
548.90	35.579
549.24	35.673
549.58	36.811
549.92	35.263
550.26	36.371
550.60	35.210
550.94	37.222
551.28	36.667
551.62	37.592
551.96	35.783
552.30	36.124
552.64	35.162
552.98	34.993
553.32	35.455
553.66	36.343
554.00	35.676
554.34	36.250
554.68	36.284
555.02	36.270
555.36	36.060
555.69	34.896
556.03	33.629
556.37	34.809
556.71	34.842
557.05	36.406
557.39	36.225
557.73	35.613
558.07	35.524
558.41	35.754
558.75	35.851
559.08	37.021
559.42	35.786
559.76	35.383
560.10	36.349
560.44	35.709
560.78	34.936
561.12	35.387
561.45	34.152
561.79	33.774
562.13	34.692
562.47	34.709
562.81	35.102
563.15	34.525
563.48	34.082
563.82	33.624
564.16	33.672
564.50	33.668
564.84	34.940
565.17	34.835
565.51	34.412
565.85	33.662
566.19	34.447
566.52	34.480
566.86	33.675
567.20	33.599
567.54	32.482
567.88	32.706
568.21	32.298
568.55	32.088
568.89	32.637
569.23	29.920
569.56	30.115
569.90	29.636
570.24	28.920
570.57	28.555
570.91	28.857
571.25	28.650
571.59	27.934
571.92	27.256
572.26	27.399
572.60	28.319
572.93	27.570
573.27	26.801
573.61	27.391
573.95	26.846
574.28	26.400
574.62	26.056
574.96	26.232
575.29	25.942
575.63	26.128
575.97	26.085
576.30	26.171
576.64	26.158
576.98	26.140
577.31	26.111
577.65	25.929
577.98	25.529
578.32	25.424
578.66	25.402
578.99	26.176
579.33	26.106
579.67	25.848
580.00	25.909
580.34	25.674
580.67	25.992
581.01	25.903
581.35	24.865
581.68	24.650
582.02	24.905
582.35	25.038
582.69	25.138
583.02	25.421
583.36	25.118
583.70	25.471
584.03	25.598
584.37	25.921
584.70	25.305
585.04	25.222
585.37	24.994
585.71	25.554
586.04	25.738
586.38	25.797
586.72	25.552
587.05	25.998
587.39	25.036
587.72	25.424
588.06	25.484
588.39	25.592
588.73	25.890
589.06	26.129
589.40	26.223
589.73	26.664
590.07	26.520
590.40	27.204
590.73	27.530
591.07	27.273
591.40	27.273
591.74	27.425
592.07	28.223
592.41	27.648
592.74	27.184
593.08	26.935
593.41	25.814
593.75	26.559
594.08	27.029
594.41	26.564
594.75	26.468
595.08	26.607
595.42	26.098
595.75	26.061
596.09	26.421
596.42	26.300
596.75	27.591
597.09	26.493
597.42	26.795
597.75	27.486
598.09	26.873
598.42	27.260
598.76	26.821
599.09	26.387
599.42	25.649
599.76	25.736
600.09	26.335
600.42	24.844
600.76	25.982
601.09	25.529
601.42	25.403
601.76	25.649
602.09	26.644
602.42	27.225
602.76	27.312
603.09	26.980
603.42	26.746
603.76	25.976
604.09	26.734
604.42	26.750
604.76	26.654
605.09	26.878
605.42	26.967
605.75	26.131
606.09	27.067
606.42	26.159
606.75	26.332
607.09	26.866
607.42	26.939
607.75	26.860
608.08	26.427
608.42	26.576
608.75	26.113
609.08	26.098
609.41	27.424
609.75	27.699
610.08	26.667
610.41	26.819
610.74	26.542
611.07	26.970
611.41	26.606
611.74	27.203
612.07	27.455
612.40	27.019
612.73	27.604
613.07	26.835
613.40	27.832
613.73	27.377
614.06	27.459
614.39	27.885
614.72	28.394
615.06	27.210
615.39	27.771
615.72	26.708
616.05	26.609
616.38	26.453
616.71	27.861
617.05	27.324
617.38	27.935
617.71	28.282
618.04	28.844
618.37	27.992
618.70	29.959
619.03	30.022
619.36	30.191
619.69	29.705
620.03	29.901
620.36	29.630
620.69	29.120
621.02	28.741
621.35	30.553
621.68	31.233
622.01	30.036
622.34	29.229
622.67	29.680
623.00	29.812
623.33	29.528
623.66	29.323
623.99	29.585
624.32	29.547
624.65	28.516
624.99	28.047
625.32	29.858
625.65	29.944
625.98	30.833
626.31	29.091
626.64	30.811
626.97	32.169
627.30	30.926
627.63	32.186
627.96	31.750
628.29	30.784
628.62	31.546
628.95	32.207
629.28	32.128
629.61	33.229
629.94	33.091
630.26	32.218
630.59	32.984
630.92	31.191
631.25	32.961
631.58	32.907
631.91	32.916
632.24	33.018
632.57	35.196
632.90	33.210
633.23	36.645
633.56	32.075
633.89	33.377
634.22	34.872
634.55	33.509
634.88	34.404
635.20	37.260
635.53	34.777
635.86	35.598
636.19	34.106
636.52	33.827
636.85	34.550
637.18	34.456
637.51	35.908
637.83	33.799
638.16	34.566
638.49	35.591
638.82	34.740
639.15	34.429
639.48	33.770
639.81	33.532
640.13	34.456
640.46	37.795
640.79	35.349
641.12	34.419
641.45	35.770
641.77	34.395
642.10	37.622
642.43	36.532
642.76	36.738
643.09	36.159
643.41	38.351
643.74	36.806
644.07	35.450
644.40	37.004
644.73	35.727
645.05	40.076
645.38	36.731
645.71	37.214
646.04	39.219
646.36	36.932
646.69	38.685
647.02	42.188
647.35	37.000
647.67	39.679
648.00	40.583
648.33	35.645
648.66	38.961
648.98	34.407
649.31	36.317
649.64	38.038
649.96	33.446
650.29	35.752
650.62	34.508
650.94	38.262
651.27	36.802
651.60	34.990
651.92	37.595
652.25	33.652
652.58	31.957
652.90	31.851
653.23	37.112
653.56	34.896
653.88	33.577
654.21	35.728
654.54	33.396
654.86	38.489
655.19	31.452
655.52	29.955
655.84	22.730
656.17	20.818
656.49	27.952
656.82	32.166
657.15	26.512
657.47	19.871
657.80	14.512
658.13	12.088
658.45	20.499
658.78	19.441
659.10	19.002
659.43	20.484
659.75	20.887
660.08	23.001
660.41	24.186
660.73	27.424
661.06	31.455
661.38	37.702
661.71	33.917
662.03	36.574
662.36	37.947
662.68	35.971
663.01	38.942
663.33	38.208
663.66	41.866
663.98	37.164
664.31	34.634
664.63	34.862
664.96	38.955
665.28	37.589
665.61	34.813
665.93	35.714
666.26	39.294
666.58	35.550
666.91	40.281
667.23	39.655
667.56	36.790
667.88	36.842
668.21	35.787
668.53	37.563
668.86	37.500
669.18	35.533
669.50	39.846
669.83	35.500
670.15	37.500
670.48	35.840
670.80	38.579
671.13	35.904
671.45	37.245
671.77	39.855
672.10	34.286
672.42	31.673
672.75	32.816
673.07	34.019
673.39	33.074
673.72	33.264
674.04	35.106
674.37	34.873
674.69	36.449
675.01	36.279
675.34	33.824
675.66	34.762
675.98	32.828
676.31	39.295
676.63	36.082
676.95	34.293
677.28	36.386
677.60	36.842
677.92	35.088
678.25	32.947
678.57	33.875
678.89	33.028
679.22	33.486
679.54	36.748
679.86	33.833
680.18	33.054
680.51	31.417
680.83	32.292
681.15	35.948
681.48	30.000
681.80	28.478
682.12	32.548
682.44	29.310
682.77	31.364
683.09	34.069
683.41	36.090
683.73	34.171
684.06	33.756
684.38	34.532
684.70	35.104
685.02	29.437
685.34	29.707
685.67	31.621
685.99	32.934
686.31	32.090
686.63	30.097
686.96	30.894
687.28	28.542
687.60	31.417
687.92	32.278
688.24	29.684
688.56	27.912
688.89	29.224
689.21	29.535
689.53	31.969
689.85	32.911
690.17	32.108
690.49	34.118
690.82	33.415
691.14	35.248
691.46	31.500
691.78	30.861
692.10	33.028
692.42	31.651
692.74	33.649
693.06	32.048
693.39	31.281
693.71	30.698
694.03	28.986
694.35	29.950
694.67	30.280
694.99	36.658
695.31	32.011
695.63	30.000
695.95	34.831
696.27	32.295
696.59	30.267
696.91	33.048
697.23	33.811
697.56	28.756
697.88	29.274
698.20	31.477
698.52	29.327
698.84	29.073
699.16	28.232
699.48	30.366
699.80	29.670
700.12	30.579
700.44	30.973
700.76	34.069
701.08	32.063
701.40	36.184
701.72	38.333
702.04	30.952
702.36	33.115
702.68	32.550
703.00	30.599
703.32	29.641
703.64	33.754
703.96	29.430
704.28	26.408
704.60	33.562
704.91	28.947
705.23	29.825
705.55	29.368
705.87	26.978
706.19	37.052
706.51	32.422
706.83	32.601
707.15	30.847
707.47	28.443
707.79	29.513
708.11	31.481
708.43	29.867
708.74	28.142
709.06	30.368
709.38	27.300
709.70	28.896
710.02	26.923
710.34	25.887
710.66	32.584
710.98	30.769
711.29	32.302
711.61	27.305
711.93	29.963
712.25	32.830
712.57	33.594
712.89	30.612
713.20	30.242
713.52	31.707
713.84	31.752
714.16	31.081
714.48	27.304
714.80	29.630
715.11	32.646
715.43	29.352
715.75	29.474
716.07	31.636
716.39	34.471
716.70	28.000
717.02	31.452
717.34	35.065
717.66	32.727
717.97	34.259
718.29	35.556
718.61	32.883
718.93	28.571
719.24	30.962
719.56	30.804
719.88	29.020
720.20	23.504
720.51	29.386
720.83	31.799
721.15	28.571
721.46	31.224
721.78	27.706
722.10	29.457
722.42	29.130
722.73	28.507
723.05	26.728
723.37	25.792
723.68	31.754
724.00	27.315
724.32	28.972
724.63	33.937
724.95	27.854
725.27	28.638
725.58	34.247
725.90	25.225
726.22	28.384
726.53	27.049
726.85	29.259
727.16	30.364
727.48	33.871
727.80	25.571
728.11	24.889
728.43	32.099
728.74	30.263
729.06	29.258
729.38	28.295
729.69	24.800
730.01	23.849
730.32	26.693
730.64	30.385
730.96	25.483
731.27	25.483
731.59	24.579
731.90	21.382
732.22	21.595
732.53	24.211
732.85	25.704
733.16	26.740
733.48	25.746
733.80	24.364
734.11	28.369
734.43	29.964
734.74	18.692
735.06	25.723
735.37	18.530
735.69	22.183
736.00	24.074
736.32	26.224
736.63	25.185
736.95	20.623
737.26	28.261
737.58	19.708
737.89	23.396
738.21	25.573
738.52	29.098
738.83	28.632
739.15	25.000
739.46	26.126
739.78	21.622
740.09	24.206
740.41	26.136
740.72	26.295
741.04	24.111
741.35	28.251
741.66	28.495
741.98	25.000
742.29	30.570
742.61	23.699
742.92	25.980
743.23	29.851
743.55	30.570
743.86	23.671
744.18	24.000
744.49	26.111
744.80	27.957
745.12	26.667
745.43	26.738
745.74	19.786
746.06	31.034
746.37	20.556
746.68	25.946
747.00	22.652
747.31	25.131
747.62	29.474
747.94	29.245
748.25	30.542
748.56	28.283
748.88	24.044
749.19	30.052
749.50	28.824
749.82	30.500
750.13	27.184
750.44	22.747
750.75	24.800
751.07	23.013
751.38	26.172
751.69	27.381
752.01	25.210
752.32	23.554
752.63	24.891
752.94	20.400
753.26	22.831
753.57	24.171
753.88	21.860
754.19	20.264
754.51	19.665
754.82	23.333
755.13	20.796
755.44	24.675
755.75	26.506
756.07	23.605
756.38	24.686
756.69	23.019
757.00	24.113
757.31	20.415
757.63	21.242
757.94	19.091
758.25	23.512
758.56	21.892
758.87	20.238
759.18	27.103
759.50	21.352
759.81	20.077
760.12	21.708
760.43	24.585
760.74	22.754
761.05	21.474
761.36	22.849
761.67	16.109
761.99	24.415
762.30	20.364
762.61	26.016
762.92	20.889
763.23	27.442
763.54	21.320
763.85	23.982
764.16	20.870
764.47	23.913
764.78	22.177
765.10	24.016
765.41	18.060
765.72	20.736
766.03	24.415
766.34	23.106
766.65	26.953
766.96	24.889
767.27	26.257
767.58	32.704
767.89	20.130
768.20	17.568
768.51	20.115
768.82	16.875
769.13	23.148
769.44	17.453
769.75	19.608
770.06	16.019
770.37	20.213
770.68	17.949
770.99	19.797
771.30	19.072
771.61	17.937
771.92	25.472
772.23	16.346
772.54	24.118
772.85	26.712
773.16	16.774
773.47	22.293
773.78	20.359
774.09	18.421
774.39	21.324
774.70	24.812
775.01	14.615
775.32	19.048
775.63	18.898
775.94	24.528
776.25	22.963
776.56	22.727
776.87	27.350
777.18	22.000
777.48	21.154
777.79	16.667
778.10	8.491
778.41	25.490
778.72	21.698
779.03	19.298
779.34	15.126
779.65	23.944
779.95	23.022
780.26	22.581
780.57	21.014
780.88	15.596
781.19	11.111
781.50	24.590
781.80	18.978
782.11	19.872
782.42	7.586
782.73	20.280
783.04	16.000
783.34	13.600
783.65	19.512
783.96	20.492
784.27	14.286
784.57	15.888
784.88	18.750
785.19	26.804
785.50	16.842
785.81	30.000
786.11	5.941
786.42	11.765
786.73	28.125
787.04	17.347
787.34	19.444
787.65	36.792
787.96	11.340
788.26	13.861
788.57	16.522
788.88	12.844
789.19	11.570
789.49	22.609
789.80	28.448
790.11	10.976
790.41	10.112
790.72	16.279
791.03	6.977
791.33	-6.494
791.64	18.293
791.95	15.854
792.25	-6.024
792.56	2.469
792.87	15.493
793.17	16.867
793.48	4.706
793.79	8.750
794.09	1.667
794.40	13.043
794.70	16.522
795.01	20.183
795.32	17.323
795.62	10.784
795.93	11.765
796.23	19.192
796.54	9.302
796.85	15.942
797.15	4.687
797.46	-1.695
797.76	11.475
798.07	17.105
798.37	3.226
798.68	0.000
798.99	10.769
799.29	18.182
799.60	2.899
799.90	17.143
800.21	1.754
800.51	6.897
800.82	1.887
801.12	11.765
801.43	1.613
801.73	16.129
802.04	20.000
802.34	1.887
802.65	-7.895
802.95	9.091
803.26	16.981
803.56	-1.639
803.87	-4.000
804.17	16.667
804.48	11.538
804.78	-2.041
805.09	14.894
805.39	18.644
805.70	-10.417
806.00	5.357
806.30	8.475
806.61	13.846
806.91	-6.154
807.22	3.947
807.52	2.857
807.83	1.724
808.13	15.190
808.43	1.639
808.74	9.836
809.04	12.162
809.35	5.556
809.65	7.143
809.95	6.780
810.26	4.082
810.56	15.094
810.86	9.804
811.17	8.108
811.47	-48.148
811.77	11.765
812.08	11.364
812.38	-20.833
812.69	12.821
812.99	23.810
813.29	15.217
813.59	-5.714
813.90	-28.571
814.20	3.636
814.50	-2.041
814.81	-15.686
815.11	0.000
815.41	-4.878
815.72	-38.462
816.02	2.128
816.32	18.750
816.62	9.091
816.93	-9.091
817.23	-2.703
817.53	26.471
817.84	32.500
818.14	-35.294
818.44	-3.125
818.74	-38.095
819.04	5.714
819.35	-2.857
819.65	-2.273
819.95	0.000
820.25	-38.889
820.56	-44.828
820.86	3.571
821.16	-39.130
821.46	-4.762
821.76	35.185
822.07	17.391
822.37	-2.041
822.67	9.302
822.97	-47.826
823.27	-53.846
823.57	-29.630
823.88	-28.571
824.18	2.564
824.48	14.286
824.78	24.242
825.08	-53.333
825.38	5.000
825.69	-50.000
825.99	-3.704
826.29	24.444
826.59	-37.037
826.89	-11.111
827.19	-14.286
827.49	-31.818
827.79	-81.818
828.09	-4.545
828.39	-60.870
828.70	-33.333
829.00	-39.286
829.30	11.905
829.60	-9.677
829.90	-34.615
830.20	2.564
830.50	-4.545
830.80	4.762
831.10	-77.778
831.40	-71.429
831.70	-7.407
832.00	-82.353
832.30	13.043
832.60	-50.000
832.90	-118.182
833.20	-61.111
833.50	-21.875
833.80	-50.000
834.10	24.000
834.40	-20.833
834.70	-18.182
835.00	0.000
835.30	-30.000
835.60	-100.000
835.90	-25.000
836.20	-28.571
836.50	21.739
836.80	-66.667
837.10	-73.333
837.40	-120.000
837.70	21.739
838.00	-35.714
838.30	1900.000
838.60	32.000
838.90	-340.000
839.19	-155.556
839.49	-850.000
839.79	-64.706
840.09	-88.889
840.39	-7.143
840.69	-77.778
840.99	-108.333
841.29	-27.586
841.59	-86.667
841.88	-45.455
842.18	-316.667
842.48	-12.500
842.78	3.846
843.08	-111.765
843.38	-65.000
843.68	-38.462
843.97	-23.529
844.27	-30.000
844.57	-16.667
844.87	-36.364
845.17	-63.158
845.47	-33.333
845.76	-8.333
846.06	-9.524
846.36	-85.714
846.66	-177.778
846.96	-15.000
847.25	-80.000
847.55	-100.000
847.85	-53.333
848.15	-450.000
848.44	-52.632
848.74	-53.333
849.04	-52.632
849.34	-100.000
849.63	-150.000
849.93	5.882
850.23	-81.818
850.53	-366.667
850.82	-220.000
851.12	-177.778
851.42	-185.714
851.71	-120.000
852.01	-35.714
852.31	-233.333
852.61	-76.923
852.90	-220.000
853.20	-122.222
853.50	-55.556
853.79	-30.000
854.09	-85.000
854.39	-57.895
854.68	-40.000
854.98	-350.000
855.28	-44.444
855.57	-64.286
855.87	-68.421
856.17	-56.250
856.46	-15.385
856.76	-20.000
857.05	-56.250
857.35	-66.667
857.65	-61.111
857.94	-25.000
858.24	-56.522
858.53	-180.000
858.83	-366.667
859.13	-181.818
859.42	-60.000
859.72	16.667
860.01	-23.077
860.31	-90.000
860.60	-237.500
860.90	-600.000
861.20	-166.667
861.49	-350.000
861.79	450.000
862.08	16.129
862.38	-10.526
862.67	0.000
862.97	-220.000
863.26	-83.333
863.56	-34.783
863.85	-183.333
864.15	-28.571
864.44	-12.500
864.74	-133.333
865.03	-77.778
865.33	-266.667
865.62	-900.000
865.92	-800.000
866.21	-183.333
866.51	-118.182
866.80	-300.000
867.10	-214.286
867.39	-66.667
867.69	-108.333
867.98	360.000
868.27	-250.000
868.57	475.000
868.86	-60.000
869.16	-53.846
869.45	1100.000
869.75	-116.667
870.04	-125.000
870.33	17.647
870.63	-157.143
870.92	43.478
871.22	-125.000
871.51	520.000
871.80	-37.500
872.10	-266.667
>>>>>End Processed Spectral Data<<<<<
