SpectraSuite Data File
++++++++++++++++++++++++++++++++++++
Date: Tue May 12 19:53:53 PDT 2015
User: schluterlab
Dark Spectrum Present: Yes
Reference Spectrum Present: Yes
Number of Sampled Component Spectra: 1
Spectrometers: USB2E3373
Integration Time (usec): 3000 (USB2E3373)
Spectra Averaged: 3 (USB2E3373)
Boxcar Smoothing: 0 (USB2E3373)
Correct for Electrical Dark: No (USB2E3373)
Strobe/Lamp Enabled: No (USB2E3373)
Correct for Detector Non-linearity: No (USB2E3373)
Correct for Stray Light: No (USB2E3373)
Number of Pixels in Processed Spectrum: 2048
>>>>>Begin Processed Spectral Data<<<<<
178.53	0.000
178.91	-140.000
179.29	-200.000
179.67	366.667
180.04	0.000
180.42	-600.000
180.80	-500.000
181.18	1050.000
181.56	-750.000
181.94	416.667
182.31	2300.000
182.69	-214.286
183.07	0.000
183.45	233.333
183.83	460.000
184.20	333.333
184.58	1200.000
184.96	633.333
185.34	-433.333
185.72	-78.571
186.09	-216.667
186.47	-2300.000
186.85	-360.000
187.23	175.000
187.61	-271.429
187.98	-400.000
188.36	1250.000
188.74	-650.000
189.12	-144.444
189.49	-150.000
189.87	500.000
190.25	266.667
190.63	800.000
191.00	480.000
191.38	-600.000
191.76	680.000
192.14	-300.000
192.51	-190.000
192.89	-180.000
193.27	-400.000
193.65	-300.000
194.02	-316.667
194.40	1900.000
194.78	-212.500
195.15	-300.000
195.53	766.667
195.91	360.000
196.29	-525.000
196.66	-366.667
197.04	-414.286
197.42	420.000
197.79	-237.500
198.17	-116.667
198.55	-200.000
198.92	-233.333
199.30	850.000
199.68	-425.000
200.05	-1300.000
200.43	-55.556
200.81	-108.333
201.18	466.667
201.56	-1150.000
201.94	-2200.000
202.31	-91.667
202.69	-144.444
203.07	-158.333
203.44	-750.000
203.82	0.000
204.19	312.500
204.57	-733.333
204.95	236.364
205.32	340.000
205.70	575.000
206.08	-2300.000
206.45	-340.000
206.83	2200.000
207.20	-222.222
207.58	-100.000
207.96	733.333
208.33	866.667
208.71	666.667
209.08	450.000
209.46	-111.111
209.84	766.667
210.21	-1066.667
210.59	450.000
210.96	277.778
211.34	-500.000
211.71	1650.000
212.09	-240.000
212.46	-200.000
212.84	-175.000
213.22	228.571
213.59	-175.000
213.97	0.000
214.34	-800.000
214.72	-1700.000
215.09	550.000
215.47	-53.333
215.84	-212.500
216.22	-1800.000
216.59	1300.000
216.97	-116.667
217.34	-433.333
217.72	-27.778
218.09	400.000
218.47	-73.684
218.84	-300.000
219.22	-71.429
219.59	-140.000
219.97	-130.000
220.34	400.000
220.72	209.091
221.09	-1250.000
221.47	0.000
221.84	450.000
222.22	-500.000
222.59	-475.000
222.97	-39.130
223.34	200.000
223.72	400.000
224.09	-250.000
224.46	192.308
224.84	-66.667
225.21	-750.000
225.59	-250.000
225.96	-15.000
226.34	583.333
226.71	360.000
227.08	-84.615
227.46	-171.429
227.83	-158.333
228.21	-1100.000
228.58	383.333
228.95	-63.158
229.33	-56.250
229.70	-166.667
230.08	-155.556
230.45	-766.667
230.82	-1600.000
231.20	-52.381
231.57	-380.000
231.95	-600.000
232.32	177.778
232.69	-1050.000
233.07	-25.000
233.44	-62.500
233.81	0.000
234.19	-400.000
234.56	-33.333
234.93	-250.000
235.31	-14.815
235.68	-14.815
236.05	-26.923
236.43	-68.421
236.80	-40.909
237.17	-114.286
237.55	-60.000
237.92	25.581
238.29	-29.032
238.67	35.714
239.04	2.857
239.41	19.608
239.79	18.000
240.16	0.000
240.53	17.241
240.91	12.329
241.28	22.535
241.65	21.875
242.02	7.018
242.40	21.333
242.77	17.895
243.14	41.176
243.51	24.731
243.89	23.810
244.26	32.407
244.63	36.735
245.00	19.643
245.38	18.487
245.75	37.288
246.12	39.062
246.49	34.400
246.87	22.951
247.24	23.944
247.61	31.126
247.98	33.708
248.36	32.704
248.73	35.227
249.10	27.778
249.47	38.021
249.84	35.533
250.22	30.729
250.59	38.764
250.96	35.455
251.33	42.453
251.70	34.862
252.08	40.693
252.45	36.327
252.82	32.489
253.19	38.132
253.56	39.608
253.94	37.398
254.31	40.647
254.68	36.806
255.05	40.066
255.42	41.091
255.79	43.709
256.16	38.194
256.54	39.091
256.91	37.500
257.28	37.338
257.65	37.049
258.02	39.640
258.39	39.879
258.76	39.755
259.14	34.706
259.51	38.592
259.88	39.769
260.25	41.761
260.62	36.236
260.99	39.833
261.36	43.966
261.73	41.067
262.10	43.052
262.47	42.700
262.85	40.617
263.22	38.441
263.59	40.751
263.96	38.120
264.33	39.892
264.70	39.803
265.07	39.409
265.44	39.813
265.81	41.928
266.18	42.389
266.55	43.095
266.92	39.063
267.29	42.667
267.66	40.455
268.03	40.645
268.40	39.817
268.77	40.312
269.14	40.966
269.51	39.819
269.88	42.521
270.25	40.717
270.62	40.126
270.99	40.211
271.36	42.826
271.73	41.875
272.10	39.627
272.47	39.600
272.84	37.155
273.21	39.457
273.58	40.816
273.95	41.833
274.32	40.039
274.69	40.117
275.06	39.962
275.43	39.000
275.80	41.109
276.17	38.538
276.54	43.156
276.91	40.115
277.28	40.812
277.65	39.130
278.02	39.583
278.39	42.831
278.76	42.272
279.13	42.218
279.50	38.087
279.87	41.887
280.23	40.984
280.60	40.636
280.97	40.773
281.34	38.644
281.71	37.655
282.08	40.966
282.45	38.977
282.82	39.562
283.19	38.384
283.56	41.468
283.92	38.231
284.29	41.624
284.66	37.522
285.03	37.907
285.40	40.000
285.77	41.051
286.14	38.827
286.51	40.354
286.87	40.843
287.24	37.660
287.61	37.191
287.98	41.002
288.35	39.225
288.72	37.920
289.08	37.893
289.45	38.378
289.82	37.112
290.19	38.636
290.56	35.890
290.93	36.484
291.29	36.312
291.66	36.657
292.03	36.442
292.40	35.827
292.77	33.528
293.13	34.214
293.50	34.022
293.87	36.061
294.24	34.831
294.60	36.202
294.97	32.964
295.34	33.836
295.71	32.732
296.08	31.557
296.44	33.860
296.81	32.730
297.18	32.600
297.55	33.417
297.91	31.726
298.28	31.586
298.65	31.307
299.02	33.046
299.38	32.270
299.75	32.432
300.12	31.775
300.48	29.930
300.85	31.296
301.22	30.769
301.59	30.292
301.95	31.585
302.32	29.891
302.69	29.727
303.05	31.287
303.42	30.676
303.79	31.573
304.15	30.691
304.52	30.279
304.89	30.327
305.25	30.734
305.62	31.705
305.99	28.779
306.35	31.879
306.72	29.085
307.09	29.053
307.45	29.881
307.82	30.096
308.19	29.593
308.55	31.224
308.92	28.814
309.29	30.335
309.65	29.618
310.02	30.922
310.38	31.450
310.75	31.045
311.12	31.536
311.48	31.655
311.85	28.977
312.22	31.198
312.58	30.211
312.95	31.930
313.31	31.072
313.68	31.877
314.05	33.962
314.41	30.550
314.78	31.256
315.14	31.734
315.51	32.274
315.87	34.277
316.24	32.839
316.61	32.621
316.97	32.451
317.34	34.163
317.70	33.707
318.07	35.198
318.43	34.594
318.80	35.064
319.16	34.203
319.53	36.038
319.89	36.553
320.26	37.365
320.62	36.725
320.99	38.061
321.35	36.759
321.72	37.677
322.08	38.020
322.45	39.053
322.81	38.621
323.18	38.063
323.54	37.820
323.91	40.512
324.27	40.598
324.64	38.988
325.00	39.672
325.37	40.647
325.73	40.967
326.10	40.893
326.46	41.795
326.83	42.744
327.19	43.144
327.56	43.943
327.92	41.927
328.29	42.563
328.65	44.539
329.01	43.211
329.38	43.434
329.74	44.290
330.11	43.057
330.47	43.482
330.84	43.515
331.20	44.455
331.56	44.151
331.93	44.465
332.29	46.346
332.66	44.123
333.02	46.147
333.38	45.404
333.75	45.929
334.11	43.671
334.48	45.617
334.84	45.446
335.20	43.151
335.57	45.050
335.93	45.674
336.29	43.601
336.66	43.807
337.02	44.696
337.38	44.906
337.75	45.909
338.11	45.579
338.47	46.890
338.84	45.488
339.20	45.738
339.56	46.412
339.93	45.495
340.29	45.784
340.65	45.753
341.02	45.084
341.38	45.896
341.74	45.907
342.11	45.181
342.47	44.843
342.83	45.447
343.20	45.358
343.56	46.853
343.92	45.757
344.28	44.168
344.65	45.034
345.01	45.993
345.37	45.897
345.73	44.961
346.10	46.759
346.46	43.831
346.82	45.455
347.19	45.921
347.55	46.003
347.91	46.028
348.27	46.672
348.63	47.364
349.00	47.746
349.36	45.672
349.72	46.059
350.08	45.090
350.45	46.623
350.81	46.160
351.17	44.563
351.53	45.733
351.89	46.891
352.26	45.447
352.62	46.525
352.98	47.950
353.34	47.201
353.70	46.255
354.07	46.705
354.43	46.411
354.79	46.475
355.15	47.619
355.51	47.351
355.87	47.710
356.24	47.876
356.60	47.245
356.96	45.656
357.32	48.971
357.68	48.130
358.04	46.677
358.40	47.218
358.77	47.871
359.13	47.871
359.49	48.080
359.85	49.321
360.21	48.057
360.57	48.325
360.93	50.119
361.29	49.611
361.66	47.871
362.02	48.509
362.38	48.873
362.74	48.117
363.10	47.662
363.46	49.059
363.82	47.626
364.18	50.114
364.54	47.099
364.90	48.370
365.26	48.584
365.62	50.643
365.98	48.951
366.35	49.017
366.71	49.589
367.07	49.077
367.43	48.087
367.79	49.128
368.15	48.925
368.51	50.637
368.87	50.954
369.23	51.930
369.59	49.706
369.95	49.478
370.31	50.606
370.67	50.977
371.03	50.310
371.39	52.492
371.75	50.297
372.11	49.407
372.47	49.220
372.83	50.110
373.19	50.226
373.55	50.150
373.91	50.530
374.27	53.495
374.63	51.325
374.99	50.073
375.35	49.855
375.71	50.861
376.07	50.318
376.42	51.176
376.78	51.777
377.14	51.606
377.50	51.710
377.86	51.950
378.22	52.246
378.58	51.908
378.94	51.604
379.30	50.257
379.66	51.088
380.02	52.320
380.38	52.481
380.74	51.771
381.09	51.588
381.45	52.825
381.81	51.148
382.17	51.661
382.53	51.874
382.89	52.470
383.25	52.315
383.61	52.003
383.97	51.462
384.32	51.677
384.68	52.427
385.04	51.432
385.40	52.396
385.76	50.791
386.12	51.089
386.48	52.642
386.83	50.955
387.19	51.724
387.55	53.368
387.91	52.710
388.27	51.440
388.62	51.878
388.98	52.799
389.34	51.724
389.70	51.603
390.06	51.683
390.42	54.091
390.77	52.247
391.13	52.245
391.49	53.976
391.85	52.761
392.20	53.597
392.56	51.539
392.92	52.134
393.28	51.586
393.64	52.375
393.99	52.403
394.35	52.693
394.71	53.444
395.07	53.780
395.42	51.873
395.78	52.487
396.14	51.233
396.50	51.876
396.85	52.611
397.21	50.259
397.57	53.127
397.92	51.590
398.28	52.578
398.64	52.063
399.00	52.118
399.35	51.817
399.71	51.437
400.07	51.822
400.42	52.179
400.78	52.591
401.14	52.083
401.49	51.780
401.85	52.952
402.21	52.602
402.57	50.741
402.92	51.992
403.28	51.560
403.63	51.667
403.99	51.519
404.35	50.255
404.70	51.045
405.06	51.457
405.42	51.074
405.77	50.238
406.13	49.821
406.49	51.420
406.84	51.308
407.20	50.496
407.55	52.238
407.91	50.769
408.27	51.529
408.62	50.675
408.98	50.837
409.34	50.704
409.69	50.435
410.05	50.130
410.40	49.775
410.76	50.747
411.11	49.838
411.47	49.864
411.83	49.066
412.18	50.065
412.54	50.776
412.89	49.935
413.25	51.473
413.60	51.403
413.96	50.097
414.31	49.458
414.67	50.912
415.03	51.107
415.38	50.905
415.74	49.765
416.09	50.172
416.45	50.248
416.80	49.444
417.16	49.929
417.51	49.341
417.87	52.120
418.22	49.599
418.58	50.311
418.93	49.452
419.29	48.507
419.64	51.786
420.00	48.919
420.35	50.659
420.71	49.616
421.06	49.838
421.42	50.063
421.77	50.853
422.12	48.494
422.48	49.743
422.83	48.693
423.19	50.353
423.54	49.786
423.90	50.062
424.25	50.876
424.61	49.613
424.96	49.754
425.31	50.242
425.67	50.000
426.02	50.186
426.38	50.193
426.73	50.218
427.09	49.311
427.44	48.951
427.79	50.804
428.15	49.841
428.50	49.497
428.85	49.198
429.21	51.166
429.56	49.061
429.92	49.757
430.27	48.747
430.62	49.054
430.98	48.307
431.33	49.722
431.68	49.726
432.04	49.770
432.39	49.138
432.74	48.577
433.10	49.363
433.45	49.335
433.80	47.976
434.16	49.137
434.51	47.882
434.86	49.970
435.22	48.836
435.57	50.462
435.92	47.988
436.28	49.564
436.63	48.718
436.98	50.926
437.34	49.904
437.69	49.506
438.04	48.918
438.39	49.413
438.75	48.800
439.10	50.536
439.45	50.000
439.81	48.635
440.16	49.907
440.51	48.637
440.86	49.432
441.22	49.792
441.57	48.946
441.92	48.923
442.27	49.257
442.63	49.492
442.98	49.817
443.33	48.942
443.68	48.419
444.03	48.454
444.39	48.725
444.74	47.968
445.09	49.823
445.44	49.096
445.79	48.921
446.15	48.630
446.50	49.046
446.85	49.175
447.20	48.687
447.55	47.702
447.91	48.442
448.26	48.605
448.61	47.372
448.96	47.901
449.31	48.523
449.66	47.579
450.02	48.225
450.37	48.481
450.72	48.175
451.07	49.506
451.42	47.958
451.77	48.865
452.12	47.682
452.47	49.051
452.83	47.136
453.18	48.616
453.53	48.269
453.88	46.522
454.23	47.732
454.58	46.932
454.93	45.504
455.28	46.911
455.63	47.368
455.98	47.779
456.34	47.354
456.69	46.852
457.04	47.310
457.39	46.692
457.74	45.954
458.09	46.671
458.44	48.069
458.79	46.643
459.14	46.810
459.49	46.242
459.84	47.444
460.19	46.529
460.54	45.833
460.89	46.000
461.24	46.623
461.59	46.688
461.94	44.313
462.29	45.301
462.64	46.031
462.99	46.773
463.34	46.813
463.69	46.639
464.04	46.055
464.39	47.203
464.74	46.139
465.09	45.723
465.44	45.471
465.79	44.765
466.14	45.346
466.49	44.735
466.84	46.069
467.19	44.185
467.54	44.695
467.89	45.656
468.24	44.760
468.59	43.783
468.94	45.393
469.29	44.844
469.64	44.785
469.99	44.052
470.34	43.211
470.68	43.154
471.03	43.431
471.38	43.530
471.73	44.549
472.08	43.701
472.43	43.707
472.78	44.960
473.13	43.509
473.48	44.398
473.83	44.386
474.17	44.563
474.52	44.742
474.87	44.129
475.22	43.266
475.57	43.243
475.92	43.718
476.27	42.917
476.61	43.322
476.96	43.391
477.31	43.607
477.66	43.114
478.01	43.025
478.36	42.865
478.70	44.000
479.05	43.471
479.40	43.173
479.75	43.634
480.10	43.561
480.45	42.932
480.79	43.020
481.14	43.595
481.49	43.033
481.84	44.646
482.19	43.512
482.53	42.892
482.88	43.213
483.23	44.121
483.58	42.426
483.92	42.864
484.27	42.691
484.62	43.046
484.97	42.091
485.31	41.415
485.66	40.710
486.01	41.210
486.36	42.193
486.70	42.443
487.05	42.371
487.40	41.680
487.75	41.512
488.09	40.539
488.44	41.690
488.79	41.552
489.13	41.646
489.48	42.182
489.83	40.037
490.17	41.163
490.52	41.444
490.87	41.197
491.22	41.519
491.56	40.860
491.91	41.767
492.26	41.458
492.60	40.510
492.95	40.349
493.30	41.871
493.64	41.633
493.99	41.068
494.34	41.156
494.68	41.031
495.03	40.162
495.37	40.091
495.72	40.665
496.07	40.213
496.41	40.563
496.76	39.733
497.11	40.768
497.45	41.436
497.80	40.654
498.14	41.235
498.49	40.470
498.84	38.208
499.18	39.388
499.53	40.291
499.87	40.707
500.22	39.844
500.56	41.392
500.91	40.168
501.26	40.525
501.60	40.418
501.95	40.686
502.29	40.174
502.64	39.423
502.98	38.768
503.33	38.842
503.67	40.225
504.02	39.837
504.36	40.164
504.71	39.415
505.06	40.064
505.40	40.161
505.75	39.705
506.09	39.382
506.44	39.217
506.78	39.775
507.13	39.305
507.47	39.114
507.82	39.286
508.16	39.699
508.51	40.208
508.85	39.725
509.19	38.947
509.54	39.603
509.88	39.298
510.23	39.944
510.57	38.558
510.92	39.796
511.26	38.599
511.61	39.041
511.95	38.982
512.30	39.362
512.64	39.941
512.98	39.870
513.33	38.218
513.67	38.263
514.02	40.325
514.36	39.027
514.70	39.951
515.05	39.268
515.39	39.335
515.74	39.160
516.08	38.544
516.42	39.528
516.77	39.255
517.11	39.083
517.46	39.350
517.80	39.183
518.14	38.963
518.49	39.004
518.83	39.105
519.17	38.560
519.52	38.726
519.86	38.379
520.20	38.599
520.55	39.556
520.89	39.676
521.23	38.210
521.58	39.220
521.92	37.917
522.26	39.313
522.61	39.386
522.95	38.767
523.29	38.731
523.64	38.874
523.98	38.038
524.32	39.461
524.66	38.409
525.01	39.244
525.35	38.167
525.69	38.197
526.04	39.746
526.38	38.382
526.72	39.861
527.06	39.030
527.41	38.696
527.75	39.411
528.09	38.119
528.43	38.129
528.78	37.526
529.12	38.425
529.46	37.542
529.80	37.849
530.15	37.943
530.49	38.075
530.83	37.527
531.17	37.924
531.51	38.544
531.86	38.866
532.20	37.302
532.54	36.835
532.88	37.236
533.22	38.578
533.57	37.172
533.91	38.266
534.25	37.746
534.59	38.171
534.93	37.609
535.27	37.037
535.62	37.407
535.96	38.172
536.30	38.065
536.64	37.411
536.98	38.348
537.32	37.649
537.66	38.490
538.01	37.776
538.35	37.600
538.69	36.872
539.03	37.275
539.37	36.181
539.71	37.464
540.05	36.975
540.39	37.981
540.73	38.462
541.07	35.441
541.42	36.422
541.76	37.050
542.10	37.661
542.44	38.150
542.78	36.070
543.12	36.318
543.46	37.630
543.80	36.741
544.14	36.559
544.48	35.860
544.82	35.770
545.16	37.319
545.50	37.555
545.84	36.064
546.18	36.929
546.52	35.127
546.86	36.649
547.20	36.591
547.54	35.709
547.88	36.325
548.22	36.146
548.56	37.350
548.90	35.509
549.24	37.061
549.58	35.842
549.92	36.241
550.26	37.375
550.60	36.796
550.94	36.587
551.28	36.423
551.62	38.084
551.96	35.543
552.30	37.209
552.64	36.364
552.98	35.587
553.32	36.288
553.66	35.964
554.00	36.525
554.34	37.109
554.68	36.045
555.02	35.159
555.36	35.981
555.69	35.588
556.03	35.846
556.37	36.234
556.71	36.425
557.05	36.172
557.39	36.225
557.73	36.164
558.07	34.977
558.41	34.717
558.75	36.017
559.08	37.532
559.42	36.706
559.76	35.720
560.10	34.882
560.44	35.471
560.78	35.988
561.12	35.237
561.45	34.821
561.79	35.389
562.13	34.989
562.47	34.862
562.81	35.330
563.15	35.513
563.48	33.933
563.82	35.517
564.16	35.486
564.50	36.390
564.84	35.648
565.17	35.408
565.51	35.820
565.85	35.282
566.19	36.047
566.52	36.057
566.86	35.792
567.20	34.930
567.54	34.397
567.88	34.102
568.21	34.349
568.55	35.654
568.89	34.505
569.23	34.839
569.56	34.943
569.90	34.690
570.24	34.043
570.57	34.086
570.91	34.498
571.25	33.884
571.59	34.656
571.92	33.519
572.26	34.187
572.60	33.419
572.93	33.268
573.27	33.582
573.61	33.302
573.95	33.296
574.28	33.572
574.62	32.420
574.96	33.403
575.29	33.092
575.63	32.746
575.97	33.379
576.30	33.864
576.64	33.186
576.98	32.995
577.31	33.274
577.65	33.405
577.98	33.537
578.32	33.190
578.66	33.407
578.99	33.493
579.33	33.265
579.67	32.864
580.00	32.840
580.34	33.172
580.67	32.477
581.01	33.026
581.35	33.146
581.68	32.757
582.02	33.428
582.35	32.691
582.69	33.379
583.02	32.995
583.36	32.846
583.70	33.185
584.03	33.250
584.37	32.972
584.70	32.652
585.04	32.490
585.37	32.993
585.71	32.503
586.04	32.910
586.38	33.342
586.72	32.970
587.05	33.126
587.39	33.104
587.72	33.093
588.06	32.829
588.39	32.661
588.73	33.292
589.06	32.554
589.40	33.017
589.73	32.872
590.07	32.907
590.40	33.096
590.73	33.569
591.07	32.684
591.40	33.668
591.74	33.256
592.07	33.190
592.41	33.411
592.74	32.424
593.08	33.171
593.41	32.431
593.75	33.131
594.08	33.929
594.41	33.082
594.75	33.712
595.08	32.256
595.42	32.332
595.75	32.727
596.09	32.506
596.42	31.839
596.75	32.636
597.09	31.950
597.42	31.910
597.75	32.645
598.09	32.772
598.42	32.750
598.76	32.741
599.09	32.815
599.42	32.140
599.76	32.248
600.09	33.136
600.42	32.305
600.76	31.832
601.09	31.922
601.42	32.448
601.76	31.899
602.09	31.965
602.42	32.566
602.76	32.635
603.09	32.376
603.42	32.581
603.76	32.102
604.09	32.581
604.42	32.632
604.76	32.086
605.09	31.649
605.42	32.133
605.75	32.252
606.09	32.489
606.42	32.196
606.75	32.238
607.09	32.696
607.42	31.849
607.75	31.680
608.08	32.086
608.42	32.396
608.75	31.666
609.08	32.055
609.41	33.230
609.75	31.754
610.08	32.041
610.41	31.450
610.74	31.901
611.07	32.258
611.41	31.745
611.74	31.556
612.07	32.589
612.40	32.423
612.73	32.407
613.07	32.824
613.40	32.490
613.73	31.615
614.06	31.089
614.39	32.455
614.72	31.936
615.06	33.352
615.39	32.102
615.72	31.803
616.05	32.290
616.38	31.791
616.71	32.276
617.05	31.533
617.38	31.806
617.71	32.266
618.04	31.735
618.37	32.440
618.70	32.133
619.03	34.228
619.36	33.432
619.69	31.415
620.03	32.799
620.36	32.502
620.69	31.929
621.02	32.225
621.35	32.255
621.68	32.763
622.01	31.818
622.34	32.831
622.67	31.703
623.00	31.532
623.33	31.181
623.66	33.068
623.99	32.935
624.32	31.454
624.65	30.391
624.99	32.422
625.32	32.148
625.65	31.545
625.98	32.917
626.31	32.468
626.64	32.703
626.97	33.640
627.30	33.519
627.63	32.372
627.96	31.844
628.29	32.122
628.62	32.577
628.95	32.101
629.28	32.025
629.61	31.348
629.94	33.817
630.26	34.205
630.59	33.298
630.92	30.558
631.25	32.849
631.58	32.326
631.91	32.574
632.24	31.243
632.57	33.650
632.90	34.686
633.23	33.032
633.56	32.453
633.89	32.718
634.22	34.231
634.55	32.063
634.88	33.869
635.20	32.329
635.53	34.218
635.86	33.560
636.19	33.288
636.52	32.615
636.85	31.551
637.18	32.383
637.51	34.282
637.83	33.240
638.16	32.290
638.49	31.556
638.82	34.037
639.15	31.714
639.48	32.751
639.81	33.383
640.13	32.619
640.46	32.598
640.79	32.403
641.12	33.333
641.45	31.882
641.77	29.777
642.10	31.922
642.43	33.838
642.76	32.796
643.09	33.737
643.41	31.900
643.74	32.292
644.07	31.217
644.40	33.574
644.73	32.597
645.05	32.443
645.38	34.808
645.71	32.443
646.04	31.227
646.36	30.492
646.69	33.849
647.02	34.961
647.35	35.200
647.67	33.667
648.00	33.592
648.33	34.297
648.66	32.653
648.98	31.695
649.31	33.907
649.64	32.702
649.96	30.912
650.29	31.504
650.62	29.870
650.94	33.272
651.27	31.214
651.60	30.210
651.92	30.534
652.25	29.637
652.58	30.880
652.90	32.028
653.23	29.982
653.56	30.035
653.88	33.212
654.21	34.783
654.54	29.831
654.86	32.554
655.19	31.613
655.52	32.962
655.84	32.518
656.17	32.121
656.49	43.065
656.82	49.263
657.15	39.167
657.47	29.508
657.80	21.683
658.13	17.981
658.45	29.706
658.78	29.237
659.10	28.437
659.43	28.893
659.75	28.291
660.08	27.982
660.41	29.418
660.73	25.900
661.06	28.182
661.38	31.855
661.71	31.072
662.03	31.481
662.36	28.162
662.68	30.695
663.01	30.769
663.33	32.311
663.66	31.579
663.98	32.029
664.31	30.732
664.63	32.110
664.96	31.591
665.28	30.733
665.61	32.710
665.93	30.415
666.26	30.243
666.58	27.752
666.91	32.319
667.23	31.034
667.56	34.074
667.88	30.326
668.21	30.964
668.53	34.010
668.86	30.867
669.18	31.472
669.50	29.049
669.83	31.500
670.15	31.750
670.48	29.323
670.80	33.756
671.13	27.229
671.45	31.633
671.77	33.333
672.10	27.912
672.42	28.486
672.75	29.903
673.07	32.336
673.39	29.961
673.72	30.785
674.04	28.723
674.37	30.716
674.69	28.505
675.01	32.326
675.34	26.471
675.66	29.048
675.98	30.051
676.31	27.708
676.63	27.320
676.95	31.894
677.28	28.218
677.60	28.822
677.92	31.579
678.25	28.538
678.57	29.002
678.89	27.752
679.22	31.422
679.54	30.735
679.86	32.548
680.18	30.544
680.51	30.595
680.83	29.583
681.15	30.719
681.48	29.787
681.80	27.174
682.12	31.692
682.44	30.172
682.77	32.045
683.09	30.147
683.41	30.576
683.73	30.905
684.06	29.949
684.38	29.736
684.70	30.716
685.02	29.437
685.34	29.289
685.67	28.458
685.99	29.541
686.31	31.903
686.63	30.680
686.96	29.065
687.28	29.979
687.60	27.310
687.92	27.426
688.24	30.526
688.56	27.912
688.89	30.594
689.21	30.465
689.53	29.156
689.85	29.873
690.17	29.167
690.49	28.941
690.82	29.238
691.14	31.854
691.46	28.000
691.78	28.708
692.10	29.358
692.42	30.734
692.74	30.569
693.06	28.434
693.39	31.034
693.71	26.047
694.03	28.744
694.35	27.723
694.67	29.771
694.99	29.380
695.31	26.912
695.63	26.216
695.95	28.933
696.27	30.028
696.59	27.300
696.91	25.641
697.23	33.524
697.56	31.347
697.88	29.742
698.20	27.603
698.52	28.606
698.84	28.822
699.16	27.441
699.48	28.534
699.80	30.495
700.12	29.477
700.44	26.844
700.76	29.022
701.08	27.937
701.40	33.224
701.72	27.333
702.04	30.272
702.36	29.836
702.68	25.168
703.00	28.707
703.32	23.653
703.64	25.868
703.96	26.266
704.28	26.408
704.60	29.110
704.91	23.026
705.23	27.719
705.55	27.881
705.87	25.899
706.19	27.888
706.51	25.000
706.83	26.740
707.15	26.780
707.47	29.042
707.79	27.221
708.11	28.307
708.43	30.133
708.74	27.869
709.06	25.767
709.38	27.893
709.70	23.701
710.02	30.420
710.34	24.468
710.66	26.217
710.98	27.972
711.29	31.271
711.61	27.305
711.93	32.584
712.25	27.547
712.57	27.344
712.89	26.939
713.20	29.032
713.52	23.984
713.84	26.642
714.16	29.730
714.48	24.573
714.80	26.263
715.11	30.241
715.43	26.962
715.75	23.158
716.07	27.636
716.39	31.399
716.70	27.600
717.02	22.984
717.34	26.840
717.66	22.273
717.97	24.537
718.29	29.333
718.61	26.577
718.93	25.210
719.24	28.870
719.56	24.107
719.88	26.275
720.20	22.650
720.51	28.070
720.83	30.544
721.15	22.857
721.46	24.895
721.78	25.974
722.10	28.682
722.42	30.870
722.73	22.624
723.05	29.954
723.37	19.005
723.68	28.436
724.00	26.852
724.32	24.299
724.63	22.624
724.95	24.658
725.27	21.596
725.58	28.767
725.90	18.018
726.22	25.764
726.53	25.410
726.85	25.556
727.16	27.530
727.48	24.194
727.80	25.114
728.11	21.333
728.43	31.276
728.74	23.246
729.06	26.638
729.38	26.744
729.69	22.800
730.01	24.268
730.32	21.116
730.64	23.846
730.96	25.483
731.27	19.305
731.59	22.896
731.90	26.316
732.22	29.900
732.53	25.263
732.85	22.535
733.16	25.275
733.48	22.761
733.80	28.364
734.11	28.723
734.43	26.715
734.74	24.611
735.06	24.437
735.37	25.240
735.69	20.423
736.00	22.222
736.32	27.273
736.63	26.667
736.95	23.735
737.26	26.812
737.58	21.533
737.89	23.019
738.21	26.718
738.52	29.098
738.83	23.932
739.15	28.182
739.46	22.072
739.78	20.463
740.09	19.841
740.41	28.409
740.72	23.904
741.04	23.320
741.35	26.457
741.66	27.957
741.98	20.408
742.29	16.580
742.61	14.451
742.92	23.039
743.23	26.368
743.55	20.725
743.86	24.155
744.18	19.500
744.49	21.667
744.80	26.344
745.12	18.974
745.43	21.925
745.74	18.717
746.06	29.885
746.37	18.333
746.68	26.486
747.00	18.785
747.31	23.560
747.62	31.579
747.94	21.698
748.25	28.571
748.56	29.798
748.88	24.044
749.19	24.352
749.50	23.529
749.82	32.500
750.13	24.272
750.44	23.176
750.75	25.600
751.07	18.828
751.38	23.047
751.69	27.381
752.01	28.571
752.32	29.752
752.63	21.834
752.94	29.200
753.26	22.831
753.57	23.697
753.88	24.186
754.19	21.145
754.51	17.155
754.82	24.583
755.13	22.124
755.44	22.511
755.75	22.892
756.07	21.888
756.38	24.686
756.69	30.189
757.00	26.596
757.31	21.799
757.63	23.529
757.94	26.061
758.25	27.381
758.56	26.757
758.87	21.429
759.18	30.218
759.50	27.758
759.81	28.958
760.12	28.114
760.43	27.907
760.74	27.545
761.05	26.282
761.36	29.080
761.67	24.924
761.99	26.421
762.30	22.909
762.61	27.236
762.92	24.889
763.23	24.186
763.54	29.949
763.85	31.222
764.16	25.652
764.47	28.261
764.78	28.226
765.10	21.654
765.41	28.763
765.72	27.090
766.03	26.756
766.34	25.379
766.65	26.953
766.96	21.778
767.27	29.050
767.58	28.302
767.89	25.325
768.20	14.189
768.51	20.115
768.82	24.375
769.13	26.852
769.44	22.170
769.75	18.627
770.06	15.049
770.37	21.809
770.68	21.026
770.99	20.812
771.30	24.227
771.61	19.283
771.92	26.415
772.23	23.077
772.54	18.824
772.85	21.233
773.16	23.226
773.47	19.108
773.78	31.138
774.09	19.737
774.39	18.382
774.70	11.278
775.01	23.846
775.32	13.492
775.63	15.748
775.94	20.755
776.25	11.852
776.56	9.091
776.87	14.530
777.18	18.000
777.48	10.577
777.79	10.185
778.10	22.642
778.41	14.706
778.72	21.698
779.03	17.544
779.34	15.126
779.65	19.014
779.95	25.899
780.26	11.290
780.57	21.014
780.88	8.257
781.19	13.889
781.50	17.213
781.80	20.438
782.11	21.154
782.42	11.034
782.73	24.476
783.04	12.800
783.34	16.800
783.65	10.569
783.96	13.115
784.27	16.807
784.57	11.215
784.88	14.286
785.19	13.402
785.50	28.421
785.81	19.000
786.11	10.891
786.42	-8.235
786.73	15.625
787.04	2.041
787.34	21.296
787.65	21.698
787.96	8.247
788.26	13.861
788.57	21.739
788.88	8.257
789.19	14.876
789.49	14.783
789.80	27.586
790.11	-7.317
790.41	21.348
790.72	-3.488
791.03	3.488
791.33	0.000
791.64	19.512
791.95	4.878
792.25	-1.205
792.56	16.049
792.87	22.535
793.17	15.663
793.48	16.471
793.79	11.250
794.09	-5.000
794.40	10.870
794.70	20.000
795.01	17.431
795.32	18.898
795.62	12.745
795.93	29.412
796.23	15.152
796.54	4.651
796.85	2.899
797.15	1.563
797.46	-3.390
797.76	14.754
798.07	7.895
798.37	-9.677
798.68	-21.875
798.99	10.769
799.29	0.000
799.60	0.000
799.90	22.857
800.21	12.281
800.51	-3.448
800.82	-13.208
801.12	13.725
801.43	-4.839
801.73	12.903
802.04	-4.000
802.34	-5.660
802.65	-39.474
802.95	23.636
803.26	7.547
803.56	-4.918
803.87	-14.000
804.17	3.704
804.48	19.231
804.78	-18.367
805.09	-2.128
805.39	-1.695
805.70	-29.167
806.00	-14.286
806.30	-3.390
806.61	10.769
806.91	-7.692
807.22	9.211
807.52	-12.857
807.83	-15.517
808.13	18.987
808.43	-8.197
808.74	22.951
809.04	20.270
809.35	3.704
809.65	-8.929
809.95	10.169
810.26	-36.735
810.56	-1.887
810.86	0.000
811.17	0.000
811.47	-40.741
811.77	1.961
812.08	20.455
812.38	-37.500
812.69	15.385
812.99	16.667
813.29	6.522
813.59	-25.714
813.90	-14.286
814.20	-20.000
814.50	-22.449
814.81	-17.647
815.11	-18.750
815.41	-29.268
815.72	-11.538
816.02	-12.766
816.32	-15.625
816.62	-21.212
816.93	-36.364
817.23	-40.541
817.53	-14.706
817.84	-7.500
818.14	-32.353
818.44	-21.875
818.74	-66.667
819.04	-20.000
819.35	-8.571
819.65	-18.182
819.95	-15.385
820.25	-111.111
820.56	-72.414
820.86	-32.143
821.16	-13.043
821.46	-2.381
821.76	0.000
822.07	0.000
822.37	-18.367
822.67	-37.209
822.97	-4.348
823.27	-84.615
823.57	-70.370
823.88	-46.429
824.18	-15.385
824.48	-39.286
824.78	-6.061
825.08	-126.667
825.38	-27.500
825.69	-138.889
825.99	-33.333
826.29	-2.222
826.59	-59.259
826.89	-62.963
827.19	-50.000
827.49	-68.182
827.79	-90.909
828.09	-50.000
828.39	-34.783
828.70	7.407
829.00	-17.857
829.30	-4.762
829.60	-41.935
829.90	-69.231
830.20	-12.821
830.50	-86.364
830.80	-47.619
831.10	-38.889
831.40	-85.714
831.70	-29.630
832.00	-64.706
832.30	-8.696
832.60	-25.000
832.90	-209.091
833.20	-44.444
833.50	-6.250
833.80	-42.308
834.10	-8.000
834.40	-29.167
834.70	-50.000
835.00	-7.692
835.30	-65.000
835.60	-210.000
835.90	-60.000
836.20	-71.429
836.50	-30.435
836.80	-61.111
837.10	-146.667
837.40	-150.000
837.70	-56.522
838.00	-78.571
838.30	2400.000
838.60	16.000
838.90	-340.000
839.19	-200.000
839.49	-1100.000
839.79	-111.765
840.09	-177.778
840.39	10.714
840.69	-155.556
840.99	-125.000
841.29	-27.586
841.59	-73.333
841.88	-54.545
842.18	-450.000
842.48	-31.250
842.78	-15.385
843.08	-70.588
843.38	-60.000
843.68	-61.538
843.97	-58.824
844.27	-160.000
844.57	-8.333
844.87	-45.455
845.17	-26.316
845.47	-100.000
845.76	-11.111
846.06	-85.714
846.36	-78.571
846.66	-233.333
846.96	-70.000
847.25	-240.000
847.55	-175.000
847.85	-126.667
848.15	-25.000
848.44	-42.105
848.74	-80.000
849.04	-47.368
849.34	-300.000
849.63	-300.000
849.93	-105.882
850.23	-190.909
850.53	-400.000
850.82	-260.000
851.12	-177.778
851.42	-214.286
851.71	-400.000
852.01	-114.286
852.31	-600.000
852.61	-115.385
852.90	-160.000
853.20	-177.778
853.50	-266.667
853.79	-240.000
854.09	-105.000
854.39	-31.579
854.68	-100.000
854.98	-450.000
855.28	-77.778
855.57	-150.000
855.87	-52.632
856.17	-68.750
856.46	-7.692
856.76	-106.667
857.05	-162.500
857.35	-25.000
857.65	-77.778
857.94	-125.000
858.24	-39.130
858.53	-250.000
858.83	-466.667
859.13	-254.545
859.42	-250.000
859.72	333.333
860.01	-46.154
860.31	-170.000
860.60	-200.000
860.90	-275.000
861.20	-283.333
861.49	-525.000
861.79	1000.000
862.08	6.452
862.38	-136.842
862.67	-69.231
862.97	-170.000
863.26	8.333
863.56	-8.696
863.85	-350.000
864.15	-100.000
864.44	-56.250
864.74	-125.000
865.03	-100.000
865.33	-366.667
865.62	-3600.000
865.92	-350.000
866.21	-283.333
866.51	-127.273
866.80	-500.000
867.10	-328.571
867.39	-100.000
867.69	-116.667
867.98	360.000
868.27	-575.000
868.57	475.000
868.86	-53.333
869.16	-92.308
869.45	1300.000
869.75	-350.000
870.04	-191.667
870.33	-76.471
870.63	-200.000
870.92	26.087
871.22	-187.500
871.51	700.000
871.80	-118.750
872.10	-333.333
>>>>>End Processed Spectral Data<<<<<
