SpectraSuite Data File
++++++++++++++++++++++++++++++++++++
Date: Wed May 13 19:28:52 PDT 2015
User: schluterlab
Dark Spectrum Present: Yes
Reference Spectrum Present: Yes
Number of Sampled Component Spectra: 1
Spectrometers: USB2E3373
Integration Time (usec): 3000 (USB2E3373)
Spectra Averaged: 3 (USB2E3373)
Boxcar Smoothing: 0 (USB2E3373)
Correct for Electrical Dark: No (USB2E3373)
Strobe/Lamp Enabled: No (USB2E3373)
Correct for Detector Non-linearity: No (USB2E3373)
Correct for Stray Light: No (USB2E3373)
Number of Pixels in Processed Spectrum: 2048
>>>>>Begin Processed Spectral Data<<<<<
178.53	0.000
178.91	-1300.000
179.29	-1325.000
179.67	-222.222
180.04	-1525.000
180.42	2650.000
180.80	960.000
181.18	-1300.000
181.56	671.429
181.94	0.000
182.31	-628.571
182.69	1900.000
183.07	-575.000
183.45	-377.778
183.83	518.182
184.20	-410.000
184.58	2350.000
184.96	5300.000
185.34	-820.000
185.72	-675.000
186.09	-2700.000
186.47	2800.000
186.85	2400.000
187.23	4700.000
187.61	-1466.667
187.98	1450.000
188.36	572.727
188.74	481.818
189.12	-840.000
189.49	560.000
189.87	-4500.000
190.25	-1150.000
190.63	442.857
191.00	407.692
191.38	916.667
191.76	-1075.000
192.14	1425.000
192.51	637.500
192.89	1100.000
193.27	537.500
193.65	-1450.000
194.02	510.000
194.40	900.000
194.78	490.000
195.15	525.000
195.53	680.000
195.91	-2050.000
196.29	343.750
196.66	310.526
197.04	-380.000
197.42	0.000
197.79	570.000
198.17	-4600.000
198.55	728.571
198.92	737.500
199.30	820.000
199.68	0.000
200.05	361.111
200.43	885.714
200.81	5100.000
201.18	1633.333
201.56	-1866.667
201.94	577.778
202.31	555.556
202.69	483.333
203.07	570.000
203.44	0.000
203.82	1225.000
204.19	800.000
204.57	392.857
204.95	675.000
205.32	1566.667
205.70	472.727
206.08	392.857
206.45	2400.000
206.83	356.250
207.20	933.333
207.58	740.000
207.96	305.556
208.33	787.500
208.71	-983.333
209.08	628.571
209.46	611.111
209.84	509.091
210.21	-1733.333
210.59	1425.000
210.96	-462.500
211.34	2550.000
211.71	560.000
212.09	900.000
212.46	0.000
212.84	1833.333
213.22	1325.000
213.59	-5000.000
213.97	766.667
214.34	714.286
214.72	518.182
215.09	980.000
215.47	-2500.000
215.84	-2550.000
216.22	1866.667
216.59	428.571
216.97	1375.000
217.34	500.000
217.72	-800.000
218.09	0.000
218.47	-4500.000
218.84	533.333
219.22	885.714
219.59	1766.667
219.97	-657.143
220.34	1020.000
220.72	-1466.667
221.09	428.571
221.47	1375.000
221.84	-966.667
222.22	0.000
222.59	1475.000
222.97	-2500.000
223.34	980.000
223.72	369.231
224.09	1100.000
224.46	2550.000
224.84	-5100.000
225.21	-920.000
225.59	-4300.000
225.96	510.000
226.34	335.000
226.71	2750.000
227.08	750.000
227.46	520.000
227.83	-1025.000
228.21	-2500.000
228.58	588.889
228.95	-2400.000
229.33	-1850.000
229.70	1833.333
230.08	671.429
230.45	-800.000
230.82	400.000
231.20	916.667
231.57	614.286
231.95	383.333
232.32	300.000
232.69	454.545
233.07	585.714
233.44	392.308
233.81	-1800.000
234.19	326.316
234.56	383.333
234.93	416.667
235.31	536.364
235.68	400.000
236.05	364.286
236.43	178.788
236.80	221.053
237.17	4100.000
237.55	261.905
237.92	185.714
238.29	180.952
238.67	196.774
239.04	213.793
239.41	150.000
239.79	117.391
240.16	133.333
240.53	125.000
240.91	90.196
241.28	108.000
241.65	84.000
242.02	86.957
242.40	72.581
242.77	95.000
243.14	69.892
243.51	67.416
243.89	50.588
244.26	50.000
244.63	56.989
245.00	60.638
245.38	53.465
245.75	42.991
246.12	41.284
246.49	51.095
246.87	59.200
247.24	46.923
247.61	40.714
247.98	40.523
248.36	33.784
248.73	35.032
249.10	42.038
249.47	35.028
249.84	37.968
250.22	21.925
250.59	33.728
250.96	31.313
251.33	29.858
251.70	38.119
252.08	25.238
252.45	29.596
252.82	32.609
253.19	28.511
253.56	29.020
253.94	28.631
254.31	30.078
254.68	28.077
255.05	24.723
255.42	25.203
255.79	22.794
256.16	25.271
256.54	24.028
256.91	25.979
257.28	20.144
257.65	24.422
258.02	23.292
258.39	21.767
258.76	22.742
259.14	22.321
259.51	21.581
259.88	17.391
260.25	23.565
260.62	20.809
260.99	23.292
261.36	23.123
261.73	18.625
262.10	19.477
262.47	22.535
262.85	20.891
263.22	16.524
263.59	20.228
263.96	20.879
264.33	19.060
264.70	16.316
265.07	21.483
265.44	22.727
265.81	18.005
266.18	20.101
266.55	17.805
266.92	18.428
267.29	20.370
267.66	17.431
268.03	19.318
268.40	15.888
268.77	15.752
269.14	16.441
269.51	19.413
269.88	18.182
270.25	18.736
270.62	16.854
270.99	19.140
271.36	18.670
271.73	16.589
272.10	17.609
272.47	20.000
272.84	18.182
273.21	19.287
273.58	15.284
273.95	13.627
274.32	15.702
274.69	17.131
275.06	16.339
275.43	17.234
275.80	16.032
276.17	16.701
276.54	17.464
276.91	14.822
277.28	14.453
277.65	17.021
278.02	13.665
278.39	15.234
278.76	15.091
279.13	15.094
279.50	16.201
279.87	15.737
280.23	14.172
280.60	13.926
280.97	16.821
281.34	16.460
281.71	18.182
282.08	14.587
282.45	14.364
282.82	15.275
283.19	11.765
283.56	14.912
283.92	16.244
284.29	12.698
284.66	13.067
285.03	14.286
285.40	13.204
285.77	14.646
286.14	13.126
286.51	15.667
286.87	16.410
287.24	16.612
287.61	12.520
287.98	13.961
288.35	15.531
288.72	12.773
289.08	15.806
289.45	11.367
289.82	13.171
290.19	13.501
290.56	13.783
290.93	11.329
291.29	11.963
291.66	12.979
292.03	15.407
292.40	14.244
292.77	12.870
293.13	12.985
293.50	12.828
293.87	12.444
294.24	12.741
294.60	12.227
294.97	13.081
295.34	14.245
295.71	13.068
296.08	11.681
296.44	11.829
296.81	11.625
297.18	13.415
297.55	9.103
297.91	10.158
298.28	12.718
298.65	13.055
299.02	12.516
299.38	11.819
299.75	10.782
300.12	9.834
300.48	10.750
300.85	11.097
301.22	9.936
301.59	9.217
301.95	11.461
302.32	10.911
302.69	11.111
303.05	11.394
303.42	10.123
303.79	10.872
304.15	10.956
304.52	10.197
304.89	10.685
305.25	11.369
305.62	10.759
305.99	11.806
306.35	10.403
306.72	10.987
307.09	11.432
307.45	12.275
307.82	9.710
308.19	10.265
308.55	11.003
308.92	10.311
309.29	9.609
309.65	10.392
310.02	10.148
310.38	9.785
310.75	10.243
311.12	11.259
311.48	11.181
311.85	11.321
312.22	9.365
312.58	10.707
312.95	10.665
313.31	10.291
313.68	10.707
314.05	11.538
314.41	10.352
314.78	10.675
315.14	10.626
315.51	10.505
315.87	10.396
316.24	10.129
316.61	10.234
316.97	9.980
317.34	9.491
317.70	10.134
318.07	10.876
318.43	10.078
318.80	11.246
319.16	9.981
319.53	10.788
319.89	10.286
320.26	10.600
320.62	9.623
320.99	10.505
321.35	9.495
321.72	10.370
322.08	10.859
322.45	9.453
322.81	11.143
323.18	10.983
323.54	11.132
323.91	11.226
324.27	9.751
324.64	9.133
325.00	8.656
325.37	10.373
325.73	11.759
326.10	9.620
326.46	10.036
326.83	9.750
327.19	10.248
327.56	9.843
327.92	10.149
328.29	10.470
328.65	11.142
329.01	9.747
329.38	9.898
329.74	10.434
330.11	10.839
330.47	10.836
330.84	11.029
331.20	9.836
331.56	9.908
331.93	10.370
332.29	10.293
332.66	11.062
333.02	9.963
333.38	10.388
333.75	10.517
334.11	10.053
334.48	10.559
334.84	10.846
335.20	10.727
335.57	8.976
335.93	9.464
336.29	9.707
336.66	10.550
337.02	8.778
337.38	10.093
337.75	9.091
338.11	9.669
338.47	9.116
338.84	10.082
339.20	7.982
339.56	10.584
339.93	9.091
340.29	9.873
340.65	8.824
341.02	10.209
341.38	9.342
341.74	8.947
342.11	9.520
342.47	10.220
342.83	10.017
343.20	9.091
343.56	10.194
343.92	8.684
344.28	10.034
344.65	9.372
345.01	7.997
345.37	8.062
345.73	9.729
346.10	9.804
346.46	9.322
346.82	10.049
347.19	9.524
347.55	8.456
347.91	9.628
348.27	9.778
348.63	9.699
349.00	9.628
349.36	8.210
349.72	9.302
350.08	9.319
350.45	8.055
350.81	8.936
351.17	8.995
351.53	9.091
351.89	8.993
352.26	9.708
352.62	9.543
352.98	8.914
353.34	8.956
353.70	8.511
354.07	9.435
354.43	8.889
354.79	7.804
355.15	8.619
355.51	9.273
355.87	9.796
356.24	8.713
356.60	8.180
356.96	9.010
357.32	7.522
357.68	9.370
358.04	8.709
358.40	9.184
358.77	7.903
359.13	8.524
359.49	8.863
359.85	7.540
360.21	7.097
360.57	9.105
360.93	8.538
361.29	8.390
361.66	8.591
362.02	8.955
362.38	8.061
362.74	8.705
363.10	7.772
363.46	7.557
363.82	8.314
364.18	8.517
364.54	8.841
364.90	9.065
365.26	7.500
365.62	8.546
365.98	7.451
366.35	8.095
366.71	9.111
367.07	8.449
367.43	9.289
367.79	8.351
368.15	9.052
368.51	7.776
368.87	8.779
369.23	8.339
369.59	8.834
369.95	7.868
370.31	8.476
370.67	8.768
371.03	8.764
371.39	8.673
371.75	8.015
372.11	7.966
372.47	7.771
372.83	9.006
373.19	7.153
373.55	7.243
373.91	9.131
374.27	7.629
374.63	7.127
374.99	8.475
375.35	7.537
375.71	7.471
376.07	7.750
376.42	7.565
376.78	8.615
377.14	7.802
377.50	8.344
377.86	7.713
378.22	7.965
378.58	7.456
378.94	7.920
379.30	7.570
379.66	7.868
380.02	7.985
380.38	7.954
380.74	8.283
381.09	7.396
381.45	7.867
381.81	7.924
382.17	7.643
382.53	7.799
382.89	8.272
383.25	7.567
383.61	7.807
383.97	8.130
384.32	7.985
384.68	6.939
385.04	8.359
385.40	7.802
385.76	7.678
386.12	8.225
386.48	7.678
386.83	8.082
387.19	8.287
387.55	7.607
387.91	8.102
388.27	7.480
388.62	8.359
388.98	6.634
389.34	8.761
389.70	7.971
390.06	8.365
390.42	7.328
390.77	8.270
391.13	7.211
391.49	9.010
391.85	7.447
392.20	7.066
392.56	7.702
392.92	6.769
393.28	6.331
393.64	7.614
393.99	8.491
394.35	7.754
394.71	6.838
395.07	7.726
395.42	7.664
395.78	7.952
396.14	7.883
396.50	8.020
396.85	8.328
397.21	7.707
397.57	7.812
397.92	7.632
398.28	7.063
398.64	7.467
399.00	7.387
399.35	7.501
399.71	7.755
400.07	7.569
400.42	8.712
400.78	7.841
401.14	6.951
401.49	8.000
401.85	6.836
402.21	6.527
402.57	7.526
402.92	7.755
403.28	7.870
403.63	7.364
403.99	7.452
404.35	8.000
404.70	7.134
405.06	7.804
405.42	6.987
405.77	6.914
406.13	7.788
406.49	7.333
406.84	8.387
407.20	7.388
407.55	7.786
407.91	7.333
408.27	7.339
408.62	7.646
408.98	6.985
409.34	6.827
409.69	8.129
410.05	7.249
410.40	6.850
410.76	7.646
411.11	8.323
411.47	7.029
411.83	7.575
412.18	7.236
412.54	7.783
412.89	7.410
413.25	7.556
413.60	7.844
413.96	6.982
414.31	7.655
414.67	7.288
415.03	7.550
415.38	8.570
415.74	7.910
416.09	7.577
416.45	8.032
416.80	7.138
417.16	8.713
417.51	7.963
417.87	7.643
418.22	8.265
418.58	8.328
418.93	8.354
419.29	7.766
419.64	8.312
420.00	8.232
420.35	8.232
420.71	8.010
421.06	8.055
421.42	8.304
421.77	7.960
422.12	6.794
422.48	6.800
422.83	7.630
423.19	8.453
423.54	7.719
423.90	7.884
424.25	7.649
424.61	8.036
424.96	7.522
425.31	7.641
425.67	7.303
426.02	7.714
426.38	7.326
426.73	7.665
427.09	7.781
427.44	8.511
427.79	7.821
428.15	7.738
428.50	8.367
428.85	8.999
429.21	7.123
429.56	6.895
429.92	7.901
430.27	7.299
430.62	7.322
430.98	7.784
431.33	7.423
431.68	7.435
432.04	8.094
432.39	8.224
432.74	7.899
433.10	8.036
433.45	7.872
433.80	7.650
434.16	8.440
434.51	7.684
434.86	9.008
435.22	7.560
435.57	7.964
435.92	8.367
436.28	7.888
436.63	8.609
436.98	8.128
437.34	8.408
437.69	7.993
438.04	8.319
438.39	8.358
438.75	8.425
439.10	8.715
439.45	8.383
439.81	8.338
440.16	8.244
440.51	8.260
440.86	8.454
441.22	7.341
441.57	8.015
441.92	7.932
442.27	7.858
442.63	8.268
442.98	8.732
443.33	8.261
443.68	7.950
444.03	8.297
444.39	7.595
444.74	7.630
445.09	8.733
445.44	8.693
445.79	8.412
446.15	9.052
446.50	8.401
446.85	7.914
447.20	7.853
447.55	7.873
447.91	8.549
448.26	8.514
448.61	8.253
448.96	8.859
449.31	8.380
449.66	8.441
450.02	8.524
450.37	8.787
450.72	8.460
451.07	8.592
451.42	8.875
451.77	9.395
452.12	8.430
452.47	9.453
452.83	8.625
453.18	9.046
453.53	9.462
453.88	8.919
454.23	9.026
454.58	9.146
454.93	9.727
455.28	8.167
455.63	8.617
455.98	9.821
456.34	9.108
456.69	9.768
457.04	9.164
457.39	8.533
457.74	8.996
458.09	9.258
458.44	8.210
458.79	9.436
459.14	8.804
459.49	9.048
459.84	8.753
460.19	9.193
460.54	9.722
460.89	9.161
461.24	9.411
461.59	10.575
461.94	8.570
462.29	9.674
462.64	8.998
462.99	8.783
463.34	10.467
463.69	9.506
464.04	9.623
464.39	9.623
464.74	8.913
465.09	9.409
465.44	8.476
465.79	8.333
466.14	9.141
466.49	8.954
466.84	10.041
467.19	10.018
467.54	10.188
467.89	9.244
468.24	9.715
468.59	9.768
468.94	9.407
469.29	9.447
469.64	10.308
469.99	9.675
470.34	9.709
470.68	10.129
471.03	9.116
471.38	10.285
471.73	9.660
472.08	10.658
472.43	9.987
472.78	9.677
473.13	9.884
473.48	9.738
473.83	9.268
474.17	9.210
474.52	9.739
474.87	10.625
475.22	9.983
475.57	9.511
475.92	9.241
476.27	9.357
476.61	10.370
476.96	8.906
477.31	9.158
477.66	9.081
478.01	9.462
478.36	9.783
478.70	8.879
479.05	9.318
479.40	9.775
479.75	9.253
480.10	9.095
480.45	9.329
480.79	8.935
481.14	9.589
481.49	9.207
481.84	9.191
482.19	8.723
482.53	9.128
482.88	9.167
483.23	9.626
483.58	9.691
483.92	9.419
484.27	8.235
484.62	9.181
484.97	8.829
485.31	8.425
485.66	7.817
486.01	7.240
486.36	7.332
486.70	7.174
487.05	7.488
487.40	7.891
487.75	8.242
488.09	8.402
488.44	8.472
488.79	8.571
489.13	9.053
489.48	8.687
489.83	8.718
490.17	9.206
490.52	9.035
490.87	8.729
491.22	9.004
491.56	8.064
491.91	8.795
492.26	9.003
492.60	9.309
492.95	8.513
493.30	9.112
493.64	9.006
493.99	9.285
494.34	9.204
494.68	9.936
495.03	9.164
495.37	9.679
495.72	9.211
496.07	9.466
496.41	8.673
496.76	9.323
497.11	9.140
497.45	9.222
497.80	8.973
498.14	8.937
498.49	9.171
498.84	9.684
499.18	8.905
499.53	9.069
499.87	9.459
500.22	9.421
500.56	9.757
500.91	9.279
501.26	9.768
501.60	9.635
501.95	9.624
502.29	9.278
502.64	9.544
502.98	9.537
503.33	9.095
503.67	9.745
504.02	10.056
504.36	9.780
504.71	9.331
505.06	9.639
505.40	9.966
505.75	9.450
506.09	9.281
506.44	9.225
506.78	10.034
507.13	9.793
507.47	10.354
507.82	10.081
508.16	9.929
508.51	10.198
508.85	9.484
509.19	9.949
509.54	10.204
509.88	9.892
510.23	9.871
510.57	11.146
510.92	10.668
511.26	9.815
511.61	10.218
511.95	9.551
512.30	9.756
512.64	10.317
512.98	10.450
513.33	10.171
513.67	9.658
514.02	9.470
514.36	10.377
514.70	10.736
515.05	10.318
515.39	10.151
515.74	10.191
516.08	11.068
516.42	10.488
516.77	10.368
517.11	10.266
517.46	10.609
517.80	11.092
518.14	10.365
518.49	10.677
518.83	11.420
519.17	10.508
519.52	10.696
519.86	11.523
520.20	11.098
520.55	12.029
520.89	11.010
521.23	10.917
521.58	11.345
521.92	11.268
522.26	10.677
522.61	10.841
522.95	11.111
523.29	10.834
523.64	11.341
523.98	11.399
524.32	11.821
524.66	10.884
525.01	11.642
525.35	10.905
525.69	12.007
526.04	11.589
526.38	11.043
526.72	11.718
527.06	11.425
527.41	10.272
527.75	11.576
528.09	10.918
528.43	11.281
528.78	11.494
529.12	11.273
529.46	11.696
529.80	10.644
530.15	12.274
530.49	10.708
530.83	11.709
531.17	12.010
531.51	11.933
531.86	12.129
532.20	12.125
532.54	11.851
532.88	12.003
533.22	11.368
533.57	11.667
533.91	11.800
534.25	12.029
534.59	11.897
534.93	12.076
535.27	11.346
535.62	11.416
535.96	11.613
536.30	11.189
536.64	11.977
536.98	12.541
537.32	11.257
537.66	11.600
538.01	11.455
538.35	12.153
538.69	12.763
539.03	11.371
539.37	11.246
539.71	11.212
540.05	11.307
540.39	12.159
540.73	12.484
541.07	12.265
541.42	11.872
541.76	12.387
542.10	12.354
542.44	11.589
542.78	12.451
543.12	11.708
543.46	12.656
543.80	12.492
544.14	11.489
544.48	12.635
544.82	11.418
545.16	11.451
545.50	11.504
545.84	12.366
546.18	12.121
546.52	11.769
546.86	12.440
547.20	12.744
547.54	11.824
547.88	13.329
548.22	11.644
548.56	12.516
548.90	12.164
549.24	11.919
549.58	12.960
549.92	11.676
550.26	12.074
550.60	12.033
550.94	12.113
551.28	12.070
551.62	12.581
551.96	12.000
552.30	12.218
552.64	13.252
552.98	12.610
553.32	12.947
553.66	12.815
554.00	12.766
554.34	13.112
554.68	12.947
555.02	12.764
555.36	11.900
555.69	11.637
556.03	12.382
556.37	12.483
556.71	12.074
557.05	12.465
557.39	12.176
557.73	12.279
558.07	13.053
558.41	12.373
558.75	13.152
559.08	12.752
559.42	13.001
559.76	12.721
560.10	11.849
560.44	12.718
560.78	11.776
561.12	12.665
561.45	13.299
561.79	12.393
562.13	12.341
562.47	13.593
562.81	12.134
563.15	12.107
563.48	12.334
563.82	11.807
564.16	11.576
564.50	11.719
564.84	11.757
565.17	11.776
565.51	12.524
565.85	12.119
566.19	11.522
566.52	12.223
566.86	11.212
567.20	11.557
567.54	12.158
567.88	11.244
568.21	11.376
568.55	11.729
568.89	11.041
569.23	10.561
569.56	10.810
569.90	10.604
570.24	10.477
570.57	10.065
570.91	9.632
571.25	9.759
571.59	10.103
571.92	9.677
572.26	9.850
572.60	10.180
572.93	9.745
573.27	10.293
573.61	10.022
573.95	9.690
574.28	9.849
574.62	9.475
574.96	9.152
575.29	9.505
575.63	9.553
575.97	9.763
576.30	9.825
576.64	9.603
576.98	9.650
577.31	9.335
577.65	9.273
577.98	9.369
578.32	9.075
578.66	9.455
578.99	9.176
579.33	9.417
579.67	9.171
580.00	9.326
580.34	9.302
580.67	9.194
581.01	9.535
581.35	8.979
581.68	9.355
582.02	8.851
582.35	9.114
582.69	9.361
583.02	9.081
583.36	9.661
583.70	9.590
584.03	9.875
584.37	9.671
584.70	9.639
585.04	9.858
585.37	9.576
585.71	9.610
586.04	9.809
586.38	9.692
586.72	10.356
587.05	9.861
587.39	9.631
587.72	9.766
588.06	9.685
588.39	9.684
588.73	9.886
589.06	10.471
589.40	10.337
589.73	10.419
590.07	10.676
590.40	10.157
590.73	10.695
591.07	10.867
591.40	11.008
591.74	10.736
592.07	11.213
592.41	10.418
592.74	10.787
593.08	10.326
593.41	9.902
593.75	9.931
594.08	10.292
594.41	10.534
594.75	10.573
595.08	10.415
595.42	10.473
595.75	10.221
596.09	10.364
596.42	11.238
596.75	10.680
597.09	11.299
597.42	10.329
597.75	10.522
598.09	10.652
598.42	10.825
598.76	10.620
599.09	9.958
599.42	9.971
599.76	10.249
600.09	10.128
600.42	10.153
600.76	10.214
601.09	10.128
601.42	10.464
601.76	10.474
602.09	10.593
602.42	11.425
602.76	10.923
603.09	10.504
603.42	11.050
603.76	10.290
604.09	10.237
604.42	10.558
604.76	11.556
605.09	10.441
605.42	10.902
605.75	10.389
606.09	10.085
606.42	10.094
606.75	10.452
607.09	10.548
607.42	10.569
607.75	10.042
608.08	11.159
608.42	11.161
608.75	10.370
609.08	11.055
609.41	11.185
609.75	10.529
610.08	11.687
610.41	10.335
610.74	10.312
611.07	10.474
611.41	11.040
611.74	11.664
612.07	11.128
612.40	10.651
612.73	10.526
613.07	11.746
613.40	11.269
613.73	10.383
614.06	11.505
614.39	11.904
614.72	11.263
615.06	11.292
615.39	11.040
615.72	11.196
616.05	11.536
616.38	11.506
616.71	11.401
617.05	11.249
617.38	10.643
617.71	10.571
618.04	10.637
618.37	11.591
618.70	11.201
619.03	12.368
619.36	12.288
619.69	11.761
620.03	12.157
620.36	12.968
620.69	12.123
621.02	11.283
621.35	12.999
621.68	12.461
622.01	12.461
622.34	12.481
622.67	11.863
623.00	11.812
623.33	11.222
623.66	11.580
623.99	11.340
624.32	11.983
624.65	11.864
624.99	10.765
625.32	10.789
625.65	12.021
625.98	11.606
626.31	13.530
626.64	12.735
626.97	12.884
627.30	11.887
627.63	13.126
627.96	12.700
628.29	13.648
628.62	13.632
628.95	15.094
629.28	12.865
629.61	14.482
629.94	12.190
630.26	12.393
630.59	13.918
630.92	12.548
631.25	13.425
631.58	13.113
631.91	12.779
632.24	13.397
632.57	13.221
632.90	13.268
633.23	14.094
633.56	14.576
633.89	14.383
634.22	13.961
634.55	15.030
634.88	13.772
635.20	14.217
635.53	16.506
635.86	15.099
636.19	13.647
636.52	14.994
636.85	14.318
637.18	13.134
637.51	15.248
637.83	13.194
638.16	14.322
638.49	15.239
638.82	14.539
639.15	16.375
639.48	15.212
639.81	14.745
640.13	15.495
640.46	15.570
640.79	15.324
641.12	14.443
641.45	14.804
641.77	15.464
642.10	16.228
642.43	14.264
642.76	15.480
643.09	15.184
643.41	13.657
643.74	18.364
644.07	15.549
644.40	18.405
644.73	15.748
645.05	16.640
645.38	14.534
645.71	16.425
646.04	14.618
646.36	16.361
646.69	18.729
647.02	15.646
647.35	15.979
647.67	15.044
648.00	17.561
648.33	15.842
648.66	16.212
648.98	16.192
649.31	16.592
649.64	15.247
649.96	15.201
650.29	17.378
650.62	13.916
650.94	17.828
651.27	16.385
651.60	16.972
651.92	15.974
652.25	16.287
652.58	15.109
652.90	15.798
653.23	15.254
653.56	15.118
653.88	17.908
654.21	18.483
654.54	16.007
654.86	16.355
655.19	14.189
655.52	9.085
655.84	6.228
656.17	8.016
656.49	11.056
656.82	11.373
657.15	9.023
657.47	6.662
657.80	5.429
658.13	5.378
658.45	8.606
658.78	8.566
659.10	9.302
659.43	10.245
659.75	11.032
660.08	11.329
660.41	13.687
660.73	15.248
661.06	16.083
661.38	17.818
661.71	18.846
662.03	18.540
662.36	17.893
662.68	18.675
663.01	18.586
663.33	15.711
663.66	19.748
663.98	17.711
664.31	18.067
664.63	17.206
664.96	14.889
665.28	19.262
665.61	18.129
665.93	19.115
666.26	19.473
666.58	18.410
666.91	20.085
667.23	18.876
667.56	17.927
667.88	18.803
668.21	20.896
668.53	16.920
668.86	18.615
669.18	19.829
669.50	16.739
669.83	19.826
670.15	20.889
670.48	17.429
670.80	21.767
671.13	18.684
671.45	14.043
671.77	17.923
672.10	17.745
672.42	17.138
672.75	16.252
673.07	17.254
673.39	15.913
673.72	15.430
674.04	17.059
674.37	17.087
674.69	15.542
675.01	16.318
675.34	18.070
675.66	20.000
675.98	19.756
676.31	17.017
676.63	19.108
676.95	17.610
677.28	18.692
677.60	18.681
677.92	17.722
678.25	19.713
678.57	16.335
678.89	17.435
679.22	17.092
679.54	16.031
679.86	17.798
680.18	16.637
680.51	17.730
680.83	16.370
681.15	17.170
681.48	19.093
681.80	18.182
682.12	14.751
682.44	15.861
682.77	18.330
683.09	19.957
683.41	16.630
683.73	18.102
684.06	19.008
684.38	16.830
684.70	17.829
685.02	16.698
685.34	14.652
685.67	13.636
685.99	15.292
686.31	13.140
686.63	15.018
686.96	14.464
687.28	17.690
687.60	16.848
687.92	17.733
688.24	18.631
688.56	19.277
688.89	19.087
689.21	18.996
689.53	17.954
689.85	19.734
690.17	17.598
690.49	22.081
690.82	18.692
691.14	18.527
691.46	17.089
691.78	17.871
692.10	15.909
692.42	19.162
692.74	17.635
693.06	17.447
693.39	18.891
693.71	19.214
694.03	18.105
694.35	17.749
694.67	18.993
694.99	21.220
695.31	19.363
695.63	17.703
695.95	20.049
696.27	17.766
696.59	20.466
696.91	20.207
697.23	18.075
697.56	18.977
697.88	15.542
698.20	16.667
698.52	18.280
698.84	18.263
699.16	17.972
699.48	18.765
699.80	15.942
700.12	23.117
700.44	22.016
700.76	20.994
701.08	22.126
701.40	21.788
701.72	20.991
702.04	24.716
702.36	18.980
702.68	20.963
703.00	24.377
703.32	20.213
703.64	20.107
703.96	25.627
704.28	20.640
704.60	21.701
704.91	22.255
705.23	22.287
705.55	21.927
705.87	24.585
706.19	20.495
706.51	23.676
706.83	23.939
707.15	22.409
707.47	18.687
707.79	20.885
708.11	18.950
708.43	18.810
708.74	16.327
709.06	20.519
709.38	23.360
709.70	18.314
710.02	21.365
710.34	19.394
710.66	24.478
710.98	19.602
711.29	23.837
711.61	24.484
711.93	23.077
712.25	25.402
712.57	23.897
712.89	24.913
713.20	22.796
713.52	25.658
713.84	18.987
714.16	20.122
714.48	20.977
714.80	26.444
715.11	23.055
715.43	19.288
715.75	21.449
716.07	21.725
716.39	23.511
716.70	27.243
717.02	25.540
717.34	22.968
717.66	29.104
717.97	27.490
718.29	21.852
718.61	29.197
718.93	25.000
719.24	26.990
719.56	21.695
719.88	25.085
720.20	24.662
720.51	24.042
720.83	26.394
721.15	22.388
721.46	24.823
721.78	25.090
722.10	23.396
722.42	29.323
722.73	26.592
723.05	24.180
723.37	25.506
723.68	26.641
724.00	26.423
724.32	29.435
724.63	27.642
724.95	23.013
725.27	24.696
725.58	25.781
725.90	25.182
726.22	26.415
726.53	23.958
726.85	23.208
727.16	28.826
727.48	22.695
727.80	24.242
728.11	26.087
728.43	23.077
728.74	24.731
729.06	27.007
729.38	26.471
729.69	24.199
730.01	19.795
730.32	24.306
730.64	22.742
730.96	21.782
731.27	25.166
731.59	25.688
731.90	23.615
732.22	20.186
732.53	22.601
732.85	23.077
733.16	21.543
733.48	21.595
733.80	24.351
734.11	24.841
734.43	17.456
734.74	20.000
735.06	21.490
735.37	23.121
735.69	21.656
736.00	25.490
736.32	23.364
736.63	23.003
736.95	23.962
737.26	17.007
737.58	19.032
737.89	24.415
738.21	24.232
738.52	24.286
738.83	23.396
739.15	26.154
739.46	26.277
739.78	23.958
740.09	21.846
740.41	23.226
740.72	22.648
741.04	24.444
741.35	26.250
741.66	34.222
741.98	24.057
742.29	30.622
742.61	36.207
742.92	22.624
743.23	30.342
743.55	32.000
743.86	25.877
744.18	30.973
744.49	33.493
744.80	33.803
745.12	30.000
745.43	25.110
745.74	27.928
746.06	33.486
746.37	29.596
746.68	31.674
747.00	32.407
747.31	35.714
747.62	25.664
747.94	25.991
748.25	27.660
748.56	27.313
748.88	26.238
749.19	32.000
749.50	29.302
749.82	26.829
750.13	25.306
750.44	23.358
750.75	27.719
751.07	25.402
751.38	23.345
751.69	24.549
752.01	25.188
752.32	23.827
752.63	26.596
752.94	24.590
753.26	28.800
753.57	23.984
753.88	32.031
754.19	23.571
754.51	25.694
754.82	23.827
755.13	29.057
755.44	22.180
755.75	23.358
756.07	19.149
756.38	21.168
756.69	21.477
757.00	20.958
757.31	20.475
757.63	19.591
757.94	19.571
758.25	17.647
758.56	19.012
758.87	19.355
759.18	20.909
759.50	23.197
759.81	23.053
760.12	20.000
760.43	20.917
760.74	20.380
761.05	22.034
761.36	17.914
761.67	23.580
761.99	20.186
762.30	21.875
762.61	29.389
762.92	25.781
763.23	29.412
763.54	29.200
763.85	21.875
764.16	28.846
764.47	23.194
764.78	25.088
765.10	21.519
765.41	20.944
765.72	21.557
766.03	23.197
766.34	22.667
766.65	27.234
766.96	25.214
767.27	35.533
767.58	34.896
767.89	38.421
768.20	34.483
768.51	34.010
768.82	30.734
769.13	25.610
769.44	29.150
769.75	26.609
770.06	22.477
770.37	32.127
770.68	31.481
770.99	28.000
771.30	25.000
771.61	27.354
771.92	29.918
772.23	29.832
772.54	27.179
772.85	30.366
773.16	31.915
773.47	38.587
773.78	34.010
774.09	37.500
774.39	40.936
774.70	38.272
775.01	40.580
775.32	37.908
775.63	42.763
775.94	36.691
776.25	48.819
776.56	44.776
776.87	44.262
777.18	44.531
777.48	54.962
777.79	43.939
778.10	41.481
778.41	47.321
778.72	36.496
779.03	42.953
779.34	42.953
779.65	37.838
779.95	33.129
780.26	41.176
780.57	46.207
780.88	48.438
781.19	40.602
781.50	45.946
781.80	39.623
782.11	30.508
782.42	32.911
782.73	36.196
783.04	44.595
783.34	41.549
783.65	45.205
783.96	53.731
784.27	36.364
784.57	45.324
784.88	39.815
785.19	48.413
785.50	51.887
785.81	49.254
786.11	59.016
786.42	37.984
786.73	48.673
787.04	53.774
787.34	45.536
787.65	53.000
787.96	53.153
788.26	44.628
788.57	57.627
788.88	46.281
789.19	51.389
789.49	50.000
789.80	51.145
790.11	61.905
790.41	53.465
790.72	56.627
791.03	68.478
791.33	68.605
791.64	58.763
791.95	64.356
792.25	71.111
792.56	79.221
792.87	67.949
793.17	73.418
793.48	74.713
793.79	71.264
794.09	68.182
794.40	50.420
794.70	50.735
795.01	48.889
795.32	38.129
795.62	45.669
795.93	42.241
796.23	45.133
796.54	64.706
796.85	58.108
797.15	74.648
797.46	63.636
797.76	81.928
798.07	77.215
798.37	69.231
798.68	83.333
798.99	57.746
799.29	76.623
799.60	67.045
799.90	80.822
800.21	83.582
800.51	89.655
800.82	87.719
801.12	86.885
801.43	89.394
801.73	63.514
802.04	88.889
802.34	69.136
802.65	92.188
802.95	101.695
803.26	89.063
803.56	78.571
803.87	72.308
804.17	95.588
804.48	90.741
804.78	84.483
805.09	64.706
805.39	100.000
805.70	101.786
806.00	101.639
806.30	72.727
806.61	80.488
806.91	78.481
807.22	71.053
807.52	68.657
807.83	87.324
808.13	90.625
808.43	86.667
808.74	78.947
809.04	89.855
809.35	82.090
809.65	75.000
809.95	96.774
810.26	93.220
810.56	90.476
810.86	115.909
811.17	126.190
811.47	91.667
811.77	100.000
812.08	96.364
812.38	116.000
812.69	150.000
812.99	138.636
813.29	118.367
813.59	100.000
813.90	110.204
814.20	107.273
814.50	66.154
814.81	89.706
815.11	118.367
815.41	91.803
815.72	119.048
816.02	109.091
816.32	107.143
816.62	115.000
816.93	114.634
817.23	114.286
817.53	104.545
817.84	145.455
818.14	123.913
818.44	126.667
818.74	152.941
819.04	127.500
819.35	148.571
819.65	182.353
819.95	196.429
820.25	235.000
820.56	135.897
820.86	113.636
821.16	158.140
821.46	125.641
821.76	134.000
822.07	160.000
822.37	165.000
822.67	145.455
822.97	107.843
823.27	175.000
823.57	154.054
823.88	130.000
824.18	183.333
824.48	140.476
824.78	212.000
825.08	175.000
825.38	137.838
825.69	119.512
825.99	183.333
826.29	158.621
826.59	171.053
826.89	136.842
827.19	150.000
827.49	141.935
827.79	136.364
828.09	125.000
828.39	125.532
828.70	102.041
829.00	162.963
829.30	174.194
829.60	152.500
829.90	326.667
830.20	196.429
830.50	217.391
830.80	200.000
831.10	180.000
831.40	190.000
831.70	147.826
832.00	250.000
832.30	181.481
832.60	281.250
832.90	200.000
833.20	392.857
833.50	174.194
833.80	217.241
834.10	200.000
834.40	246.154
834.70	266.667
835.00	323.810
835.30	142.857
835.60	407.692
835.90	217.241
836.20	335.714
836.50	179.310
836.80	188.000
837.10	169.444
837.40	280.952
837.70	282.353
838.00	203.704
838.30	290.476
838.60	266.667
838.90	223.077
839.19	205.000
839.49	328.571
839.79	315.000
840.09	245.000
840.39	247.619
840.69	291.304
840.99	305.556
841.29	480.000
841.59	300.000
841.88	325.000
842.18	196.552
842.48	271.429
842.78	180.000
843.08	234.783
843.38	156.250
843.68	866.667
843.97	269.231
844.27	162.069
844.57	257.143
844.87	318.750
845.17	185.185
845.47	1133.333
845.76	411.111
846.06	317.647
846.36	550.000
846.66	428.571
846.96	268.750
847.25	463.636
847.55	418.182
847.85	252.174
848.15	480.000
848.44	364.286
848.74	266.667
849.04	352.941
849.34	490.000
849.63	247.368
849.93	490.909
850.23	980.000
850.53	400.000
850.82	2050.000
851.12	-4600.000
851.42	5800.000
851.71	275.000
852.01	-1033.333
852.31	266.667
852.61	1500.000
852.90	266.667
853.20	236.000
853.50	294.118
853.79	261.905
854.09	187.500
854.39	312.500
854.68	170.270
854.98	151.613
855.28	176.667
855.57	234.483
855.87	207.407
856.17	205.263
856.46	220.000
856.76	264.706
857.05	203.448
857.35	241.667
857.65	293.333
857.94	221.739
858.24	250.000
858.53	290.000
858.83	245.455
859.13	353.333
859.42	0.000
859.72	600.000
860.01	354.545
860.31	272.727
860.60	278.947
860.90	221.739
861.20	677.778
861.49	558.333
861.79	-5000.000
862.08	712.500
862.38	252.381
862.67	330.769
862.97	329.412
863.26	488.889
863.56	288.889
863.85	433.333
864.15	637.500
864.44	360.000
864.74	850.000
865.03	675.000
865.33	289.474
865.62	472.727
865.92	446.154
866.21	383.333
866.51	0.000
866.80	445.455
867.10	1220.000
867.39	415.385
867.69	463.636
867.98	284.211
868.27	500.000
868.57	305.263
868.86	-4500.000
869.16	393.750
869.45	2650.000
869.75	-3900.000
870.04	408.333
870.33	585.714
870.63	1250.000
870.92	2450.000
871.22	800.000
871.51	282.353
871.80	223.810
872.10	378.571
>>>>>End Processed Spectral Data<<<<<
