SpectraSuite Data File
++++++++++++++++++++++++++++++++++++
Date: Wed May 13 19:32:14 PDT 2015
User: schluterlab
Dark Spectrum Present: Yes
Reference Spectrum Present: Yes
Number of Sampled Component Spectra: 1
Spectrometers: USB2E3373
Integration Time (usec): 3000 (USB2E3373)
Spectra Averaged: 3 (USB2E3373)
Boxcar Smoothing: 0 (USB2E3373)
Correct for Electrical Dark: No (USB2E3373)
Strobe/Lamp Enabled: No (USB2E3373)
Correct for Detector Non-linearity: No (USB2E3373)
Correct for Stray Light: No (USB2E3373)
Number of Pixels in Processed Spectrum: 2048
>>>>>Begin Processed Spectral Data<<<<<
178.53	0.000
178.91	-1525.000
179.29	-1325.000
179.67	-255.556
180.04	-1200.000
180.42	2700.000
180.80	1100.000
181.18	-1000.000
181.56	742.857
181.94	0.000
182.31	-742.857
182.69	1833.333
183.07	-612.500
183.45	-488.889
183.83	581.818
184.20	-390.000
184.58	2800.000
184.96	4800.000
185.34	-960.000
185.72	-637.500
186.09	-2250.000
186.47	3100.000
186.85	2300.000
187.23	4100.000
187.61	-1833.333
187.98	1175.000
188.36	545.455
188.74	554.545
189.12	-1000.000
189.49	520.000
189.87	-4900.000
190.25	-1150.000
190.63	400.000
191.00	407.692
191.38	966.667
191.76	-1250.000
192.14	1625.000
192.51	800.000
192.89	983.333
193.27	725.000
193.65	-1225.000
194.02	590.000
194.40	940.000
194.78	520.000
195.15	525.000
195.53	570.000
195.91	-2150.000
196.29	350.000
196.66	305.263
197.04	-430.000
197.42	0.000
197.79	620.000
198.17	-5000.000
198.55	814.286
198.92	675.000
199.30	960.000
199.68	0.000
200.05	333.333
200.43	842.857
200.81	4200.000
201.18	1766.667
201.56	-1266.667
201.94	633.333
202.31	644.444
202.69	450.000
203.07	590.000
203.44	0.000
203.82	1400.000
204.19	914.286
204.57	392.857
204.95	637.500
205.32	1800.000
205.70	436.364
206.08	400.000
206.45	2700.000
206.83	368.750
207.20	916.667
207.58	660.000
207.96	311.111
208.33	737.500
208.71	-850.000
209.08	714.286
209.46	644.444
209.84	563.636
210.21	-1666.667
210.59	1350.000
210.96	-562.500
211.34	2300.000
211.71	570.000
212.09	833.333
212.46	0.000
212.84	1766.667
213.22	1550.000
213.59	-4700.000
213.97	916.667
214.34	885.714
214.72	645.455
215.09	940.000
215.47	-2450.000
215.84	-2650.000
216.22	1700.000
216.59	471.429
216.97	1250.000
217.34	463.636
217.72	-700.000
218.09	0.000
218.47	-4700.000
218.84	666.667
219.22	714.286
219.59	2033.333
219.97	-700.000
220.34	960.000
220.72	-1700.000
221.09	392.857
221.47	1675.000
221.84	-1016.667
222.22	0.000
222.59	1400.000
222.97	-2500.000
223.34	1320.000
223.72	438.462
224.09	920.000
224.46	1900.000
224.84	-5400.000
225.21	-780.000
225.59	-5000.000
225.96	500.000
226.34	275.000
226.71	2600.000
227.08	737.500
227.46	600.000
227.83	-1125.000
228.21	-2350.000
228.58	533.333
228.95	-2600.000
229.33	-2500.000
229.70	1700.000
230.08	828.571
230.45	-1100.000
230.82	458.333
231.20	900.000
231.57	614.286
231.95	508.333
232.32	240.909
232.69	418.182
233.07	700.000
233.44	369.231
233.81	-1666.667
234.19	284.211
234.56	416.667
234.93	350.000
235.31	463.636
235.68	384.615
236.05	442.857
236.43	175.758
236.80	263.158
237.17	5700.000
237.55	204.762
237.92	196.429
238.29	238.095
238.67	170.968
239.04	210.345
239.41	147.222
239.79	123.913
240.16	140.476
240.53	127.273
240.91	113.725
241.28	108.000
241.65	96.000
242.02	89.855
242.40	70.968
242.77	80.000
243.14	65.591
243.51	68.539
243.89	49.412
244.26	61.111
244.63	51.613
245.00	44.681
245.38	48.515
245.75	50.467
246.12	43.119
246.49	54.015
246.87	55.200
247.24	44.615
247.61	36.429
247.98	41.176
248.36	37.162
248.73	38.854
249.10	42.038
249.47	33.898
249.84	41.711
250.22	31.551
250.59	29.586
250.96	31.818
251.33	33.649
251.70	39.109
252.08	24.762
252.45	28.251
252.82	25.652
253.19	24.255
253.56	26.667
253.94	26.141
254.31	25.391
254.68	23.462
255.05	25.830
255.42	23.171
255.79	22.426
256.16	25.271
256.54	18.728
256.91	22.064
257.28	15.827
257.65	21.122
258.02	22.050
258.39	17.666
258.76	20.067
259.14	18.452
259.51	18.237
259.88	16.460
260.25	18.127
260.62	18.208
260.99	17.081
261.36	19.219
261.73	15.759
262.10	19.477
262.47	16.620
262.85	18.384
263.22	16.524
263.59	17.664
263.96	15.934
264.33	17.755
264.70	16.842
265.07	18.926
265.44	16.414
265.81	15.572
266.18	17.337
266.55	15.122
266.92	16.953
267.29	16.204
267.66	13.991
268.03	16.818
268.40	13.785
268.77	12.649
269.14	12.838
269.51	15.576
269.88	15.618
270.25	16.704
270.62	13.933
270.99	17.204
271.36	15.021
271.73	13.318
272.10	14.348
272.47	14.624
272.84	13.853
273.21	15.304
273.58	15.066
273.95	12.788
274.32	13.843
274.69	14.775
275.06	12.402
275.43	12.553
275.80	13.226
276.17	10.998
276.54	13.721
276.91	10.079
277.28	10.938
277.65	13.540
278.02	11.594
278.39	15.234
278.76	12.909
279.13	13.019
279.50	11.732
279.87	10.956
280.23	11.178
280.60	9.865
280.97	10.906
281.34	12.389
281.71	12.909
282.08	12.668
282.45	12.000
282.82	11.368
283.19	9.091
283.56	11.053
283.92	13.367
284.29	10.229
284.66	10.708
285.03	10.127
285.40	11.620
285.77	10.774
286.14	8.981
286.51	12.500
286.87	10.940
287.24	12.052
287.61	11.878
287.98	11.364
288.35	10.301
288.72	11.838
289.08	13.615
289.45	11.367
289.82	11.707
290.19	8.948
290.56	11.332
290.93	10.574
291.29	10.276
291.66	12.389
292.03	12.936
292.40	12.482
292.77	10.651
293.13	12.090
293.50	11.662
293.87	11.259
294.24	10.519
294.60	9.753
294.97	13.081
295.34	10.437
295.71	9.801
296.08	10.114
296.44	10.179
296.81	10.304
297.18	12.060
297.55	9.499
297.91	9.367
298.28	10.442
298.65	10.574
299.02	13.043
299.38	9.695
299.75	9.973
300.12	8.685
300.48	10.000
300.85	10.358
301.22	8.790
301.59	10.101
301.95	10.831
302.32	10.270
302.69	10.633
303.05	10.182
303.42	9.753
303.79	11.325
304.15	8.625
304.52	9.618
304.89	10.105
305.25	10.325
305.62	10.872
305.99	10.862
306.35	10.403
306.72	11.211
307.09	11.765
307.45	11.599
307.82	9.598
308.19	11.148
308.55	11.758
308.92	11.493
309.29	10.876
309.65	9.968
310.02	11.839
310.38	11.290
310.75	11.616
311.12	11.771
311.48	11.390
311.85	11.950
312.22	11.238
312.58	10.915
312.95	12.566
313.31	12.233
313.68	11.954
314.05	13.116
314.41	12.060
314.78	12.487
315.14	12.413
315.51	12.255
315.87	12.673
316.24	13.505
316.61	12.671
316.97	12.916
317.34	11.644
317.70	12.620
318.07	12.993
318.43	14.286
318.80	13.402
319.16	13.371
319.53	13.977
319.89	14.286
320.26	15.000
320.62	14.881
320.99	14.343
321.35	14.141
321.72	15.811
322.08	14.413
322.45	16.020
322.81	15.988
323.18	17.052
323.54	15.677
323.91	15.943
324.27	15.870
324.64	14.911
325.00	14.157
325.37	16.106
325.73	16.876
326.10	16.152
326.46	15.681
326.83	16.825
327.19	16.482
327.56	16.638
327.92	16.273
328.29	17.214
328.65	17.864
329.01	16.697
329.38	18.131
329.74	16.436
330.11	17.719
330.47	17.264
330.84	17.279
331.20	17.577
331.56	16.055
331.93	16.389
332.29	17.657
332.66	17.876
333.02	17.916
333.38	17.254
333.75	18.360
334.11	17.171
334.48	16.770
334.84	18.474
335.20	17.909
335.57	17.226
335.93	16.250
336.29	16.575
336.66	18.034
337.02	17.104
337.38	17.593
337.75	15.865
338.11	17.816
338.47	16.667
338.84	18.882
339.20	16.147
339.56	17.883
339.93	16.091
340.29	17.029
340.65	16.756
341.02	16.579
341.38	16.459
341.74	16.930
342.11	17.729
342.47	16.300
342.83	17.637
343.20	18.095
343.56	16.849
343.92	17.807
344.28	18.282
344.65	17.111
345.01	16.498
345.37	15.695
345.73	16.920
346.10	17.136
346.46	17.712
346.82	17.710
347.19	15.957
347.55	17.159
347.91	18.447
348.27	17.666
348.63	17.475
349.00	16.586
349.36	18.144
349.72	16.600
350.08	17.585
350.45	17.657
350.81	16.572
351.17	17.504
351.53	17.936
351.89	17.409
352.26	18.074
352.62	18.043
352.98	17.828
353.34	18.159
353.70	16.121
354.07	18.145
354.43	17.540
354.79	16.975
355.15	17.797
355.51	18.145
355.87	18.204
356.24	18.567
356.60	16.680
356.96	17.136
357.32	18.152
357.68	18.031
358.04	17.498
358.40	18.448
358.77	18.075
359.13	18.390
359.49	18.588
359.85	16.508
360.21	17.703
360.57	18.677
360.93	18.231
361.29	18.745
361.66	17.570
362.02	18.582
362.38	17.643
362.74	18.155
363.10	18.431
363.46	18.635
363.82	17.838
364.18	18.429
364.54	18.796
364.90	18.839
365.26	17.794
365.62	19.357
365.98	17.750
366.35	17.908
366.71	18.294
367.07	17.844
367.43	20.102
367.79	18.915
368.15	19.397
368.51	18.677
368.87	18.986
369.23	18.435
369.59	18.972
369.95	19.044
370.31	19.444
370.67	19.638
371.03	20.449
371.39	19.315
371.75	19.412
372.11	19.488
372.47	20.088
372.83	21.182
373.19	19.147
373.55	19.808
373.91	20.987
374.27	19.863
374.63	18.836
374.99	19.492
375.35	19.051
375.71	19.191
376.07	20.165
376.42	19.876
376.78	20.345
377.14	20.828
377.50	20.000
377.86	19.548
378.22	19.722
378.58	19.549
378.94	19.673
379.30	20.038
379.66	20.241
380.02	20.209
380.38	19.733
380.74	21.489
381.09	19.743
381.45	20.652
381.81	20.455
382.17	21.210
382.53	20.881
382.89	20.926
383.25	20.638
383.61	20.508
383.97	21.138
384.32	20.586
384.68	20.136
385.04	20.467
385.40	20.433
385.76	20.393
386.12	20.013
386.48	21.586
386.83	21.360
387.19	21.212
387.55	21.336
387.91	19.952
388.27	20.785
388.62	21.389
388.98	19.902
389.34	21.151
389.70	20.662
390.06	21.103
390.42	21.141
390.77	20.802
391.13	21.378
391.49	20.876
391.85	20.878
392.20	20.126
392.56	20.202
392.92	20.777
393.28	19.112
393.64	20.324
393.99	20.892
394.35	19.913
394.71	21.706
395.07	20.872
395.42	21.014
395.78	20.165
396.14	20.981
396.50	21.053
396.85	20.788
397.21	20.900
397.57	20.955
397.92	20.433
398.28	20.348
398.64	20.609
399.00	19.866
399.35	19.571
399.71	20.081
400.07	20.520
400.42	20.491
400.78	20.869
401.14	19.634
401.49	20.657
401.85	20.811
402.21	20.479
402.57	19.679
402.92	19.672
403.28	20.487
403.63	19.678
403.99	20.000
404.35	19.697
404.70	19.664
405.06	19.394
405.42	19.838
405.77	19.714
406.13	19.695
406.49	19.397
406.84	20.083
407.20	19.444
407.55	19.272
407.91	19.733
408.27	19.655
408.62	19.506
408.98	19.363
409.34	19.926
409.69	19.871
410.05	19.021
410.40	19.388
410.76	18.817
411.11	20.024
411.47	19.617
411.83	18.998
412.18	18.924
412.54	19.365
412.89	19.940
413.25	18.182
413.60	19.271
413.96	18.883
414.31	19.563
414.67	19.899
415.03	19.669
415.38	19.781
415.74	19.743
416.09	19.856
416.45	19.076
416.80	19.564
417.16	19.906
417.51	19.642
417.87	19.717
418.22	19.117
418.58	18.915
418.93	19.165
419.29	20.433
419.64	20.970
420.00	19.146
420.35	19.710
420.71	19.665
421.06	19.928
421.42	19.942
421.77	19.843
422.12	18.697
422.48	18.996
422.83	19.278
423.19	19.613
423.54	19.095
423.90	20.812
424.25	19.710
424.61	19.940
424.96	19.125
425.31	19.712
425.67	18.933
426.02	20.686
426.38	20.147
426.73	19.719
427.09	20.243
427.44	19.781
427.79	20.184
428.15	20.060
428.50	19.427
428.85	20.739
429.21	19.602
429.56	19.233
429.92	19.577
430.27	19.762
430.62	19.764
430.98	19.927
431.33	19.536
431.68	20.157
432.04	19.489
432.39	19.303
432.74	19.749
433.10	20.543
433.45	20.058
433.80	19.678
434.16	19.925
434.51	20.053
434.86	20.353
435.22	20.178
435.57	20.729
435.92	19.544
436.28	20.996
436.63	20.143
436.98	20.263
437.34	20.572
437.69	20.478
438.04	19.730
438.39	20.179
438.75	20.395
439.10	19.944
439.45	19.362
439.81	19.396
440.16	19.706
440.51	19.918
440.86	20.498
441.22	19.021
441.57	20.011
441.92	19.857
442.27	20.506
442.63	19.431
442.98	20.451
443.33	19.728
443.68	19.050
444.03	19.375
444.39	19.377
444.74	19.697
445.09	19.569
445.44	19.136
445.79	19.446
446.15	20.116
446.50	19.548
446.85	19.219
447.20	19.480
447.55	19.710
447.91	19.140
448.26	19.922
448.61	19.559
448.96	19.657
449.31	20.135
449.66	20.203
450.02	19.164
450.37	19.501
450.72	20.135
451.07	19.196
451.42	18.784
451.77	19.495
452.12	18.591
452.47	20.274
452.83	18.415
453.18	19.377
453.53	20.037
453.88	18.665
454.23	19.008
454.58	19.746
454.93	20.089
455.28	18.953
455.63	19.478
455.98	20.000
456.34	19.347
456.69	19.787
457.04	19.876
457.39	19.579
457.74	18.340
458.09	19.379
458.44	19.555
458.79	17.842
459.14	18.849
459.49	19.031
459.84	18.560
460.19	18.444
460.54	18.461
460.89	18.541
461.24	18.579
461.59	18.536
461.94	18.372
462.29	19.110
462.64	18.379
462.99	18.868
463.34	20.533
463.69	18.324
464.04	18.493
464.39	18.725
464.74	18.419
465.09	17.793
465.44	18.227
465.79	16.834
466.14	18.719
466.49	17.742
466.84	18.214
467.19	19.553
467.54	18.625
467.89	18.127
468.24	17.510
468.59	17.949
468.94	17.838
469.29	17.866
469.64	18.206
469.99	18.065
470.34	17.834
470.68	17.816
471.03	18.299
471.38	18.763
471.73	18.454
472.08	19.211
472.43	17.588
472.78	17.512
473.13	18.357
473.48	17.790
473.83	17.866
474.17	17.673
474.52	17.804
474.87	18.097
475.22	18.108
475.57	17.034
475.92	16.994
476.27	16.629
476.61	17.816
476.96	16.767
477.31	16.484
477.66	17.834
478.01	15.944
478.36	17.028
478.70	16.874
479.05	17.359
479.40	16.377
479.75	16.726
480.10	16.700
480.45	16.897
480.79	16.245
481.14	16.194
481.49	16.991
481.84	15.592
482.19	16.129
482.53	16.284
482.88	16.566
483.23	16.355
483.58	16.151
483.92	15.792
484.27	15.294
484.62	15.388
484.97	15.609
485.31	15.548
485.66	14.971
486.01	14.388
486.36	13.890
486.70	13.378
487.05	13.690
487.40	14.224
487.75	14.376
488.09	14.104
488.44	14.543
488.79	14.430
489.13	14.820
489.48	15.294
489.83	14.760
490.17	14.687
490.52	14.880
490.87	14.473
491.22	14.734
491.56	14.077
491.91	14.891
492.26	14.469
492.60	14.378
492.95	14.406
493.30	14.065
493.64	14.792
493.99	14.438
494.34	14.894
494.68	14.560
495.03	14.709
495.37	14.193
495.72	14.474
496.07	14.432
496.41	13.761
496.76	14.248
497.11	14.003
497.45	14.020
497.80	14.443
498.14	14.300
498.49	14.195
498.84	14.334
499.18	13.762
499.53	14.008
499.87	14.352
500.22	14.131
500.56	14.757
500.91	13.269
501.26	14.225
501.60	14.570
501.95	13.795
502.29	13.964
502.64	13.454
502.98	13.651
503.33	13.985
503.67	13.875
504.02	13.517
504.36	13.149
504.71	13.141
505.06	14.072
505.40	12.931
505.75	13.838
506.09	13.605
506.44	13.222
506.78	13.444
507.13	13.983
507.47	14.192
507.82	13.830
508.16	13.171
508.51	13.496
508.85	13.208
509.19	13.469
509.54	12.755
509.88	13.035
510.23	13.316
510.57	13.829
510.92	13.620
511.26	13.361
511.61	13.589
511.95	13.152
512.30	12.831
512.64	12.950
512.98	13.773
513.33	13.544
513.67	13.020
514.02	12.716
514.36	13.271
514.70	14.001
515.05	12.883
515.39	13.909
515.74	13.795
516.08	13.918
516.42	13.984
516.77	14.158
517.11	13.541
517.46	14.108
517.80	12.950
518.14	12.623
518.49	13.477
518.83	12.898
519.17	13.568
519.52	12.960
519.86	13.349
520.20	13.988
520.55	13.405
520.89	13.808
521.23	14.415
521.58	13.325
521.92	13.166
522.26	13.545
522.61	12.648
522.95	13.260
523.29	12.964
523.64	13.354
523.98	12.877
524.32	12.907
524.66	13.169
525.01	13.235
525.35	13.135
525.69	13.054
526.04	12.523
526.38	13.728
526.72	13.436
527.06	12.555
527.41	12.500
527.75	13.312
528.09	12.717
528.43	13.002
528.78	13.092
529.12	12.909
529.46	13.105
529.80	12.376
530.15	13.022
530.49	12.615
530.83	13.165
531.17	13.708
531.51	13.100
531.86	12.645
532.20	13.168
532.54	13.325
532.88	12.580
533.22	12.680
533.57	13.025
533.91	12.222
534.25	12.819
534.59	12.081
534.93	12.671
535.27	12.130
535.62	12.576
535.96	12.806
536.30	12.206
536.64	13.071
536.98	13.205
537.32	12.969
537.66	12.200
538.01	12.377
538.35	13.445
538.69	13.593
539.03	12.021
539.37	11.310
539.71	11.601
540.05	12.484
540.39	12.093
540.73	13.066
541.07	12.719
541.42	12.916
541.76	12.645
542.10	13.195
542.44	12.185
542.78	12.516
543.12	12.348
543.46	11.541
543.80	11.841
544.14	10.783
544.48	12.444
544.82	11.418
545.16	11.776
545.50	11.632
545.84	12.231
546.18	11.785
546.52	11.425
546.86	11.134
547.20	12.003
547.54	11.690
547.88	11.798
548.22	11.831
548.56	11.384
548.90	11.140
549.24	10.707
549.58	11.733
549.92	11.951
550.26	11.790
550.60	11.480
550.94	12.042
551.28	11.412
551.62	11.215
551.96	10.737
552.30	11.741
552.64	12.576
552.98	12.407
553.32	11.396
553.66	12.883
554.00	12.080
554.34	11.801
554.68	12.160
555.02	11.989
555.36	12.665
555.69	11.502
556.03	11.911
556.37	11.323
556.71	11.392
557.05	11.695
557.39	11.756
557.73	11.080
558.07	11.385
558.41	10.854
558.75	11.242
559.08	12.081
559.42	11.036
559.76	12.353
560.10	11.563
560.44	11.181
560.78	10.512
561.12	11.478
561.45	11.408
561.79	11.470
562.13	11.335
562.47	11.066
562.81	10.530
563.15	11.706
563.48	11.605
563.82	10.894
564.16	10.399
564.50	9.766
564.84	10.683
565.17	10.875
565.51	10.288
565.85	10.216
566.19	10.207
566.52	10.703
566.86	10.669
567.20	11.026
567.54	10.160
567.88	9.614
568.21	10.370
568.55	10.313
568.89	9.144
569.23	9.670
569.56	9.514
569.90	9.019
570.24	8.934
570.57	9.113
570.91	8.888
571.25	8.802
571.59	8.837
571.92	8.295
572.26	8.637
572.60	8.559
572.93	8.516
573.27	8.784
573.61	8.543
573.95	8.346
574.28	8.392
574.62	8.163
574.96	8.339
575.29	8.002
575.63	8.308
575.97	8.175
576.30	7.993
576.64	8.011
576.98	8.216
577.31	7.740
577.65	7.535
577.98	7.740
578.32	7.863
578.66	7.820
578.99	7.966
579.33	7.698
579.67	7.589
580.00	7.840
580.34	7.902
580.67	7.894
581.01	8.253
581.35	7.548
581.68	7.495
582.02	7.486
582.35	7.595
582.69	7.542
583.02	7.491
583.36	7.701
583.70	7.942
584.03	7.994
584.37	8.037
584.70	7.811
585.04	7.779
585.37	7.782
585.71	7.777
586.04	7.707
586.38	7.732
586.72	8.257
587.05	8.014
587.39	7.546
587.72	7.988
588.06	7.684
588.39	8.230
588.73	7.832
589.06	8.165
589.40	8.418
589.73	7.885
590.07	8.505
590.40	8.184
590.73	9.016
591.07	8.669
591.40	8.351
591.74	8.658
592.07	8.726
592.41	8.723
592.74	7.903
593.08	8.394
593.41	8.320
593.75	7.402
594.08	8.146
594.41	8.201
594.75	8.059
595.08	8.339
595.42	8.616
595.75	8.013
596.09	8.599
596.42	8.959
596.75	8.864
597.09	9.004
597.42	8.305
597.75	8.279
598.09	8.783
598.42	8.462
598.76	8.310
599.09	8.324
599.42	8.333
599.76	7.723
600.09	8.087
600.42	7.925
600.76	7.893
601.09	8.342
601.42	8.524
601.76	8.197
602.09	7.668
602.42	8.838
602.76	7.940
603.09	8.261
603.42	8.864
603.76	8.194
604.09	7.794
604.42	8.072
604.76	8.815
605.09	8.606
605.42	7.909
605.75	8.030
606.09	8.052
606.42	8.214
606.75	8.254
607.09	8.539
607.42	8.387
607.75	7.553
608.08	8.120
608.42	9.368
608.75	8.296
609.08	8.418
609.41	8.377
609.75	8.671
610.08	8.812
610.41	7.961
610.74	8.798
611.07	8.152
611.41	8.489
611.74	8.949
612.07	8.437
612.40	9.077
612.73	8.421
613.07	9.213
613.40	8.583
613.73	7.813
614.06	8.710
614.39	8.285
614.72	8.474
615.06	8.824
615.39	7.962
615.72	8.691
616.05	8.506
616.38	8.338
616.71	8.848
617.05	9.482
617.38	8.779
617.71	9.009
618.04	9.014
618.37	8.752
618.70	9.645
619.03	9.803
619.36	9.165
619.69	8.803
620.03	9.547
620.36	9.893
620.69	10.274
621.02	10.324
621.35	9.710
621.68	9.268
622.01	9.598
622.34	10.666
622.67	10.646
623.00	8.584
623.33	9.435
623.66	9.292
623.99	9.205
624.32	8.417
624.65	9.251
624.99	7.861
625.32	8.907
625.65	8.715
625.98	10.377
626.31	10.187
626.64	10.531
626.97	9.726
627.30	8.728
627.63	10.993
627.96	9.840
628.29	10.324
628.62	10.887
628.95	12.547
629.28	11.223
629.61	12.282
629.94	10.857
630.26	10.486
630.59	11.058
630.92	10.728
631.25	10.168
631.58	11.111
631.91	10.852
632.24	11.709
632.57	11.333
632.90	11.075
633.23	11.857
633.56	12.090
633.89	12.571
634.22	12.032
634.55	11.006
634.88	12.335
635.20	11.589
635.53	10.964
635.86	11.634
636.19	12.000
636.52	10.842
636.85	12.486
637.18	11.866
637.51	14.421
637.83	8.878
638.16	12.404
638.49	12.846
638.82	11.378
639.15	13.250
639.48	12.968
639.81	12.869
640.13	13.542
640.46	12.081
640.79	12.285
641.12	13.205
641.45	12.291
641.77	12.960
642.10	13.158
642.43	11.562
642.76	12.539
643.09	12.577
643.41	11.684
643.74	12.654
644.07	12.500
644.40	14.264
644.73	13.858
645.05	15.214
645.38	13.586
645.71	16.264
646.04	12.957
646.36	15.359
646.69	14.548
647.02	13.435
647.35	14.433
647.67	14.690
648.00	16.098
648.33	13.696
648.66	13.788
648.98	13.943
649.31	12.407
649.64	13.453
649.96	14.009
650.29	13.902
650.62	12.460
650.94	15.559
651.27	16.892
651.60	15.641
651.92	14.058
652.25	13.355
652.58	13.707
652.90	15.166
653.23	13.097
653.56	13.228
653.88	14.739
654.21	14.850
654.54	14.026
654.86	13.863
655.19	11.486
655.52	7.770
655.84	5.158
656.17	6.283
656.49	8.553
656.82	8.521
657.15	6.555
657.47	4.973
657.80	4.021
658.13	3.805
658.45	5.794
658.78	6.150
659.10	6.712
659.43	7.046
659.75	7.816
660.08	8.418
660.41	10.615
660.73	13.342
661.06	12.739
661.38	14.545
661.71	16.731
662.03	15.779
662.36	15.308
662.68	15.663
663.01	16.768
663.33	14.437
663.66	16.387
663.98	14.039
664.31	13.866
664.63	17.206
664.96	16.499
665.28	17.828
665.61	13.840
665.93	15.493
666.26	14.604
666.58	15.900
666.91	17.970
667.23	17.303
667.56	16.199
667.88	17.949
668.21	18.124
668.53	14.534
668.86	15.584
669.18	17.271
669.50	17.609
669.83	19.390
670.15	18.222
670.48	15.033
670.80	17.241
671.13	15.711
671.45	15.532
671.77	17.923
672.10	16.266
672.42	14.664
672.75	15.257
673.07	12.852
673.39	14.828
673.72	12.695
674.04	14.902
674.37	16.117
674.69	15.337
675.01	12.762
675.34	17.248
675.66	20.000
675.98	15.275
676.31	18.697
676.63	15.711
676.95	17.610
677.28	14.720
677.60	14.725
677.92	18.776
678.25	16.632
678.57	15.139
678.89	15.230
679.22	15.521
679.54	14.885
679.86	16.514
680.18	15.921
680.51	15.957
680.83	14.591
681.15	16.415
681.48	16.068
681.80	15.087
682.12	16.858
682.44	13.926
682.77	17.923
683.09	19.528
683.41	20.177
683.73	15.894
684.06	16.116
684.38	15.264
684.70	16.085
685.02	15.572
685.34	15.018
685.67	13.811
685.99	12.887
686.31	15.188
686.63	12.191
686.96	13.036
687.28	15.162
687.60	15.217
687.92	17.002
688.24	16.540
688.56	17.269
688.89	14.523
689.21	16.594
689.53	16.284
689.85	16.630
690.17	13.251
690.49	16.561
690.82	16.822
691.14	14.732
691.46	12.869
691.78	16.466
692.10	14.669
692.42	16.766
692.74	14.108
693.06	15.957
693.39	17.864
693.71	15.502
694.03	16.421
694.35	17.100
694.67	14.645
694.99	18.049
695.31	17.157
695.63	14.833
695.95	17.359
696.27	14.975
696.59	16.321
696.91	17.358
697.23	13.380
697.56	15.778
697.88	14.928
698.20	14.792
698.52	16.989
698.84	14.922
699.16	16.590
699.48	15.202
699.80	17.150
700.12	20.779
700.44	16.711
700.76	21.271
701.08	18.678
701.40	16.480
701.72	20.991
702.04	25.284
702.36	18.980
702.68	19.830
703.00	19.945
703.32	19.415
703.64	21.984
703.96	18.106
704.28	20.058
704.60	20.821
704.91	18.991
705.23	19.941
705.55	22.259
705.87	24.917
706.19	20.495
706.51	19.003
706.83	20.303
707.15	19.608
707.47	17.929
707.79	19.410
708.11	19.178
708.43	17.857
708.74	14.541
709.06	19.481
709.38	19.685
709.70	20.349
710.02	19.288
710.34	18.182
710.66	18.209
710.98	21.591
711.29	18.895
711.61	23.009
711.93	18.910
712.25	22.186
712.57	21.324
712.89	23.529
713.20	19.149
713.52	20.724
713.84	19.620
714.16	19.207
714.48	19.253
714.80	23.404
715.11	19.308
715.43	19.288
715.75	19.710
716.07	23.962
716.39	20.690
716.70	25.249
717.02	19.424
717.34	26.855
717.66	26.866
717.97	24.701
718.29	27.037
718.61	22.263
718.93	24.265
719.24	27.682
719.56	23.051
719.88	24.746
720.20	23.649
720.51	24.739
720.83	22.677
721.15	24.254
721.46	20.922
721.78	25.806
722.10	25.660
722.42	27.444
722.73	27.715
723.05	24.180
723.37	24.291
723.68	28.571
724.00	26.423
724.32	25.403
724.63	28.455
724.95	22.176
725.27	25.506
725.58	25.000
725.90	24.818
726.22	26.792
726.53	26.736
726.85	24.915
727.16	28.470
727.48	23.404
727.80	24.242
728.11	25.362
728.43	19.231
728.74	24.731
729.06	27.372
729.38	25.000
729.69	28.114
730.01	20.478
730.32	22.222
730.64	19.732
730.96	19.142
731.27	24.503
731.59	22.018
731.90	20.408
732.22	21.739
732.53	20.433
732.85	22.436
733.16	21.865
733.48	20.266
733.80	23.052
734.11	22.611
734.43	21.302
734.74	17.143
735.06	15.759
735.37	23.121
735.69	13.694
736.00	17.974
736.32	21.495
736.63	22.045
736.95	21.725
737.26	19.048
737.58	18.065
737.89	23.411
738.21	23.891
738.52	22.143
738.83	20.755
739.15	26.923
739.46	22.993
739.78	20.833
740.09	24.308
740.41	19.677
740.72	19.861
741.04	25.185
741.35	23.750
741.66	30.222
741.98	25.000
742.29	26.794
742.61	30.172
742.92	23.077
743.23	26.496
743.55	27.200
743.86	26.754
744.18	26.549
744.49	33.971
744.80	34.272
745.12	36.364
745.43	27.753
745.74	31.532
746.06	28.899
746.37	29.148
746.68	25.339
747.00	31.944
747.31	33.810
747.62	25.221
747.94	25.110
748.25	24.681
748.56	32.159
748.88	25.743
749.19	33.000
749.50	26.977
749.82	28.862
750.13	22.449
750.44	22.263
750.75	25.263
751.07	26.688
751.38	25.087
751.69	25.993
752.01	19.925
752.32	24.910
752.63	22.695
752.94	24.590
753.26	29.200
753.57	23.171
753.88	27.734
754.19	25.000
754.51	26.736
754.82	22.744
755.13	24.151
755.44	21.429
755.75	19.708
756.07	27.660
756.38	20.803
756.69	23.490
757.00	21.856
757.31	20.178
757.63	20.175
757.94	22.252
758.25	19.118
758.56	15.309
758.87	16.935
759.18	22.424
759.50	21.317
759.81	22.430
760.12	18.437
760.43	20.630
760.74	17.391
761.05	21.469
761.36	20.588
761.67	21.591
761.99	20.807
762.30	27.083
762.61	26.336
762.92	25.391
763.23	21.849
763.54	30.400
763.85	21.094
764.16	26.154
764.47	25.095
764.78	22.615
765.10	18.354
765.41	20.059
765.72	20.359
766.03	22.571
766.34	19.000
766.65	30.638
766.96	29.060
767.27	32.995
767.58	31.771
767.89	32.632
768.20	33.333
768.51	31.472
768.82	30.275
769.13	30.081
769.44	25.506
769.75	24.893
770.06	23.853
770.37	26.697
770.68	29.167
770.99	24.444
771.30	22.541
771.61	26.906
771.92	29.098
772.23	30.672
772.54	32.821
772.85	32.461
773.16	35.638
773.47	44.022
773.78	37.563
774.09	33.333
774.39	38.596
774.70	38.272
775.01	35.507
775.32	47.712
775.63	42.763
775.94	41.727
776.25	55.906
776.56	43.284
776.87	43.443
777.18	45.313
777.48	48.855
777.79	45.455
778.10	45.185
778.41	44.643
778.72	37.956
779.03	33.557
779.34	38.255
779.65	37.838
779.95	38.037
780.26	46.405
780.57	42.759
780.88	56.250
781.19	39.098
781.50	41.892
781.80	37.107
782.11	37.288
782.42	34.177
782.73	35.583
783.04	43.919
783.34	45.070
783.65	46.575
783.96	40.299
784.27	46.853
784.57	38.129
784.88	51.852
785.19	53.175
785.50	44.340
785.81	48.507
786.11	49.180
786.42	48.062
786.73	41.593
787.04	49.057
787.34	54.464
787.65	55.000
787.96	45.045
788.26	47.107
788.57	55.085
788.88	52.893
789.19	44.444
789.49	53.788
789.80	40.458
790.11	69.524
790.41	65.347
790.72	61.446
791.03	59.783
791.33	51.163
791.64	58.763
791.95	68.317
792.25	65.556
792.56	64.935
792.87	92.308
793.17	74.684
793.48	65.517
793.79	68.966
794.09	56.818
794.40	43.697
794.70	52.941
795.01	37.037
795.32	41.727
795.62	45.669
795.93	50.000
796.23	53.982
796.54	61.176
796.85	62.162
797.15	88.732
797.46	68.182
797.76	74.699
798.07	73.418
798.37	78.462
798.68	77.273
798.99	66.197
799.29	79.221
799.60	78.409
799.90	82.192
800.21	94.030
800.51	68.966
800.82	78.947
801.12	88.525
801.43	96.970
801.73	64.865
802.04	88.889
802.34	77.778
802.65	82.813
802.95	118.644
803.26	89.063
803.56	72.857
803.87	70.769
804.17	80.882
804.48	111.111
804.78	115.517
805.09	88.235
805.39	94.231
805.70	89.286
806.00	85.246
806.30	71.212
806.61	74.390
806.91	64.557
807.22	59.211
807.52	73.134
807.83	95.775
808.13	85.938
808.43	83.333
808.74	81.579
809.04	84.058
809.35	83.582
809.65	69.737
809.95	114.516
810.26	91.525
810.56	103.175
810.86	97.727
811.17	145.238
811.47	116.667
811.77	101.852
812.08	87.273
812.38	110.000
812.69	147.222
812.99	122.727
813.29	128.571
813.59	92.857
813.90	122.449
814.20	107.273
814.50	81.538
814.81	88.235
815.11	100.000
815.41	93.443
815.72	123.810
816.02	121.818
816.32	140.476
816.62	97.500
816.93	109.756
817.23	130.952
817.53	127.273
817.84	187.879
818.14	123.913
818.44	113.333
818.74	179.412
819.04	132.500
819.35	171.429
819.65	179.412
819.95	167.857
820.25	185.000
820.56	143.590
820.86	154.545
821.16	155.814
821.46	143.590
821.76	130.000
822.07	142.857
822.37	145.000
822.67	175.758
822.97	119.608
823.27	185.714
823.57	143.243
823.88	160.000
824.18	173.333
824.48	152.381
824.78	224.000
825.08	187.500
825.38	154.054
825.69	156.098
825.99	204.167
826.29	179.310
826.59	155.263
826.89	163.158
827.19	144.118
827.49	180.645
827.79	152.273
828.09	138.636
828.39	129.787
828.70	126.531
829.00	162.963
829.30	122.581
829.60	127.500
829.90	326.667
830.20	189.286
830.50	213.043
830.80	252.174
831.10	220.000
831.40	190.000
831.70	169.565
832.00	211.538
832.30	233.333
832.60	306.250
832.90	180.000
833.20	414.286
833.50	200.000
833.80	175.862
834.10	221.875
834.40	192.308
834.70	316.667
835.00	304.762
835.30	165.714
835.60	292.308
835.90	193.103
836.20	371.429
836.50	179.310
836.80	168.000
837.10	161.111
837.40	238.095
837.70	311.765
838.00	207.407
838.30	204.762
838.60	328.571
838.90	242.308
839.19	260.000
839.49	378.571
839.79	310.000
840.09	245.000
840.39	233.333
840.69	265.217
840.99	266.667
841.29	470.000
841.59	316.667
841.88	337.500
842.18	151.724
842.48	261.905
842.78	196.667
843.08	260.870
843.38	171.875
843.68	916.667
843.97	234.615
844.27	203.448
844.57	338.095
844.87	312.500
845.17	229.630
845.47	1466.667
845.76	600.000
846.06	300.000
846.36	462.500
846.66	378.571
846.96	318.750
847.25	427.273
847.55	372.727
847.85	247.826
848.15	580.000
848.44	378.571
848.74	338.889
849.04	294.118
849.34	480.000
849.63	236.842
849.93	536.364
850.23	1100.000
850.53	428.571
850.82	2200.000
851.12	-4900.000
851.42	4800.000
851.71	280.000
852.01	-1166.667
852.31	245.833
852.61	1933.333
852.90	252.381
853.20	208.000
853.50	364.706
853.79	280.952
854.09	200.000
854.39	306.250
854.68	191.892
854.98	167.742
855.28	206.667
855.57	234.483
855.87	222.222
856.17	242.105
856.46	280.000
856.76	288.235
857.05	210.345
857.35	245.833
857.65	320.000
857.94	230.435
858.24	269.231
858.53	290.000
858.83	250.000
859.13	326.667
859.42	0.000
859.72	511.111
860.01	481.818
860.31	254.545
860.60	263.158
860.90	221.739
861.20	566.667
861.49	466.667
861.79	-4700.000
862.08	637.500
862.38	333.333
862.67	338.462
862.97	329.412
863.26	522.222
863.56	283.333
863.85	391.667
864.15	612.500
864.44	386.667
864.74	850.000
865.03	675.000
865.33	357.895
865.62	409.091
865.92	400.000
866.21	408.333
866.51	0.000
866.80	490.909
867.10	1080.000
867.39	461.538
867.69	490.909
867.98	273.684
868.27	427.273
868.57	289.474
868.86	-4100.000
869.16	325.000
869.45	2500.000
869.75	-5400.000
870.04	500.000
870.33	814.286
870.63	1400.000
870.92	3150.000
871.22	742.857
871.51	382.353
871.80	276.190
872.10	407.143
>>>>>End Processed Spectral Data<<<<<
