SpectraSuite Data File
++++++++++++++++++++++++++++++++++++
Date: Wed May 13 19:54:28 PDT 2015
User: schluterlab
Dark Spectrum Present: Yes
Reference Spectrum Present: Yes
Number of Sampled Component Spectra: 1
Spectrometers: USB2E3373
Integration Time (usec): 3000 (USB2E3373)
Spectra Averaged: 3 (USB2E3373)
Boxcar Smoothing: 0 (USB2E3373)
Correct for Electrical Dark: No (USB2E3373)
Strobe/Lamp Enabled: No (USB2E3373)
Correct for Detector Non-linearity: No (USB2E3373)
Correct for Stray Light: No (USB2E3373)
Number of Pixels in Processed Spectrum: 2048
>>>>>Begin Processed Spectral Data<<<<<
178.53	0.000
178.91	-1375.000
179.29	-1525.000
179.67	-216.667
180.04	-1225.000
180.42	2700.000
180.80	1100.000
181.18	-1125.000
181.56	771.429
181.94	0.000
182.31	-642.857
182.69	1900.000
183.07	-775.000
183.45	-566.667
183.83	554.545
184.20	-380.000
184.58	2850.000
184.96	5700.000
185.34	-800.000
185.72	-662.500
186.09	-2850.000
186.47	2400.000
186.85	3050.000
187.23	4800.000
187.61	-1800.000
187.98	1425.000
188.36	518.182
188.74	509.091
189.12	-1080.000
189.49	650.000
189.87	-4100.000
190.25	-1350.000
190.63	435.714
191.00	446.154
191.38	866.667
191.76	-1000.000
192.14	1450.000
192.51	750.000
192.89	1016.667
193.27	587.500
193.65	-1300.000
194.02	520.000
194.40	820.000
194.78	570.000
195.15	558.333
195.53	800.000
195.91	-1900.000
196.29	368.750
196.66	336.842
197.04	-380.000
197.42	0.000
197.79	640.000
198.17	-5300.000
198.55	814.286
198.92	787.500
199.30	840.000
199.68	0.000
200.05	322.222
200.43	828.571
200.81	5100.000
201.18	1766.667
201.56	-1533.333
201.94	600.000
202.31	644.444
202.69	458.333
203.07	500.000
203.44	0.000
203.82	1450.000
204.19	914.286
204.57	478.571
204.95	600.000
205.32	1500.000
205.70	536.364
206.08	421.429
206.45	2950.000
206.83	375.000
207.20	1033.333
207.58	900.000
207.96	283.333
208.33	912.500
208.71	-883.333
209.08	857.143
209.46	544.444
209.84	463.636
210.21	-1266.667
210.59	1350.000
210.96	-412.500
211.34	2750.000
211.71	590.000
212.09	883.333
212.46	0.000
212.84	1833.333
213.22	1575.000
213.59	-5000.000
213.97	866.667
214.34	800.000
214.72	572.727
215.09	1180.000
215.47	-2350.000
215.84	-2700.000
216.22	1600.000
216.59	392.857
216.97	1725.000
217.34	454.545
217.72	-783.333
218.09	0.000
218.47	-4700.000
218.84	766.667
219.22	857.143
219.59	1933.333
219.97	-700.000
220.34	1040.000
220.72	-1900.000
221.09	450.000
221.47	1500.000
221.84	-916.667
222.22	0.000
222.59	1425.000
222.97	-2500.000
223.34	1220.000
223.72	492.308
224.09	1280.000
224.46	2650.000
224.84	-5100.000
225.21	-1000.000
225.59	-5000.000
225.96	680.000
226.34	320.000
226.71	2900.000
227.08	700.000
227.46	540.000
227.83	-1225.000
228.21	-2550.000
228.58	700.000
228.95	-2150.000
229.33	-2700.000
229.70	1766.667
230.08	771.429
230.45	-900.000
230.82	450.000
231.20	816.667
231.57	742.857
231.95	491.667
232.32	263.636
232.69	418.182
233.07	685.714
233.44	469.231
233.81	-1766.667
234.19	305.263
234.56	466.667
234.93	375.000
235.31	454.545
235.68	384.615
236.05	400.000
236.43	200.000
236.80	257.895
237.17	5100.000
237.55	323.810
237.92	221.429
238.29	271.429
238.67	167.742
239.04	220.690
239.41	188.889
239.79	152.174
240.16	173.810
240.53	154.545
240.91	133.333
241.28	134.000
241.65	150.000
242.02	114.493
242.40	135.484
242.77	133.333
243.14	98.925
243.51	113.483
243.89	94.118
244.26	86.667
244.63	84.946
245.00	79.787
245.38	88.119
245.75	80.374
246.12	73.394
246.49	76.642
246.87	76.800
247.24	77.692
247.61	73.571
247.98	74.510
248.36	76.351
248.73	68.153
249.10	76.433
249.47	66.667
249.84	65.775
250.22	60.428
250.59	66.272
250.96	66.667
251.33	64.455
251.70	62.871
252.08	60.000
252.45	54.260
252.82	58.261
253.19	60.851
253.56	58.824
253.94	64.315
254.31	53.125
254.68	57.692
255.05	58.303
255.42	60.163
255.79	52.206
256.16	60.289
256.54	51.237
256.91	55.872
257.28	51.079
257.65	50.825
258.02	53.416
258.39	49.211
258.76	55.184
259.14	51.786
259.51	50.760
259.88	49.068
260.25	54.381
260.62	47.688
260.99	52.795
261.36	51.351
261.73	47.851
262.10	49.709
262.47	49.859
262.85	50.418
263.22	47.293
263.59	52.991
263.96	48.901
264.33	47.520
264.70	48.158
265.07	53.197
265.44	49.242
265.81	48.418
266.18	50.503
266.55	47.561
266.92	47.420
267.29	49.537
267.66	46.101
268.03	47.273
268.40	48.598
268.77	46.539
269.14	43.694
269.51	46.953
269.88	46.620
270.25	45.824
270.62	43.371
270.99	46.667
271.36	44.206
271.73	47.664
272.10	44.783
272.47	46.667
272.84	44.589
273.21	45.073
273.58	46.288
273.95	42.558
274.32	44.421
274.69	45.824
275.06	42.717
275.43	45.319
275.80	42.886
276.17	44.603
276.54	45.114
276.91	46.047
277.28	42.383
277.65	42.553
278.02	43.892
278.39	44.922
278.76	40.364
279.13	42.642
279.50	41.713
279.87	41.633
280.23	42.914
280.60	43.714
280.97	41.959
281.34	43.186
281.71	41.455
282.08	45.489
282.45	43.455
282.82	43.694
283.19	42.424
283.56	39.474
283.92	42.809
284.29	41.623
284.66	39.927
285.03	42.134
285.40	41.549
285.77	41.246
286.14	38.860
286.51	41.500
286.87	43.419
287.24	41.042
287.61	39.326
287.98	38.312
288.35	37.718
288.72	37.383
289.08	36.776
289.45	37.727
289.82	37.236
290.19	37.363
290.56	37.213
290.93	37.462
291.29	36.656
291.66	36.726
292.03	35.029
292.40	37.445
292.77	35.651
293.13	34.328
293.50	35.131
293.87	33.778
294.24	34.519
294.60	33.916
294.97	33.285
295.34	35.543
295.71	34.375
296.08	33.761
296.44	33.012
296.81	33.818
297.18	34.011
297.55	30.079
297.91	32.586
298.28	33.735
298.65	32.115
299.02	30.962
299.38	32.669
299.75	30.728
300.12	31.290
300.48	31.625
300.85	31.073
301.22	31.210
301.59	29.798
301.95	30.227
302.32	30.680
302.69	30.346
303.05	29.697
303.42	31.481
303.79	28.766
304.15	27.273
304.52	28.273
304.89	29.036
305.25	29.698
305.62	29.558
305.99	31.051
306.35	28.523
306.72	30.381
307.09	29.301
307.45	29.730
307.82	28.795
308.19	29.360
308.55	30.313
308.92	28.679
309.29	27.455
309.65	28.738
310.02	27.907
310.38	29.355
310.75	27.878
311.12	28.557
311.48	28.736
311.85	29.455
312.22	27.263
312.58	29.210
312.95	29.673
313.31	26.699
313.68	29.522
314.05	28.895
314.41	29.950
314.78	28.499
315.14	29.096
315.51	30.587
315.87	28.911
316.24	28.997
316.61	30.019
316.97	29.061
317.34	29.550
317.70	31.836
318.07	31.088
318.43	30.039
318.80	30.834
319.16	31.168
319.53	31.332
319.89	32.571
320.26	32.100
320.62	34.325
320.99	33.232
321.35	34.141
321.72	34.497
322.08	35.341
322.45	35.323
322.81	36.822
323.18	37.283
323.54	35.714
323.91	37.547
324.27	39.006
324.64	38.211
325.00	39.405
325.37	41.856
325.73	42.908
326.10	43.689
326.46	43.011
326.83	44.349
327.19	45.260
327.56	46.254
327.92	47.857
328.29	48.092
328.65	50.737
329.01	49.097
329.38	51.434
329.74	49.954
330.11	53.723
330.47	52.801
330.84	52.206
331.20	53.005
331.56	54.220
331.93	55.833
332.29	54.570
332.66	55.221
333.02	57.495
333.38	56.007
333.75	55.615
334.11	57.028
334.48	56.433
334.84	58.456
335.20	57.455
335.57	57.298
335.93	57.857
336.29	59.066
336.66	58.431
337.02	59.186
337.38	58.889
337.75	58.734
338.11	59.803
338.47	60.405
338.84	60.953
339.20	59.908
339.56	60.766
339.93	63.273
340.29	61.685
340.65	60.695
341.02	61.693
341.38	62.367
341.74	59.737
342.11	61.747
342.47	62.291
342.83	61.216
343.20	62.078
343.56	60.741
343.92	62.719
344.28	62.245
344.65	63.801
345.01	60.354
345.37	62.178
345.73	61.675
346.10	61.466
346.46	63.305
346.82	63.344
347.19	62.740
347.55	61.248
347.91	61.327
348.27	63.517
348.63	64.548
349.00	61.650
349.36	64.860
349.72	62.550
350.08	61.750
350.45	63.954
350.81	63.607
351.17	63.128
351.53	62.654
351.89	63.284
352.26	62.273
352.62	64.074
352.98	63.047
353.34	63.928
353.70	62.930
354.07	63.226
354.43	61.587
354.79	61.947
355.15	62.091
355.51	65.548
355.87	64.327
356.24	63.599
356.60	63.352
356.96	64.924
357.32	65.168
357.68	64.094
358.04	62.312
358.40	64.371
358.77	63.459
359.13	63.062
359.49	64.863
359.85	63.889
360.21	64.912
360.57	64.358
360.93	65.077
361.29	63.341
361.66	64.396
362.02	64.030
362.38	64.867
362.74	64.137
363.10	62.842
363.46	64.417
363.82	64.475
364.18	64.170
364.54	65.156
364.90	63.739
365.26	64.265
365.62	65.449
365.98	63.112
366.35	63.037
366.71	64.064
367.07	63.292
367.43	66.110
367.79	66.024
368.15	64.152
368.51	63.953
368.87	65.667
369.23	63.643
369.59	63.939
369.95	64.265
370.31	64.744
370.67	63.696
371.03	64.869
371.39	64.650
371.75	64.706
372.11	63.158
372.47	64.076
372.83	65.994
373.19	62.645
373.55	65.632
373.91	65.979
374.27	63.711
374.63	65.018
374.99	64.407
375.35	64.271
375.71	65.867
376.07	63.580
376.42	65.131
376.78	63.817
377.14	63.976
377.50	64.305
377.86	64.628
378.22	64.412
378.58	63.659
378.94	61.911
379.30	63.995
379.66	65.799
380.02	63.759
380.38	63.327
380.74	63.745
381.09	63.998
381.45	64.413
381.81	64.312
382.17	64.522
382.53	64.591
382.89	65.864
383.25	63.164
383.61	65.985
383.97	64.603
384.32	64.067
384.68	63.011
385.04	64.536
385.40	63.220
385.76	62.531
386.12	63.601
386.48	64.506
386.83	64.272
387.19	66.234
387.55	64.131
387.91	64.268
388.27	63.090
388.62	63.430
388.98	63.084
389.34	64.018
389.70	63.213
390.06	63.054
390.42	65.564
390.77	64.186
391.13	64.646
391.49	64.657
391.85	63.272
392.20	63.281
392.56	63.068
392.92	63.214
393.28	63.136
393.64	63.010
393.99	63.164
394.35	63.834
394.71	63.425
395.07	62.804
395.42	63.844
395.78	63.422
396.14	63.191
396.50	64.787
396.85	63.700
397.21	62.639
397.57	62.678
397.92	63.882
398.28	62.892
398.64	61.828
399.00	62.339
399.35	61.534
399.71	62.500
400.07	61.857
400.42	63.620
400.78	61.580
401.14	61.707
401.49	62.866
401.85	62.129
402.21	61.677
402.57	62.060
402.92	61.854
403.28	62.086
403.63	62.686
403.99	61.911
404.35	61.879
404.70	62.830
405.06	60.513
405.42	62.196
405.77	60.857
406.13	61.512
406.49	61.561
406.84	60.780
407.20	59.929
407.55	61.327
407.91	63.133
408.27	62.348
408.62	60.626
408.98	61.152
409.34	61.562
409.69	62.000
410.05	61.710
410.40	59.572
410.76	61.111
411.11	60.736
411.47	59.872
411.83	60.232
412.18	60.668
412.54	61.831
412.89	59.518
413.25	61.747
413.60	60.037
413.96	59.259
414.31	59.417
414.67	60.837
415.03	61.192
415.38	61.340
415.74	60.900
416.09	61.202
416.45	60.643
416.80	60.476
417.16	61.863
417.51	61.181
417.87	59.088
418.22	61.262
418.58	59.781
418.93	60.749
419.29	61.171
419.64	60.453
420.00	60.610
420.35	60.580
420.71	61.088
421.06	59.845
421.42	60.351
421.77	59.922
422.12	59.742
422.48	58.446
422.83	60.454
423.19	58.729
423.54	59.896
423.90	59.652
424.25	58.906
424.61	59.821
424.96	59.184
425.31	58.749
425.67	58.764
426.02	57.600
426.38	60.195
426.73	58.572
427.09	60.669
427.44	59.114
427.79	58.539
428.15	59.583
428.50	59.157
428.85	60.072
429.21	58.200
429.56	58.476
429.92	58.832
430.27	57.398
430.62	58.167
430.98	58.485
431.33	58.196
431.68	57.696
432.04	57.295
432.39	59.052
432.74	58.588
433.10	56.989
433.45	59.009
433.80	59.035
434.16	57.639
434.51	57.421
434.86	57.469
435.22	58.699
435.57	59.392
435.92	58.572
436.28	58.185
436.63	58.940
436.98	59.187
437.34	58.676
437.69	58.926
438.04	58.066
438.39	58.806
438.75	59.326
439.10	57.821
439.45	58.560
439.81	59.396
440.16	57.651
440.51	57.879
440.86	57.962
441.22	57.341
441.57	56.476
441.92	57.779
442.27	58.396
442.63	56.872
442.98	58.197
443.33	56.685
443.68	56.531
444.03	57.003
444.39	56.865
444.74	56.818
445.09	57.520
445.44	56.971
445.79	56.705
446.15	56.432
446.50	57.027
446.85	55.858
447.20	55.278
447.55	56.505
447.91	56.371
448.26	57.540
448.61	56.473
448.96	57.807
449.31	57.199
449.66	56.725
450.02	55.766
450.37	55.952
450.72	55.838
451.07	56.124
451.42	55.745
451.77	56.782
452.12	56.236
452.47	55.908
452.83	56.235
453.18	55.012
453.53	56.586
453.88	56.468
454.23	56.186
454.58	56.511
454.93	57.406
455.28	56.047
455.63	56.553
455.98	56.905
456.34	57.161
456.69	56.043
457.04	55.975
457.39	55.874
457.74	55.136
458.09	53.997
458.44	56.499
458.79	54.664
459.14	54.910
459.49	55.517
459.84	54.737
460.19	54.567
460.54	53.993
460.89	54.580
461.24	56.345
461.59	54.794
461.94	55.425
462.29	54.125
462.64	54.435
462.99	54.782
463.34	54.733
463.69	54.472
464.04	54.841
464.39	53.913
464.74	54.130
465.09	54.704
465.44	52.742
465.79	53.579
466.14	52.107
466.49	52.558
466.84	52.248
467.19	54.013
467.54	53.688
467.89	53.721
468.24	52.589
468.59	53.236
468.94	51.436
469.29	53.278
469.64	53.949
469.99	54.060
470.34	53.038
470.68	52.945
471.03	53.878
471.38	54.969
471.73	53.631
472.08	54.605
472.43	52.136
472.78	52.864
473.13	52.824
473.48	52.871
473.83	52.927
474.17	51.400
474.52	53.536
474.87	53.415
475.22	52.118
475.57	51.263
475.92	52.310
476.27	51.184
476.61	51.407
476.96	51.182
477.31	51.282
477.66	51.204
478.01	49.660
478.36	51.401
478.70	50.519
479.05	50.639
479.40	51.126
479.75	50.534
480.10	50.845
480.45	49.500
480.79	49.355
481.14	49.804
481.49	50.403
481.84	50.251
482.19	50.250
482.53	50.000
482.88	49.791
483.23	49.720
483.58	49.318
483.92	50.094
484.27	48.671
484.62	49.655
484.97	48.837
485.31	49.897
485.66	48.451
486.01	47.568
486.36	46.165
486.70	45.534
487.05	45.963
487.40	46.374
487.75	46.933
488.09	46.982
488.44	47.432
488.79	48.499
489.13	48.052
489.48	47.757
489.83	48.468
490.17	49.014
490.52	48.450
490.87	48.213
491.22	48.386
491.56	48.656
491.91	48.767
492.26	47.588
492.60	47.604
492.95	48.316
493.30	47.477
493.64	47.923
493.99	47.632
494.34	46.762
494.68	48.306
495.03	48.120
495.37	46.859
495.72	48.294
496.07	47.471
496.41	46.637
496.76	47.581
497.11	46.691
497.45	47.508
497.80	47.409
498.14	47.391
498.49	47.220
498.84	47.315
499.18	47.190
499.53	46.534
499.87	46.319
500.22	46.726
500.56	47.767
500.91	47.019
501.26	46.230
501.60	47.129
501.95	46.242
502.29	46.251
502.64	45.996
502.98	46.050
503.33	45.567
503.67	45.754
504.02	46.024
504.36	45.250
504.71	45.921
505.06	45.542
505.40	46.427
505.75	44.889
506.09	45.481
506.44	46.867
506.78	45.689
507.13	46.593
507.47	47.071
507.82	46.099
508.16	46.809
508.51	46.778
508.85	45.432
509.19	45.867
509.54	45.051
509.88	45.544
510.23	45.964
510.57	46.491
510.92	46.349
511.26	45.427
511.61	45.280
511.95	44.676
512.30	45.281
512.64	45.459
512.98	45.284
513.33	44.754
513.67	44.504
514.02	45.238
514.36	45.440
514.70	45.213
515.05	44.004
515.39	45.709
515.74	44.932
516.08	45.892
516.42	44.839
516.77	44.872
517.11	43.674
517.46	45.147
517.80	46.051
518.14	44.470
518.49	46.208
518.83	43.409
519.17	45.266
519.52	43.746
519.86	44.039
520.20	44.855
520.55	45.542
520.89	44.891
521.23	44.934
521.58	44.958
521.92	45.009
522.26	44.295
522.61	44.611
522.95	43.462
523.29	44.248
523.64	44.451
523.98	45.225
524.32	44.331
524.66	44.378
525.01	44.547
525.35	43.804
525.69	42.919
526.04	44.050
526.38	43.502
526.72	44.110
527.06	43.691
527.41	43.069
527.75	44.566
528.09	43.481
528.43	43.786
528.78	44.991
529.12	43.515
529.46	43.968
529.80	44.307
530.15	42.866
530.49	43.200
530.83	44.620
531.17	45.039
531.51	44.034
531.86	43.806
532.20	44.068
532.54	43.177
532.88	43.261
533.22	43.098
533.57	41.852
533.91	42.685
534.25	42.649
534.59	42.526
534.93	42.832
535.27	43.874
535.62	43.284
535.96	44.193
536.30	41.894
536.64	42.176
536.98	42.535
537.32	43.581
537.66	42.200
538.01	42.725
538.35	42.534
538.69	42.948
539.03	41.780
539.37	42.109
539.71	41.283
540.05	41.634
540.39	42.857
540.73	42.367
541.07	42.051
541.42	42.401
541.76	43.548
542.10	42.109
542.44	41.325
542.78	42.819
543.12	41.011
543.46	42.361
543.80	41.705
544.14	41.335
544.48	42.603
544.82	41.309
545.16	41.835
545.50	41.452
545.84	41.935
546.18	41.549
546.52	42.877
546.86	41.306
547.20	41.200
547.54	42.418
547.88	41.390
548.22	40.535
548.56	41.069
548.90	41.165
549.24	41.347
549.58	40.655
549.92	40.591
550.26	41.406
550.60	40.456
550.94	40.775
551.28	39.649
551.62	42.559
551.96	40.351
552.30	41.570
552.64	41.176
552.98	40.746
553.32	40.593
553.66	41.377
554.00	41.318
554.34	39.337
554.68	40.916
555.02	41.255
555.36	40.640
555.69	39.175
556.03	39.906
556.37	41.269
556.71	39.359
557.05	40.616
557.39	40.798
557.73	40.861
558.07	40.754
558.41	40.883
558.75	40.411
559.08	40.865
559.42	40.438
559.76	40.515
560.10	40.114
560.44	39.693
560.78	39.521
561.12	39.710
561.45	40.417
561.79	39.684
562.13	39.973
562.47	40.847
562.81	40.865
563.15	39.799
563.48	39.655
563.82	39.791
564.16	39.372
564.50	38.867
564.84	38.812
565.17	39.575
565.51	40.895
565.85	40.863
566.19	38.635
566.52	40.025
566.86	39.361
567.20	38.974
567.54	38.984
567.88	38.403
568.21	39.312
568.55	38.675
568.89	38.278
569.23	38.146
569.56	37.895
569.90	38.075
570.24	37.244
570.57	37.232
570.91	36.716
571.25	36.566
571.59	36.495
571.92	36.146
572.26	35.933
572.60	36.096
572.93	36.552
573.27	36.676
573.61	36.293
573.95	36.202
574.28	36.357
574.62	36.127
574.96	35.699
575.29	35.790
575.63	35.467
575.97	35.538
576.30	36.166
576.64	35.330
576.98	35.610
577.31	35.975
577.65	36.048
577.98	35.826
578.32	34.909
578.66	35.241
578.99	35.540
579.33	35.536
579.67	34.979
580.00	35.171
580.34	35.263
580.67	35.642
581.01	35.777
581.35	35.611
581.68	35.168
582.02	35.141
582.35	35.154
582.69	35.456
583.02	34.652
583.36	35.209
583.70	35.090
584.03	35.371
584.37	35.652
584.70	35.632
585.04	35.176
585.37	35.042
585.71	35.691
586.04	35.008
586.38	35.371
586.72	35.681
587.05	35.534
587.39	34.644
587.72	35.584
588.06	34.819
588.39	35.857
588.73	35.260
589.06	35.619
589.40	35.421
589.73	35.797
590.07	35.730
590.40	35.111
590.73	35.519
591.07	36.834
591.40	35.934
591.74	36.840
592.07	35.995
592.41	36.255
592.74	34.831
593.08	35.976
593.41	35.369
593.75	34.947
594.08	34.864
594.41	34.889
594.75	35.009
595.08	35.469
595.42	35.377
595.75	35.114
596.09	35.787
596.42	35.285
596.75	35.163
597.09	35.931
597.42	35.413
597.75	35.576
598.09	35.652
598.42	35.095
598.76	34.779
599.09	35.652
599.42	34.061
599.76	35.395
600.09	35.009
600.42	34.514
600.76	34.821
601.09	34.900
601.42	34.855
601.76	34.497
602.09	35.178
602.42	34.992
602.76	34.825
603.09	34.697
603.42	35.884
603.76	34.184
604.09	35.363
604.42	34.855
604.76	34.542
605.09	34.426
605.42	34.587
605.75	35.430
606.09	34.730
606.42	35.227
606.75	33.679
607.09	34.115
607.42	34.917
607.75	34.810
608.08	33.478
608.42	35.096
608.75	33.995
609.08	35.106
609.41	34.317
609.75	34.207
610.08	36.098
610.41	34.916
610.74	34.011
611.07	35.227
611.41	35.378
611.74	35.244
612.07	35.714
612.40	35.939
612.73	35.000
613.07	36.261
613.40	35.229
613.73	35.501
614.06	35.376
614.39	35.868
614.72	34.895
615.06	35.294
615.39	35.191
615.72	33.947
616.05	34.822
616.38	35.520
616.71	35.986
617.05	35.159
617.38	34.937
617.71	35.255
618.04	36.058
618.37	34.950
618.70	35.283
619.03	36.118
619.36	35.234
619.69	35.423
620.03	35.783
620.36	35.963
620.69	36.438
621.02	36.062
621.35	35.004
621.68	35.981
622.01	34.211
622.34	35.703
622.67	35.437
623.00	35.363
623.33	36.526
623.66	35.311
623.99	36.230
624.32	34.879
624.65	35.169
624.99	35.482
625.32	35.409
625.65	36.739
625.98	36.818
626.31	37.403
626.64	35.837
626.97	36.492
627.30	35.578
627.63	36.341
627.96	36.501
628.29	34.996
628.62	35.682
628.95	36.604
629.28	36.861
629.61	36.297
629.94	38.000
630.26	35.176
630.59	37.464
630.92	36.015
631.25	36.525
631.58	36.236
631.91	37.018
632.24	37.447
632.57	36.411
632.90	38.048
633.23	36.242
633.56	37.627
633.89	38.165
634.22	37.457
634.55	37.988
634.88	36.407
635.20	37.395
635.53	36.627
635.86	38.243
636.19	37.529
636.52	37.255
636.85	37.686
637.18	36.290
637.51	37.707
637.83	36.005
638.16	37.724
638.49	38.539
638.82	41.087
639.15	37.500
639.48	38.529
639.81	38.874
640.13	38.672
640.46	38.255
640.79	36.724
641.12	37.276
641.45	39.525
641.77	38.439
642.10	38.304
642.43	37.538
642.76	37.926
643.09	37.577
643.41	37.785
643.74	39.198
644.07	37.805
644.40	39.724
644.73	38.740
645.05	39.778
645.38	38.547
645.71	38.969
646.04	38.704
646.36	43.406
646.69	39.632
647.02	38.435
647.35	41.409
647.67	38.407
648.00	40.000
648.33	38.284
648.66	38.485
648.98	39.880
649.31	37.070
649.64	39.611
649.96	39.344
650.29	39.652
650.62	38.673
650.94	38.574
651.27	38.176
651.60	38.103
651.92	39.936
652.25	38.274
652.58	38.941
652.90	37.757
653.23	36.980
653.56	38.898
653.88	37.084
654.21	39.021
654.54	39.934
654.86	39.252
655.19	37.838
655.52	28.093
655.84	28.008
656.17	36.894
656.49	49.258
656.82	48.931
657.15	36.660
657.47	26.791
657.80	20.485
658.13	20.619
658.45	30.490
658.78	30.529
659.10	31.792
659.43	32.675
659.75	33.408
660.08	36.962
660.41	39.013
660.73	41.296
661.06	39.968
661.38	40.182
661.71	43.462
662.03	40.434
662.36	36.183
662.68	41.767
663.01	40.000
663.33	39.915
663.66	40.336
663.98	41.685
664.31	38.235
664.63	37.449
664.96	37.223
665.28	39.959
665.61	40.156
665.93	40.443
666.26	37.931
666.58	42.259
666.91	40.803
667.23	42.472
667.56	38.661
667.88	40.385
668.21	41.151
668.53	38.829
668.86	43.074
669.18	43.284
669.50	41.087
669.83	43.791
670.15	39.556
670.48	38.562
670.80	39.009
671.13	39.490
671.45	38.723
671.77	42.566
672.10	40.481
672.42	39.929
672.75	36.816
673.07	39.437
673.39	36.890
673.72	40.039
674.04	40.196
674.37	39.417
674.69	39.673
675.01	39.331
675.34	43.326
675.66	41.895
675.98	40.530
676.31	40.126
676.63	37.367
676.95	40.671
677.28	38.551
677.60	43.516
677.92	41.350
678.25	39.425
678.57	37.849
678.89	39.479
679.22	39.293
679.54	37.405
679.86	40.183
680.18	38.819
680.51	37.766
680.83	39.502
681.15	40.755
681.48	41.966
681.80	41.586
682.12	39.847
682.44	35.203
682.77	38.086
683.09	40.987
683.41	38.359
683.73	40.839
684.06	39.463
684.38	36.595
684.70	38.953
685.02	40.338
685.34	36.996
685.67	35.839
685.99	37.801
686.31	36.860
686.63	39.046
686.96	38.393
687.28	37.906
687.60	36.051
687.92	38.026
688.24	37.643
688.56	39.759
688.89	41.286
689.21	41.485
689.53	40.710
689.85	40.355
690.17	39.130
690.49	38.854
690.82	42.757
691.14	39.062
691.46	36.709
691.78	40.562
692.10	40.083
692.42	41.317
692.74	40.456
693.06	39.574
693.39	40.041
693.71	39.083
694.03	39.579
694.35	39.177
694.67	37.986
694.99	38.537
695.31	37.990
695.63	38.278
695.95	41.320
696.27	39.340
696.59	40.674
696.91	40.415
697.23	39.671
697.56	40.938
697.88	37.832
698.20	38.958
698.52	39.355
698.84	39.866
699.16	42.166
699.48	42.043
699.80	40.580
700.12	43.377
700.44	44.032
700.76	42.265
701.08	41.667
701.40	43.017
701.72	44.898
702.04	47.159
702.36	41.360
702.68	42.493
703.00	40.443
703.32	43.617
703.64	41.019
703.96	44.290
704.28	41.570
704.60	43.402
704.91	45.697
705.23	43.402
705.55	44.186
705.87	48.173
706.19	46.643
706.51	38.941
706.83	45.455
707.15	42.297
707.47	40.152
707.79	44.226
708.11	40.183
708.43	39.762
708.74	40.306
709.06	44.156
709.38	41.470
709.70	43.023
710.02	44.807
710.34	39.697
710.66	42.985
710.98	42.614
711.29	41.279
711.61	47.493
711.93	42.308
712.25	43.730
712.57	48.529
712.89	47.751
713.20	43.465
713.52	49.671
713.84	44.304
714.16	42.073
714.48	43.966
714.80	45.897
715.11	43.516
715.43	43.027
715.75	46.957
716.07	44.409
716.39	45.455
716.70	46.179
717.02	49.640
717.34	43.463
717.66	48.881
717.97	47.410
718.29	42.963
718.61	47.080
718.93	44.485
719.24	47.059
719.56	43.051
719.88	46.102
720.20	45.946
720.51	43.902
720.83	45.725
721.15	44.030
721.46	45.035
721.78	46.953
722.10	48.679
722.42	46.992
722.73	47.191
723.05	49.590
723.37	48.988
723.68	45.174
724.00	51.626
724.32	48.790
724.63	47.967
724.95	47.280
725.27	51.417
725.58	48.828
725.90	47.810
726.22	46.415
726.53	47.569
726.85	43.686
727.16	44.840
727.48	46.099
727.80	47.348
728.11	42.029
728.43	44.231
728.74	47.670
729.06	49.270
729.38	51.103
729.69	49.466
730.01	43.686
730.32	45.139
730.64	40.468
730.96	39.604
731.27	45.033
731.59	45.566
731.90	44.315
732.22	44.720
732.53	40.557
732.85	40.705
733.16	41.801
733.48	47.508
733.80	44.481
734.11	44.586
734.43	41.716
734.74	38.857
735.06	43.266
735.37	43.064
735.69	42.357
736.00	46.078
736.32	42.991
736.63	45.367
736.95	44.409
737.26	38.776
737.58	45.806
737.89	42.140
738.21	44.027
738.52	45.357
738.83	43.774
739.15	40.385
739.46	47.810
739.78	47.569
740.09	44.000
740.41	46.774
740.72	44.251
741.04	47.037
741.35	43.750
741.66	55.111
741.98	51.415
742.29	46.890
742.61	49.138
742.92	49.774
743.23	46.154
743.55	47.200
743.86	49.123
744.18	50.442
744.49	55.502
744.80	55.399
745.12	52.727
745.43	47.577
745.74	53.153
746.06	50.917
746.37	52.466
746.68	47.059
747.00	52.315
747.31	52.381
747.62	46.460
747.94	50.661
748.25	48.936
748.56	51.101
748.88	47.030
749.19	58.500
749.50	46.977
749.82	44.715
750.13	46.531
750.44	44.161
750.75	46.316
751.07	44.373
751.38	44.599
751.69	47.653
752.01	42.105
752.32	42.960
752.63	44.326
752.94	51.230
753.26	49.600
753.57	44.715
753.88	50.781
754.19	46.429
754.51	47.917
754.82	38.628
755.13	45.660
755.44	44.361
755.75	44.891
756.07	44.326
756.38	42.336
756.69	41.946
757.00	41.317
757.31	37.982
757.63	40.058
757.94	38.606
758.25	39.951
758.56	37.778
758.87	40.323
759.18	40.000
759.50	41.379
759.81	39.564
760.12	43.125
760.43	42.407
760.74	37.772
761.05	43.785
761.36	39.037
761.67	41.193
761.99	42.547
762.30	48.611
762.61	46.565
762.92	46.484
763.23	45.798
763.54	52.800
763.85	43.750
764.16	48.077
764.47	50.951
764.78	42.049
765.10	41.456
765.41	41.593
765.72	43.713
766.03	43.260
766.34	44.667
766.65	51.915
766.96	45.299
767.27	53.807
767.58	54.688
767.89	50.000
768.20	59.195
768.51	48.223
768.82	52.752
769.13	43.089
769.44	45.344
769.75	45.494
770.06	40.826
770.37	51.584
770.68	51.389
770.99	49.333
771.30	40.574
771.61	49.776
771.92	49.180
772.23	52.941
772.54	50.256
772.85	55.497
773.16	51.596
773.47	53.804
773.78	56.853
774.09	60.119
774.39	62.573
774.70	62.346
775.01	68.841
775.32	62.745
775.63	63.158
775.94	62.590
776.25	70.079
776.56	66.418
776.87	70.492
777.18	70.313
777.48	69.466
777.79	67.424
778.10	67.407
778.41	73.214
778.72	59.854
779.03	59.732
779.34	58.389
779.65	56.757
779.95	56.442
780.26	66.013
780.57	65.517
780.88	71.875
781.19	63.158
781.50	62.838
781.80	64.151
782.11	45.198
782.42	53.797
782.73	60.123
783.04	70.946
783.34	66.197
783.65	67.123
783.96	67.910
784.27	62.937
784.57	57.554
784.88	62.963
785.19	67.460
785.50	68.868
785.81	68.657
786.11	77.049
786.42	70.543
786.73	55.752
787.04	75.472
787.34	68.750
787.65	73.000
787.96	59.459
788.26	61.983
788.57	74.576
788.88	80.992
789.19	56.250
789.49	63.636
789.80	70.229
790.11	82.857
790.41	79.208
790.72	85.542
791.03	89.130
791.33	79.070
791.64	69.072
791.95	79.208
792.25	86.667
792.56	98.701
792.87	97.436
793.17	98.734
793.48	89.655
793.79	70.115
794.09	81.818
794.40	74.790
794.70	66.176
795.01	65.926
795.32	61.871
795.62	74.803
795.93	64.655
796.23	66.372
796.54	98.824
796.85	95.946
797.15	109.859
797.46	95.455
797.76	91.566
798.07	86.076
798.37	90.769
798.68	101.515
798.99	85.915
799.29	87.013
799.60	85.227
799.90	100.000
800.21	92.537
800.51	96.552
800.82	103.509
801.12	113.115
801.43	119.697
801.73	82.432
802.04	125.397
802.34	80.247
802.65	106.250
802.95	127.119
803.26	118.750
803.56	88.571
803.87	95.385
804.17	113.235
804.48	131.481
804.78	118.966
805.09	108.824
805.39	132.692
805.70	112.500
806.00	111.475
806.30	96.970
806.61	89.024
806.91	78.481
807.22	101.316
807.52	80.597
807.83	109.859
808.13	100.000
808.43	111.667
808.74	88.158
809.04	100.000
809.35	108.955
809.65	93.421
809.95	127.419
810.26	94.915
810.56	112.698
810.86	134.091
811.17	171.429
811.47	118.333
811.77	112.963
812.08	105.455
812.38	130.000
812.69	177.778
812.99	147.727
813.29	122.449
813.59	107.143
813.90	148.980
814.20	134.545
814.50	106.154
814.81	102.941
815.11	153.061
815.41	108.197
815.72	166.667
816.02	127.273
816.32	150.000
816.62	132.500
816.93	129.268
817.23	157.143
817.53	154.545
817.84	184.848
818.14	136.957
818.44	144.444
818.74	176.471
819.04	157.500
819.35	160.000
819.65	197.059
819.95	164.286
820.25	205.000
820.56	153.846
820.86	125.000
821.16	139.535
821.46	151.282
821.76	150.000
822.07	191.429
822.37	175.000
822.67	196.970
822.97	107.843
823.27	210.714
823.57	170.270
823.88	170.000
824.18	203.333
824.48	169.048
824.78	228.000
825.08	195.833
825.38	178.378
825.69	158.537
825.99	254.167
826.29	196.552
826.59	184.211
826.89	163.158
827.19	152.941
827.49	212.903
827.79	145.455
828.09	150.000
828.39	140.426
828.70	136.735
829.00	192.593
829.30	161.290
829.60	185.000
829.90	320.000
830.20	196.429
830.50	195.652
830.80	230.435
831.10	213.333
831.40	200.000
831.70	230.435
832.00	250.000
832.30	188.889
832.60	318.750
832.90	210.000
833.20	385.714
833.50	193.548
833.80	220.690
834.10	225.000
834.40	276.923
834.70	316.667
835.00	338.095
835.30	180.000
835.60	376.923
835.90	193.103
836.20	400.000
836.50	206.897
836.80	244.000
837.10	188.889
837.40	285.714
837.70	388.235
838.00	196.296
838.30	271.429
838.60	295.238
838.90	223.077
839.19	260.000
839.49	392.857
839.79	340.000
840.09	320.000
840.39	295.238
840.69	260.870
840.99	311.111
841.29	440.000
841.59	458.333
841.88	381.250
842.18	189.655
842.48	271.429
842.78	183.333
843.08	204.348
843.38	203.125
843.68	750.000
843.97	230.769
844.27	217.241
844.57	342.857
844.87	356.250
845.17	233.333
845.47	1600.000
845.76	422.222
846.06	317.647
846.36	500.000
846.66	435.714
846.96	325.000
847.25	536.364
847.55	372.727
847.85	278.261
848.15	500.000
848.44	357.143
848.74	277.778
849.04	370.588
849.34	620.000
849.63	247.368
849.93	427.273
850.23	1020.000
850.53	442.857
850.82	2350.000
851.12	-4000.000
851.42	5000.000
851.71	310.000
852.01	-1266.667
852.31	233.333
852.61	1733.333
852.90	257.143
853.20	260.000
853.50	323.529
853.79	271.429
854.09	245.833
854.39	368.750
854.68	178.378
854.98	170.968
855.28	186.667
855.57	237.931
855.87	251.852
856.17	300.000
856.46	280.000
856.76	311.765
857.05	210.345
857.35	233.333
857.65	386.667
857.94	260.870
858.24	246.154
858.53	335.000
858.83	277.273
859.13	340.000
859.42	0.000
859.72	633.333
860.01	490.909
860.31	268.182
860.60	294.737
860.90	269.565
861.20	611.111
861.49	466.667
861.79	-4900.000
862.08	687.500
862.38	280.952
862.67	400.000
862.97	358.824
863.26	566.667
863.56	300.000
863.85	433.333
864.15	525.000
864.44	386.667
864.74	683.333
865.03	637.500
865.33	326.316
865.62	581.818
865.92	415.385
866.21	408.333
866.51	0.000
866.80	536.364
867.10	1200.000
867.39	492.308
867.69	436.364
867.98	331.579
868.27	500.000
868.57	326.316
868.86	-5800.000
869.16	343.750
869.45	2450.000
869.75	-4500.000
870.04	441.667
870.33	742.857
870.63	1075.000
870.92	2850.000
871.22	900.000
871.51	329.412
871.80	266.667
872.10	350.000
>>>>>End Processed Spectral Data<<<<<
