SpectraSuite Data File
++++++++++++++++++++++++++++++++++++
Date: Wed May 13 19:12:09 PDT 2015
User: schluterlab
Dark Spectrum Present: Yes
Reference Spectrum Present: Yes
Number of Sampled Component Spectra: 1
Spectrometers: USB2E3373
Integration Time (usec): 3000 (USB2E3373)
Spectra Averaged: 3 (USB2E3373)
Boxcar Smoothing: 0 (USB2E3373)
Correct for Electrical Dark: No (USB2E3373)
Strobe/Lamp Enabled: No (USB2E3373)
Correct for Detector Non-linearity: No (USB2E3373)
Correct for Stray Light: No (USB2E3373)
Number of Pixels in Processed Spectrum: 2048
>>>>>Begin Processed Spectral Data<<<<<
178.53	0.000
178.91	-1375.000
179.29	-1325.000
179.67	-250.000
180.04	-1375.000
180.42	3050.000
180.80	1260.000
181.18	-1350.000
181.56	800.000
181.94	0.000
182.31	-800.000
182.69	2166.667
183.07	-662.500
183.45	-577.778
183.83	618.182
184.20	-460.000
184.58	2550.000
184.96	5500.000
185.34	-900.000
185.72	-600.000
186.09	-2300.000
186.47	3050.000
186.85	2700.000
187.23	5200.000
187.61	-1733.333
187.98	1350.000
188.36	627.273
188.74	481.818
189.12	-1040.000
189.49	570.000
189.87	-5000.000
190.25	-1425.000
190.63	450.000
191.00	438.462
191.38	833.333
191.76	-1125.000
192.14	1525.000
192.51	687.500
192.89	950.000
193.27	762.500
193.65	-1225.000
194.02	590.000
194.40	1040.000
194.78	550.000
195.15	525.000
195.53	860.000
195.91	-2700.000
196.29	375.000
196.66	363.158
197.04	-410.000
197.42	0.000
197.79	700.000
198.17	-4800.000
198.55	800.000
198.92	687.500
199.30	1000.000
199.68	0.000
200.05	361.111
200.43	1014.286
200.81	4300.000
201.18	1900.000
201.56	-1933.333
201.94	622.222
202.31	677.778
202.69	483.333
203.07	700.000
203.44	0.000
203.82	1200.000
204.19	885.714
204.57	521.429
204.95	725.000
205.32	1700.000
205.70	527.273
206.08	435.714
206.45	2950.000
206.83	375.000
207.20	1150.000
207.58	980.000
207.96	316.667
208.33	775.000
208.71	-900.000
209.08	900.000
209.46	711.111
209.84	563.636
210.21	-1966.667
210.59	1500.000
210.96	-562.500
211.34	3300.000
211.71	660.000
212.09	850.000
212.46	0.000
212.84	1866.667
213.22	1700.000
213.59	-5500.000
213.97	950.000
214.34	971.429
214.72	545.455
215.09	1220.000
215.47	-2600.000
215.84	-2750.000
216.22	1933.333
216.59	407.143
216.97	1625.000
217.34	554.545
217.72	-766.667
218.09	0.000
218.47	-5900.000
218.84	833.333
219.22	828.571
219.59	1733.333
219.97	-800.000
220.34	1120.000
220.72	-1900.000
221.09	521.429
221.47	1625.000
221.84	-1000.000
222.22	0.000
222.59	1400.000
222.97	-2900.000
223.34	1220.000
223.72	484.615
224.09	1120.000
224.46	2750.000
224.84	-5900.000
225.21	-1180.000
225.59	-5500.000
225.96	640.000
226.34	310.000
226.71	2800.000
227.08	762.500
227.46	650.000
227.83	-1525.000
228.21	-3200.000
228.58	733.333
228.95	-3200.000
229.33	-2600.000
229.70	2000.000
230.08	871.429
230.45	-980.000
230.82	433.333
231.20	950.000
231.57	714.286
231.95	525.000
232.32	245.455
232.69	463.636
233.07	771.429
233.44	407.692
233.81	-1866.667
234.19	331.579
234.56	508.333
234.93	508.333
235.31	518.182
235.68	415.385
236.05	428.571
236.43	227.273
236.80	336.842
237.17	5500.000
237.55	295.238
237.92	221.429
238.29	319.048
238.67	212.903
239.04	234.483
239.41	177.778
239.79	136.957
240.16	173.810
240.53	190.909
240.91	141.176
241.28	138.000
241.65	136.000
242.02	118.841
242.40	135.484
242.77	128.333
243.14	94.624
243.51	92.135
243.89	108.235
244.26	76.667
244.63	90.323
245.00	87.234
245.38	92.079
245.75	85.047
246.12	77.064
246.49	80.292
246.87	80.000
247.24	80.000
247.61	72.143
247.98	69.935
248.36	61.486
248.73	64.331
249.10	73.885
249.47	66.667
249.84	64.171
250.22	64.171
250.59	63.314
250.96	63.636
251.33	63.981
251.70	58.416
252.08	65.238
252.45	57.399
252.82	58.696
253.19	58.298
253.56	56.863
253.94	58.921
254.31	58.203
254.68	57.308
255.05	54.982
255.42	56.098
255.79	58.456
256.16	55.957
256.54	52.297
256.91	53.737
257.28	48.921
257.65	51.155
258.02	51.863
258.39	51.420
258.76	52.508
259.14	49.405
259.51	51.672
259.88	48.758
260.25	48.943
260.62	45.376
260.99	51.863
261.36	51.952
261.73	49.284
262.10	49.709
262.47	46.761
262.85	48.468
263.22	45.584
263.59	51.567
263.96	52.473
264.33	45.170
264.70	48.684
265.07	48.338
265.44	46.970
265.81	43.796
266.18	46.482
266.55	43.902
266.92	46.683
267.29	49.769
267.66	44.266
268.03	42.955
268.40	46.495
268.77	44.153
269.14	42.342
269.51	47.630
269.88	44.289
270.25	45.598
270.62	44.045
270.99	44.946
271.36	47.210
271.73	43.692
272.10	45.217
272.47	44.516
272.84	42.857
273.21	45.702
273.58	41.485
273.95	42.348
274.32	41.942
274.69	42.827
275.06	39.764
275.43	42.766
275.80	45.892
276.17	43.177
276.54	42.620
276.91	42.688
277.28	41.406
277.65	42.747
278.02	41.201
278.39	43.164
278.76	41.273
279.13	42.075
279.50	40.596
279.87	41.235
280.23	42.515
280.60	40.619
280.97	41.959
281.34	41.947
281.71	42.364
282.08	41.075
282.45	41.091
282.82	41.030
283.19	39.037
283.56	40.351
283.92	41.455
284.29	40.564
284.66	39.564
285.03	38.156
285.40	37.852
285.77	37.374
286.14	37.306
286.51	41.167
286.87	37.436
287.24	38.274
287.61	37.239
287.98	38.636
288.35	36.450
288.72	36.293
289.08	37.089
289.45	37.727
289.82	35.772
290.19	35.008
290.56	34.150
290.93	33.988
291.29	35.429
291.66	35.693
292.03	35.174
292.40	35.683
292.77	33.284
293.13	32.388
293.50	33.965
293.87	35.111
294.24	34.963
294.60	31.004
294.97	34.302
295.34	34.979
295.71	34.091
296.08	33.903
296.44	31.774
296.81	31.836
297.18	32.520
297.55	30.343
297.91	32.058
298.28	32.129
298.65	31.593
299.02	30.303
299.38	31.607
299.75	29.515
300.12	29.374
300.48	29.875
300.85	29.100
301.22	30.191
301.59	30.303
301.95	30.101
302.32	30.039
302.69	29.032
303.05	28.848
303.42	27.901
303.79	30.125
304.15	27.622
304.52	28.389
304.89	28.107
305.25	30.278
305.62	28.766
305.99	27.981
306.35	28.635
306.72	27.915
307.09	27.858
307.45	28.266
307.82	26.897
308.19	28.698
308.55	28.479
308.92	28.142
309.29	27.772
309.65	27.890
310.02	28.224
310.38	27.957
310.75	27.244
311.12	29.171
311.48	28.631
311.85	27.987
312.22	28.304
312.58	27.651
312.95	29.145
313.31	27.184
313.68	28.586
314.05	30.473
314.41	29.447
314.78	28.097
315.14	28.898
315.51	29.866
315.87	27.723
316.24	28.997
316.61	28.752
316.97	28.571
317.34	28.474
317.70	30.306
318.07	30.318
318.43	30.235
318.80	30.740
319.16	30.320
319.53	29.644
319.89	31.333
320.26	31.800
320.62	33.135
320.99	31.616
321.35	31.212
321.72	31.828
322.08	33.662
322.45	33.831
322.81	32.364
323.18	33.333
323.54	33.302
323.91	34.151
324.27	34.130
324.64	34.203
325.00	33.183
325.37	34.759
325.73	35.907
326.10	34.951
326.46	35.305
326.83	37.274
327.19	35.525
327.56	37.195
327.92	36.745
328.29	38.421
328.65	38.306
329.01	37.184
329.38	37.558
329.74	37.396
330.11	38.549
330.47	38.476
330.84	38.051
331.20	36.521
331.56	39.174
331.93	39.074
332.29	37.356
332.66	40.000
333.02	39.488
333.38	39.024
333.75	38.592
334.11	38.701
334.48	38.687
334.84	39.706
335.20	40.545
335.57	39.529
335.93	39.286
336.29	38.553
336.66	40.216
337.02	38.824
337.38	39.352
337.75	37.879
338.11	39.481
338.47	40.424
338.84	39.688
339.20	39.908
339.56	40.967
339.93	39.273
340.29	39.402
340.65	39.037
341.02	39.965
341.38	40.125
341.74	39.737
342.11	40.349
342.47	40.705
342.83	38.356
343.20	40.173
343.56	37.489
343.92	39.561
344.28	39.541
344.65	40.327
345.01	37.542
345.37	39.022
345.73	40.863
346.10	39.812
346.46	39.661
346.82	39.209
347.19	39.599
347.55	38.095
347.91	40.129
348.27	38.291
348.63	39.465
349.00	38.916
349.36	38.916
349.72	39.695
350.08	39.951
350.45	40.358
350.81	39.480
351.17	38.250
351.53	38.739
351.89	38.201
352.26	39.305
352.62	39.214
352.98	38.817
353.34	38.291
353.70	38.789
354.07	39.274
354.43	39.524
354.79	38.938
355.15	39.106
355.51	39.808
355.87	39.755
356.24	39.577
356.60	38.091
356.96	39.501
357.32	38.348
357.68	39.213
358.04	38.321
358.40	39.509
358.77	39.202
359.13	37.806
359.49	38.667
359.85	38.016
360.21	38.357
360.57	38.132
360.93	38.538
361.29	38.246
361.66	38.854
362.02	38.955
362.38	38.479
362.74	39.137
363.10	39.008
363.46	38.738
363.82	39.229
364.18	38.106
364.54	40.416
364.90	39.164
365.26	38.824
365.62	38.934
365.98	38.787
366.35	37.536
366.71	38.539
367.07	38.602
367.43	38.897
367.79	40.186
368.15	40.302
368.51	39.099
368.87	39.186
369.23	38.844
369.59	39.681
369.95	38.824
370.31	39.886
370.67	39.565
371.03	40.225
371.39	39.431
371.75	39.559
372.11	39.545
372.47	40.029
372.83	41.066
373.19	40.029
373.55	40.133
373.91	40.574
374.27	40.825
374.63	38.909
374.99	40.537
375.35	37.893
375.71	40.027
376.07	39.918
376.42	40.303
376.78	40.822
377.14	40.706
377.50	41.788
377.86	39.894
378.22	38.812
378.58	38.972
378.94	40.163
379.30	40.204
379.66	40.799
380.02	41.155
380.38	41.166
380.74	40.396
381.09	41.932
381.45	41.672
381.81	40.479
382.17	40.701
382.53	40.189
382.89	41.235
383.25	42.276
383.61	40.830
383.97	41.651
384.32	41.422
384.68	42.503
385.04	42.041
385.40	41.300
385.76	42.199
386.12	42.422
386.48	41.347
386.83	43.554
387.19	43.970
387.55	41.744
387.91	43.410
388.27	41.937
388.62	42.409
388.98	42.138
389.34	43.179
389.70	42.980
390.06	43.156
390.42	43.385
390.77	43.130
391.13	43.523
391.49	43.211
391.85	43.285
392.20	43.785
392.56	43.561
392.92	43.967
393.28	42.485
393.64	43.225
393.99	43.372
394.35	44.789
394.71	43.099
395.07	43.427
395.42	44.870
395.78	44.084
396.14	43.824
396.50	45.865
396.85	45.709
397.21	44.513
397.57	44.265
397.92	45.493
398.28	44.955
398.64	43.668
399.00	43.257
399.35	44.444
399.71	45.486
400.07	46.304
400.42	46.135
400.78	46.140
401.14	45.061
401.49	45.672
401.85	45.433
402.21	45.988
402.57	45.589
402.92	45.776
403.28	46.284
403.63	45.606
403.99	46.115
404.35	44.606
404.70	45.624
405.06	45.952
405.42	46.475
405.77	45.657
406.13	45.372
406.49	46.600
406.84	45.718
407.20	47.163
407.55	47.224
407.91	48.267
408.27	46.905
408.62	47.080
408.98	46.385
409.34	47.663
409.69	47.871
410.05	47.708
410.40	48.563
410.76	47.133
411.11	48.613
411.47	47.157
411.83	48.442
412.18	47.495
412.54	48.194
412.89	48.072
413.25	48.701
413.60	48.919
413.96	47.420
414.31	48.542
414.67	48.669
415.03	48.808
415.38	49.227
415.74	49.260
416.09	49.575
416.45	51.406
416.80	49.570
417.16	50.670
417.51	50.431
417.87	48.683
418.22	50.789
418.58	49.968
418.93	50.553
419.29	50.350
419.64	50.756
420.00	51.280
420.35	50.435
420.71	50.807
421.06	49.403
421.42	50.585
421.77	51.233
422.12	50.814
422.48	50.567
422.83	52.650
423.19	51.547
423.54	52.234
423.90	51.826
424.25	51.256
424.61	51.488
424.96	52.828
425.31	52.159
425.67	50.393
426.02	52.457
426.38	53.114
426.73	52.370
427.09	53.495
427.44	52.271
427.79	51.984
428.15	53.452
428.50	52.604
428.85	53.993
429.21	51.574
429.56	53.292
429.92	52.894
430.27	52.334
430.62	51.818
430.98	51.946
431.33	53.660
431.68	52.304
432.04	53.355
432.39	53.569
432.74	55.057
433.10	54.556
433.45	55.277
433.80	53.880
434.16	54.541
434.51	53.947
434.86	53.877
435.22	55.031
435.57	54.894
435.92	54.242
436.28	56.168
436.63	55.077
436.98	55.180
437.34	57.007
437.69	57.001
438.04	55.987
438.39	55.940
438.75	56.363
439.10	55.419
439.45	57.025
439.81	56.737
440.16	55.788
440.51	56.708
440.86	57.672
441.22	55.840
441.57	56.794
441.92	56.551
442.27	56.943
442.63	56.082
442.98	58.366
443.33	56.413
443.68	56.427
444.03	57.003
444.39	56.719
444.74	56.115
445.09	57.412
445.44	57.354
445.79	56.507
446.15	56.379
446.50	57.404
446.85	57.451
447.20	58.338
447.55	58.347
447.91	57.584
448.26	57.206
448.61	57.716
448.96	58.029
449.31	58.268
449.66	57.681
450.02	57.772
450.37	57.143
450.72	59.222
451.07	57.648
451.42	57.629
451.77	59.542
452.12	58.083
452.47	57.649
452.83	59.848
453.18	58.496
453.53	60.173
453.88	59.244
454.23	60.430
454.58	59.782
454.93	60.076
455.28	59.975
455.63	59.102
455.98	61.667
456.34	59.862
456.69	61.115
457.04	60.681
457.39	59.264
457.74	59.605
458.09	60.897
458.44	60.262
458.79	58.080
459.14	59.819
459.49	59.428
459.84	59.114
460.19	59.870
460.54	58.275
460.89	59.792
461.24	59.502
461.59	60.139
461.94	59.618
462.29	60.415
462.64	59.923
462.99	59.857
463.34	61.000
463.69	59.412
464.04	60.000
464.39	59.884
464.74	59.952
465.09	59.107
465.44	59.335
465.79	59.620
466.14	59.223
466.49	57.731
466.84	60.420
467.19	59.867
467.54	60.750
467.89	59.304
468.24	60.617
468.59	61.905
468.94	59.988
469.29	61.311
469.64	62.048
469.99	62.449
470.34	62.483
470.68	62.356
471.03	61.020
471.38	63.238
471.73	62.692
472.08	62.303
472.43	61.307
472.78	60.698
473.13	62.644
473.48	61.860
473.83	61.341
474.17	62.290
474.52	61.725
474.87	61.529
475.22	61.463
475.57	60.021
475.92	62.507
476.27	61.330
476.61	61.390
476.96	61.407
477.31	61.120
477.66	61.324
478.01	60.376
478.36	61.343
478.70	61.682
479.05	62.354
479.40	60.747
479.75	61.566
480.10	61.431
480.45	61.542
480.79	60.105
481.14	61.252
481.49	61.319
481.84	60.997
482.19	61.881
482.53	61.835
482.88	61.610
483.23	61.075
483.58	61.556
483.92	60.684
484.27	59.259
484.62	60.905
484.97	59.559
485.31	61.336
485.66	59.489
486.01	56.890
486.36	54.995
486.70	54.319
487.05	55.503
487.40	57.584
487.75	58.297
488.09	59.084
488.44	59.039
488.79	60.470
489.13	60.122
489.48	61.501
489.83	61.286
490.17	62.210
490.52	60.850
490.87	60.968
491.22	60.891
491.56	60.228
491.91	62.215
492.26	60.910
492.60	60.092
492.95	59.542
493.30	60.327
493.64	61.456
493.99	60.864
494.34	60.962
494.68	60.668
495.03	60.996
495.37	60.121
495.72	62.476
496.07	61.578
496.41	59.381
496.76	61.785
497.11	59.523
497.45	61.435
497.80	61.084
498.14	62.222
498.49	62.049
498.84	61.314
499.18	61.381
499.53	60.779
499.87	60.578
500.22	60.292
500.56	62.136
500.91	61.298
501.26	61.546
501.60	62.221
501.95	61.045
502.29	61.668
502.64	61.080
502.98	61.571
503.33	61.335
503.67	60.557
504.02	60.477
504.36	60.225
504.71	62.726
505.06	61.253
505.40	61.838
505.75	60.800
506.09	61.370
506.44	61.717
506.78	61.227
507.13	62.241
507.47	63.081
507.82	63.070
508.16	63.171
508.51	63.420
508.85	62.463
509.19	62.143
509.54	61.429
509.88	62.081
510.23	62.211
510.57	63.932
510.92	63.956
511.26	62.384
511.61	62.396
511.95	62.630
512.30	62.725
512.64	63.407
512.98	62.647
513.33	62.527
513.67	61.206
514.02	62.771
514.36	64.391
514.70	63.641
515.05	63.358
515.39	63.545
515.74	62.613
516.08	63.276
516.42	63.762
516.77	64.270
517.11	64.317
517.46	65.011
517.80	65.099
518.14	63.463
518.49	64.411
518.83	63.466
519.17	63.972
519.52	64.177
519.86	64.233
520.20	66.243
520.55	65.171
520.89	65.389
521.23	66.405
521.58	65.186
521.92	65.524
522.26	64.185
522.61	66.355
522.95	65.255
523.29	65.307
523.64	66.037
523.98	66.235
524.32	65.561
524.66	64.101
525.01	65.564
525.35	64.312
525.69	64.409
526.04	65.109
526.38	65.162
526.72	63.374
527.06	65.097
527.41	63.861
527.75	67.203
528.09	67.180
528.43	65.647
528.78	65.888
529.12	65.091
529.46	65.646
529.80	65.594
530.15	65.670
530.49	63.754
530.83	65.570
531.17	66.906
531.51	67.769
531.86	65.290
532.20	66.884
532.54	66.944
532.88	66.303
533.22	65.084
533.57	65.370
533.91	62.854
534.25	65.310
534.59	66.077
534.93	63.712
535.27	65.178
535.62	65.385
535.96	65.851
536.30	65.861
536.64	66.130
536.98	66.689
537.32	65.306
537.66	67.133
538.01	66.754
538.35	65.223
538.69	66.050
539.03	64.912
539.37	64.281
539.71	63.837
540.05	66.601
540.39	65.914
540.73	65.395
541.07	66.775
541.42	66.536
541.76	65.548
542.10	65.006
542.44	66.225
542.78	66.930
543.12	62.956
543.46	65.377
543.80	65.843
544.14	63.928
544.48	64.825
544.82	64.978
545.16	66.363
545.50	63.753
545.84	66.263
546.18	67.407
546.52	65.382
546.86	66.460
547.20	66.689
547.54	66.934
547.88	64.987
548.22	64.072
548.56	65.094
548.90	64.085
549.24	65.657
549.58	66.644
549.92	66.896
550.26	66.122
550.60	65.629
550.94	65.986
551.28	65.106
551.62	65.924
551.96	65.965
552.30	65.119
552.64	66.937
552.98	65.831
553.32	64.464
553.66	65.508
554.00	67.261
554.34	65.631
554.68	66.810
555.02	66.150
555.36	65.484
555.69	64.817
556.03	65.343
556.37	64.734
556.71	64.393
557.05	65.196
557.39	64.451
557.73	65.279
558.07	66.425
558.41	65.557
558.75	66.201
559.08	67.040
559.42	67.498
559.76	66.324
560.10	65.025
560.44	65.758
560.78	64.338
561.12	64.314
561.45	64.537
561.79	64.469
562.13	65.057
562.47	65.027
562.81	65.411
563.15	64.415
563.48	64.324
563.82	64.710
564.16	63.963
564.50	64.128
564.84	62.642
565.17	63.707
565.51	63.578
565.85	63.071
566.19	62.304
566.52	62.508
566.86	61.543
567.20	62.146
567.54	62.557
567.88	60.999
568.21	60.952
568.55	61.274
568.89	61.527
569.23	59.046
569.56	57.409
569.90	58.830
570.24	57.804
570.57	56.409
570.91	55.850
571.25	55.868
571.59	55.376
571.92	56.740
572.26	55.459
572.60	55.706
572.93	55.262
573.27	55.871
573.61	55.835
573.95	55.013
574.28	55.000
574.62	54.738
574.96	54.886
575.29	54.704
575.63	55.437
575.97	53.762
576.30	55.072
576.64	54.612
576.98	54.740
577.31	54.159
577.65	54.571
577.98	53.619
578.32	53.415
578.66	53.417
578.99	53.572
579.33	53.982
579.67	53.101
580.00	53.896
580.34	54.556
580.67	54.621
581.01	53.991
581.35	53.037
581.68	52.911
582.02	52.825
582.35	52.676
582.69	52.719
583.02	52.773
583.36	54.277
583.70	54.421
584.03	54.127
584.37	54.545
584.70	54.911
585.04	53.987
585.37	53.774
585.71	53.994
586.04	53.346
586.38	54.154
586.72	54.709
587.05	54.116
587.39	53.879
587.72	54.574
588.06	53.895
588.39	54.678
588.73	54.415
589.06	55.002
589.40	55.185
589.73	55.861
590.07	55.053
590.40	55.426
590.73	56.479
591.07	56.410
591.40	56.811
591.74	57.749
592.07	55.846
592.41	56.511
592.74	55.730
593.08	53.631
593.41	54.603
593.75	53.623
594.08	54.274
594.41	54.224
594.75	55.749
595.08	55.870
595.42	55.131
595.75	55.484
596.09	55.539
596.42	56.149
596.75	55.551
597.09	56.017
597.42	54.637
597.75	55.843
598.09	55.478
598.42	55.756
598.76	55.736
599.09	53.592
599.42	53.457
599.76	54.026
600.09	54.026
600.42	54.054
600.76	53.357
601.09	53.406
601.42	54.110
601.76	54.459
602.09	54.032
602.42	54.220
602.76	54.857
603.09	53.777
603.42	54.471
603.76	53.659
604.09	53.742
604.42	53.649
604.76	54.618
605.09	55.133
605.42	53.313
605.75	54.760
606.09	54.738
606.42	54.884
606.75	53.505
607.09	54.039
607.42	53.915
607.75	53.165
608.08	53.973
608.42	54.191
608.75	53.787
609.08	53.423
609.41	54.117
609.75	55.121
610.08	55.184
610.41	54.330
610.74	55.156
611.07	55.385
611.41	55.152
611.74	55.455
612.07	55.642
612.40	56.348
612.73	54.526
613.07	55.819
613.40	54.976
613.73	53.749
614.06	55.269
614.39	55.008
614.72	54.474
615.06	55.095
615.39	54.830
615.72	53.016
616.05	54.918
616.38	56.365
616.71	55.760
617.05	56.243
617.38	56.344
617.71	56.336
618.04	56.731
618.37	54.879
618.70	55.632
619.03	57.171
619.36	56.619
619.69	57.746
620.03	57.212
620.36	57.019
620.69	56.644
621.02	58.186
621.35	57.165
621.68	57.710
622.01	58.359
622.34	57.716
622.67	57.262
623.00	54.952
623.33	56.112
623.66	57.613
623.99	57.143
624.32	56.705
624.65	56.215
624.99	56.161
625.32	55.612
625.65	58.077
625.98	57.955
626.31	58.320
626.64	58.939
626.97	58.603
627.30	59.850
627.63	57.178
627.96	58.873
628.29	58.268
628.62	60.110
628.95	59.528
629.28	59.124
629.61	60.587
629.94	60.381
630.26	59.199
630.59	59.390
630.92	58.621
631.25	58.835
631.58	60.460
631.91	58.519
632.24	60.443
632.57	59.077
632.90	61.075
633.23	60.738
633.56	62.147
633.89	61.268
634.22	61.407
634.55	61.538
634.88	60.958
635.20	61.768
635.53	62.530
635.86	62.748
636.19	61.176
636.52	60.438
636.85	61.397
637.18	59.101
637.51	60.047
637.83	59.926
638.16	63.427
638.49	61.209
638.82	60.936
639.15	61.250
639.48	61.471
639.81	61.260
640.13	60.286
640.46	60.000
640.79	61.295
641.12	61.486
641.45	61.732
641.77	64.065
642.10	63.158
642.43	62.312
642.76	64.087
643.09	64.417
643.41	64.188
643.74	64.660
644.07	63.872
644.40	64.724
644.73	62.362
645.05	63.391
645.38	62.401
645.71	64.251
646.04	65.947
646.36	66.444
646.69	64.214
647.02	65.816
647.35	63.574
647.67	65.664
648.00	62.764
648.33	64.521
648.66	59.545
648.98	60.720
649.31	60.837
649.64	60.389
649.96	60.358
650.29	62.085
650.62	61.650
650.94	63.533
651.27	65.203
651.60	64.559
651.92	59.904
652.25	61.401
652.58	62.150
652.90	63.033
653.23	60.709
653.56	61.102
653.88	61.173
654.21	62.243
654.54	62.211
654.86	59.813
655.19	55.405
655.52	40.944
655.84	36.725
656.17	47.508
656.49	64.378
656.82	65.710
657.15	49.610
657.47	37.288
657.80	28.679
658.13	29.705
658.45	44.434
658.78	45.179
659.10	46.670
659.43	50.034
659.75	52.479
660.08	57.025
660.41	60.894
660.73	64.422
661.06	61.146
661.38	66.182
661.71	66.731
662.03	65.680
662.36	61.233
662.68	63.855
663.01	65.455
663.33	66.242
663.66	64.916
663.98	66.523
664.31	61.765
664.63	60.931
664.96	59.557
665.28	64.344
665.61	60.234
665.93	62.575
666.26	63.692
666.58	63.808
666.91	64.693
667.23	66.067
667.56	64.363
667.88	65.812
668.21	62.473
668.53	62.256
668.86	64.935
669.18	62.473
669.50	63.913
669.83	65.577
670.15	66.444
670.48	62.309
670.80	62.284
671.13	63.907
671.45	59.362
671.77	62.118
672.10	61.183
672.42	56.714
672.75	57.877
673.07	60.739
673.39	59.855
673.72	60.156
674.04	59.804
674.37	58.641
674.69	62.577
675.01	62.343
675.34	61.807
675.66	61.053
675.98	61.507
676.31	63.235
676.63	60.510
676.95	63.103
677.28	65.421
677.60	61.538
677.92	64.979
678.25	60.370
678.57	61.753
678.89	61.323
679.22	57.367
679.54	60.115
679.86	57.615
680.18	57.782
680.51	56.028
680.83	56.584
681.15	57.358
681.48	58.223
681.80	57.447
682.12	58.238
682.44	58.221
682.77	59.267
683.09	64.163
683.41	62.084
683.73	62.472
684.06	60.537
684.38	57.926
684.70	59.884
685.02	58.537
685.34	57.692
685.67	56.294
685.99	54.467
686.31	56.655
686.63	53.534
686.96	53.571
687.28	56.318
687.60	56.522
687.92	55.027
688.24	55.133
688.56	60.241
688.89	59.336
689.21	58.079
689.53	56.785
689.85	60.089
690.17	56.315
690.49	60.297
690.82	65.421
691.14	57.812
691.46	55.907
691.78	58.635
692.10	57.231
692.42	57.685
692.74	56.432
693.06	56.596
693.39	56.057
693.71	55.677
694.03	58.947
694.35	57.792
694.67	55.606
694.99	64.146
695.31	60.539
695.63	59.091
695.95	63.325
696.27	60.914
696.59	62.435
696.91	62.435
697.23	50.704
697.56	56.503
697.88	54.192
698.20	56.250
698.52	56.344
698.84	57.684
699.16	55.530
699.48	60.808
699.80	61.111
700.12	64.416
700.44	60.477
700.76	65.193
701.08	64.080
701.40	60.894
701.72	65.306
702.04	65.909
702.36	60.057
702.68	61.190
703.00	61.496
703.32	57.447
703.64	58.445
703.96	60.167
704.28	61.047
704.60	61.584
704.91	62.315
705.23	61.877
705.55	68.771
705.87	67.774
706.19	63.604
706.51	61.994
706.83	67.273
707.15	63.025
707.47	51.515
707.79	58.477
708.11	52.968
708.43	55.238
708.74	55.867
709.06	57.143
709.38	60.105
709.70	63.953
710.02	60.237
710.34	59.697
710.66	61.493
710.98	56.818
711.29	61.337
711.61	61.947
711.93	62.821
712.25	65.916
712.57	66.544
712.89	64.706
713.20	62.006
713.52	60.855
713.84	65.506
714.16	58.232
714.48	56.034
714.80	66.261
715.11	57.349
715.43	62.018
715.75	56.522
716.07	59.744
716.39	62.696
716.70	63.123
717.02	65.827
717.34	61.484
717.66	67.537
717.97	66.932
718.29	57.407
718.61	62.774
718.93	65.074
719.24	64.706
719.56	57.966
719.88	62.034
720.20	61.824
720.51	62.718
720.83	65.056
721.15	62.313
721.46	65.248
721.78	63.082
722.10	64.906
722.42	66.165
722.73	61.049
723.05	65.574
723.37	66.397
723.68	59.846
724.00	61.789
724.32	66.129
724.63	65.041
724.95	64.017
725.27	70.040
725.58	66.016
725.90	63.139
726.22	64.151
726.53	55.903
726.85	63.823
727.16	57.295
727.48	59.220
727.80	63.258
728.11	61.232
728.43	64.615
728.74	56.272
729.06	63.139
729.38	63.235
729.69	63.701
730.01	55.631
730.32	55.903
730.64	58.863
730.96	58.416
731.27	56.291
731.59	58.104
731.90	55.102
732.22	56.211
732.53	55.728
732.85	55.449
733.16	55.627
733.48	59.801
733.80	56.169
734.11	59.873
734.43	54.142
734.74	50.571
735.06	54.155
735.37	55.491
735.69	52.229
736.00	56.536
736.32	58.567
736.63	52.716
736.95	57.827
737.26	54.082
737.58	54.839
737.89	58.194
738.21	57.338
738.52	57.857
738.83	54.717
739.15	59.615
739.46	64.234
739.78	59.722
740.09	55.077
740.41	59.677
740.72	52.613
741.04	60.000
741.35	58.750
741.66	65.778
741.98	61.792
742.29	71.292
742.61	66.810
742.92	69.231
743.23	66.239
743.55	62.800
743.86	55.702
744.18	65.044
744.49	67.943
744.80	71.831
745.12	65.909
745.43	62.555
745.74	71.171
746.06	58.716
746.37	66.816
746.68	65.158
747.00	71.759
747.31	67.143
747.62	61.947
747.94	58.590
748.25	59.149
748.56	61.233
748.88	67.327
749.19	71.500
749.50	66.512
749.82	56.504
750.13	62.449
750.44	54.745
750.75	60.702
751.07	56.913
751.38	61.324
751.69	57.040
752.01	55.263
752.32	55.596
752.63	56.738
752.94	62.295
753.26	66.000
753.57	56.504
753.88	60.156
754.19	58.929
754.51	57.986
754.82	52.708
755.13	56.981
755.44	60.150
755.75	57.664
756.07	55.319
756.38	54.745
756.69	52.013
757.00	52.096
757.31	53.412
757.63	48.538
757.94	48.525
758.25	49.265
758.56	47.160
758.87	47.849
759.18	49.394
759.50	49.843
759.81	52.960
760.12	45.937
760.43	50.716
760.74	48.370
761.05	51.130
761.36	50.535
761.67	53.125
761.99	52.174
762.30	54.861
762.61	60.687
762.92	61.328
763.23	56.723
763.54	60.000
763.85	60.547
764.16	58.077
764.47	61.977
764.78	52.297
765.10	51.266
765.41	49.853
765.72	50.898
766.03	51.411
766.34	50.333
766.65	61.277
766.96	54.701
767.27	62.437
767.58	64.583
767.89	68.947
768.20	67.816
768.51	58.376
768.82	57.798
769.13	51.626
769.44	55.870
769.75	59.657
770.06	60.550
770.37	60.633
770.68	61.111
770.99	58.667
771.30	57.787
771.61	62.332
771.92	58.607
772.23	58.403
772.54	64.103
772.85	63.874
773.16	69.149
773.47	63.043
773.78	64.975
774.09	60.714
774.39	67.836
774.70	67.901
775.01	76.812
775.32	77.124
775.63	74.342
775.94	82.014
776.25	85.827
776.56	84.328
776.87	81.967
777.18	80.469
777.48	83.969
777.79	75.000
778.10	88.889
778.41	85.714
778.72	61.314
779.03	69.799
779.34	66.443
779.65	66.216
779.95	74.847
780.26	71.242
780.57	80.000
780.88	82.812
781.19	71.429
781.50	80.405
781.80	71.069
782.11	64.407
782.42	66.456
782.73	68.098
783.04	72.297
783.34	77.465
783.65	77.397
783.96	80.597
784.27	69.930
784.57	62.590
784.88	73.148
785.19	90.476
785.50	82.075
785.81	71.642
786.11	82.787
786.42	89.147
786.73	86.726
787.04	87.736
787.34	88.393
787.65	88.000
787.96	82.883
788.26	79.339
788.57	83.898
788.88	90.083
789.19	77.083
789.49	85.606
789.80	77.099
790.11	97.143
790.41	101.980
790.72	86.747
791.03	95.652
791.33	100.000
791.64	102.062
791.95	101.980
792.25	114.444
792.56	114.286
792.87	112.821
793.17	108.861
793.48	108.046
793.79	87.356
794.09	101.136
794.40	76.471
794.70	77.206
795.01	74.074
795.32	74.820
795.62	70.866
795.93	81.897
796.23	85.841
796.54	90.588
796.85	110.811
797.15	135.211
797.46	115.152
797.76	114.458
798.07	107.595
798.37	109.231
798.68	118.182
798.99	112.676
799.29	105.195
799.60	96.591
799.90	116.438
800.21	113.433
800.51	131.034
800.82	147.368
801.12	121.311
801.43	124.242
801.73	94.595
802.04	119.048
802.34	106.173
802.65	131.250
802.95	127.119
803.26	139.063
803.56	94.286
803.87	109.231
804.17	114.706
804.48	148.148
804.78	127.586
805.09	110.294
805.39	151.923
805.70	119.643
806.00	142.623
806.30	107.576
806.61	112.195
806.91	97.468
807.22	98.684
807.52	102.985
807.83	118.310
808.13	118.750
808.43	123.333
808.74	109.211
809.04	105.797
809.35	122.388
809.65	101.316
809.95	135.484
810.26	132.203
810.56	112.698
810.86	172.727
811.17	185.714
811.47	130.000
811.77	137.037
812.08	138.182
812.38	148.000
812.69	202.778
812.99	179.545
813.29	151.020
813.59	133.333
813.90	175.510
814.20	118.182
814.50	129.231
814.81	111.765
815.11	144.898
815.41	124.590
815.72	164.286
816.02	132.727
816.32	121.429
816.62	150.000
816.93	178.049
817.23	202.381
817.53	147.727
817.84	206.061
818.14	152.174
818.44	166.667
818.74	235.294
819.04	172.500
819.35	191.429
819.65	185.294
819.95	221.429
820.25	265.000
820.56	184.615
820.86	147.727
821.16	183.721
821.46	194.872
821.76	158.000
822.07	197.143
822.37	162.500
822.67	218.182
822.97	133.333
823.27	257.143
823.57	200.000
823.88	190.000
824.18	213.333
824.48	169.048
824.78	256.000
825.08	229.167
825.38	191.892
825.69	156.098
825.99	254.167
826.29	227.586
826.59	200.000
826.89	178.947
827.19	244.118
827.49	212.903
827.79	195.455
828.09	154.545
828.39	146.809
828.70	157.143
829.00	237.037
829.30	200.000
829.60	162.500
829.90	413.333
830.20	250.000
830.50	304.348
830.80	243.478
831.10	220.000
831.40	186.667
831.70	269.565
832.00	280.769
832.30	240.741
832.60	450.000
832.90	206.667
833.20	485.714
833.50	245.161
833.80	234.483
834.10	225.000
834.40	261.538
834.70	361.111
835.00	347.619
835.30	171.429
835.60	430.769
835.90	224.138
836.20	485.714
836.50	217.241
836.80	232.000
837.10	191.667
837.40	314.286
837.70	370.588
838.00	270.370
838.30	276.190
838.60	309.524
838.90	292.308
839.19	330.000
839.49	457.143
839.79	345.000
840.09	330.000
840.39	352.381
840.69	260.870
840.99	322.222
841.29	560.000
841.59	466.667
841.88	362.500
842.18	220.690
842.48	309.524
842.78	223.333
843.08	300.000
843.38	200.000
843.68	1100.000
843.97	261.538
844.27	244.828
844.57	323.810
844.87	381.250
845.17	285.185
845.47	1566.667
845.76	555.556
846.06	388.235
846.36	587.500
846.66	385.714
846.96	325.000
847.25	509.091
847.55	418.182
847.85	295.652
848.15	560.000
848.44	414.286
848.74	338.889
849.04	305.882
849.34	650.000
849.63	294.737
849.93	481.818
850.23	1240.000
850.53	528.571
850.82	3100.000
851.12	-5000.000
851.42	6400.000
851.71	260.000
852.01	-1466.667
852.31	270.833
852.61	2266.667
852.90	342.857
853.20	272.000
853.50	323.529
853.79	300.000
854.09	225.000
854.39	337.500
854.68	202.703
854.98	219.355
855.28	220.000
855.57	275.862
855.87	259.259
856.17	263.158
856.46	373.333
856.76	347.059
857.05	282.759
857.35	245.833
857.65	426.667
857.94	317.391
858.24	257.692
858.53	340.000
858.83	304.545
859.13	380.000
859.42	0.000
859.72	688.889
860.01	527.273
860.31	245.455
860.60	300.000
860.90	317.391
861.20	622.222
861.49	550.000
861.79	-6200.000
862.08	812.500
862.38	338.095
862.67	392.308
862.97	347.059
863.26	688.889
863.56	311.111
863.85	433.333
864.15	600.000
864.44	486.667
864.74	883.333
865.03	737.500
865.33	336.842
865.62	500.000
865.92	507.692
866.21	441.667
866.51	0.000
866.80	427.273
867.10	1260.000
867.39	484.615
867.69	527.273
867.98	278.947
868.27	618.182
868.57	321.053
868.86	-5200.000
869.16	393.750
869.45	2200.000
869.75	-4200.000
870.04	483.333
870.33	771.429
870.63	1575.000
870.92	2750.000
871.22	857.143
871.51	329.412
871.80	261.905
872.10	435.714
>>>>>End Processed Spectral Data<<<<<
