SpectraSuite Data File
++++++++++++++++++++++++++++++++++++
Date: Wed May 13 19:27:48 PDT 2015
User: schluterlab
Dark Spectrum Present: Yes
Reference Spectrum Present: Yes
Number of Sampled Component Spectra: 1
Spectrometers: USB2E3373
Integration Time (usec): 3000 (USB2E3373)
Spectra Averaged: 3 (USB2E3373)
Boxcar Smoothing: 0 (USB2E3373)
Correct for Electrical Dark: No (USB2E3373)
Strobe/Lamp Enabled: No (USB2E3373)
Correct for Detector Non-linearity: No (USB2E3373)
Correct for Stray Light: No (USB2E3373)
Number of Pixels in Processed Spectrum: 2048
>>>>>Begin Processed Spectral Data<<<<<
178.53	0.000
178.91	-1350.000
179.29	-1400.000
179.67	-283.333
180.04	-1125.000
180.42	3200.000
180.80	1100.000
181.18	-1225.000
181.56	557.143
181.94	0.000
182.31	-771.429
182.69	1566.667
183.07	-525.000
183.45	-500.000
183.83	563.636
184.20	-420.000
184.58	2350.000
184.96	5700.000
185.34	-800.000
185.72	-675.000
186.09	-2150.000
186.47	2900.000
186.85	2300.000
187.23	5300.000
187.61	-1600.000
187.98	1525.000
188.36	600.000
188.74	590.909
189.12	-1000.000
189.49	670.000
189.87	-4200.000
190.25	-1450.000
190.63	421.429
191.00	438.462
191.38	1000.000
191.76	-1225.000
192.14	1500.000
192.51	650.000
192.89	1083.333
193.27	587.500
193.65	-1500.000
194.02	550.000
194.40	1040.000
194.78	550.000
195.15	458.333
195.53	680.000
195.91	-2550.000
196.29	362.500
196.66	226.316
197.04	-350.000
197.42	0.000
197.79	730.000
198.17	-5100.000
198.55	642.857
198.92	737.500
199.30	1060.000
199.68	0.000
200.05	333.333
200.43	757.143
200.81	4800.000
201.18	1766.667
201.56	-1933.333
201.94	688.889
202.31	655.556
202.69	450.000
203.07	520.000
203.44	0.000
203.82	1275.000
204.19	757.143
204.57	471.429
204.95	775.000
205.32	1933.333
205.70	527.273
206.08	392.857
206.45	2600.000
206.83	337.500
207.20	1016.667
207.58	800.000
207.96	327.778
208.33	687.500
208.71	-800.000
209.08	800.000
209.46	566.667
209.84	472.727
210.21	-1733.333
210.59	1425.000
210.96	-487.500
211.34	2450.000
211.71	660.000
212.09	816.667
212.46	0.000
212.84	1966.667
213.22	1500.000
213.59	-4200.000
213.97	866.667
214.34	800.000
214.72	572.727
215.09	1000.000
215.47	-2700.000
215.84	-2550.000
216.22	2000.000
216.59	428.571
216.97	1275.000
217.34	545.455
217.72	-800.000
218.09	0.000
218.47	-4800.000
218.84	622.222
219.22	885.714
219.59	1666.667
219.97	-742.857
220.34	980.000
220.72	-2066.667
221.09	485.714
221.47	1475.000
221.84	-933.333
222.22	0.000
222.59	1575.000
222.97	-2500.000
223.34	1180.000
223.72	369.231
224.09	1100.000
224.46	2500.000
224.84	-5600.000
225.21	-1100.000
225.59	-4700.000
225.96	660.000
226.34	310.000
226.71	3200.000
227.08	612.500
227.46	530.000
227.83	-1125.000
228.21	-2550.000
228.58	744.444
228.95	-2900.000
229.33	-2250.000
229.70	2000.000
230.08	742.857
230.45	-1020.000
230.82	433.333
231.20	983.333
231.57	657.143
231.95	433.333
232.32	263.636
232.69	327.273
233.07	771.429
233.44	407.692
233.81	-1833.333
234.19	294.737
234.56	500.000
234.93	416.667
235.31	554.545
235.68	376.923
236.05	335.714
236.43	184.848
236.80	289.474
237.17	5100.000
237.55	285.714
237.92	214.286
238.29	257.143
238.67	174.194
239.04	244.828
239.41	161.111
239.79	117.391
240.16	133.333
240.53	140.909
240.91	123.529
241.28	122.000
241.65	126.000
242.02	101.449
242.40	106.452
242.77	108.333
243.14	80.645
243.51	83.146
243.89	84.706
244.26	85.556
244.63	79.570
245.00	72.340
245.38	75.248
245.75	74.766
246.12	60.550
246.49	72.993
246.87	70.400
247.24	60.769
247.61	62.857
247.98	59.477
248.36	58.108
248.73	49.682
249.10	63.057
249.47	54.802
249.84	56.150
250.22	51.872
250.59	55.030
250.96	52.525
251.33	54.502
251.70	55.941
252.08	44.762
252.45	48.430
252.82	40.870
253.19	48.511
253.56	47.451
253.94	46.058
254.31	51.172
254.68	45.769
255.05	40.221
255.42	46.748
255.79	44.853
256.16	46.209
256.54	39.576
256.91	44.484
257.28	35.252
257.65	41.914
258.02	40.683
258.39	39.117
258.76	41.137
259.14	38.393
259.51	40.122
259.88	36.025
260.25	42.900
260.62	38.439
260.99	39.441
261.36	39.940
261.73	39.255
262.10	38.953
262.47	38.028
262.85	39.554
263.22	35.897
263.59	38.746
263.96	39.011
264.33	35.770
264.70	35.526
265.07	36.573
265.44	37.879
265.81	34.063
266.18	36.935
266.55	37.561
266.92	35.381
267.29	33.565
267.66	36.009
268.03	38.409
268.40	36.449
268.77	28.878
269.14	35.360
269.51	33.860
269.88	37.063
270.25	31.151
270.62	31.011
270.99	37.634
271.36	34.335
271.73	33.645
272.10	33.696
272.47	34.839
272.84	33.550
273.21	34.801
273.58	33.406
273.95	32.075
274.32	34.917
274.69	34.047
275.06	30.906
275.43	34.043
275.80	31.663
276.17	33.401
276.54	34.719
276.91	31.225
277.28	32.227
277.65	31.335
278.02	33.747
278.39	31.836
278.76	32.545
279.13	30.755
279.50	32.030
279.87	31.873
280.23	30.140
280.60	30.368
280.97	27.357
281.34	32.389
281.71	29.636
282.08	32.054
282.45	29.091
282.82	30.906
283.19	30.660
283.56	30.175
283.92	29.949
284.29	29.453
284.66	30.490
285.03	29.837
285.40	29.577
285.77	31.650
286.14	30.052
286.51	30.333
286.87	29.915
287.24	30.456
287.61	28.892
287.98	30.844
288.35	29.952
288.72	28.037
289.08	28.638
289.45	28.501
289.82	28.618
290.19	26.374
290.56	25.574
290.93	25.227
291.29	27.761
291.66	27.286
292.03	28.198
292.40	29.662
292.77	24.112
293.13	25.821
293.50	26.968
293.87	25.481
294.24	24.148
294.60	23.435
294.97	25.872
295.34	26.234
295.71	25.284
296.08	23.932
296.44	22.696
296.81	24.306
297.18	23.984
297.55	22.559
297.91	23.615
298.28	24.498
298.65	24.804
299.02	24.111
299.38	23.639
299.75	22.507
300.12	21.839
300.48	22.125
300.85	23.058
301.22	23.312
301.59	21.338
301.95	23.174
302.32	22.850
302.69	21.147
303.05	21.939
303.42	21.481
303.79	20.951
304.15	20.746
304.52	20.278
304.89	21.951
305.25	20.534
305.62	22.990
305.99	21.370
306.35	21.924
306.72	20.852
307.09	20.089
307.45	22.072
307.82	20.759
308.19	20.419
308.55	22.006
308.92	21.482
309.29	19.852
309.65	19.300
310.02	19.873
310.38	20.860
310.75	20.063
311.12	21.801
311.48	21.317
311.85	20.440
312.22	21.124
312.58	19.127
312.95	20.591
313.31	19.515
313.68	20.686
314.05	22.682
314.41	22.211
314.78	20.141
315.14	20.457
315.51	20.700
315.87	21.287
316.24	20.258
316.61	19.591
316.97	20.352
317.34	20.646
317.70	21.989
318.07	21.367
318.43	22.016
318.80	22.680
319.16	22.599
319.53	21.857
319.89	21.810
320.26	24.000
320.62	23.016
320.99	22.929
321.35	23.737
321.72	24.333
322.08	24.482
322.45	26.269
322.81	24.806
323.18	25.434
323.54	25.881
323.91	26.509
324.27	26.960
324.64	25.815
325.00	25.158
325.37	27.116
325.73	30.072
326.10	28.420
326.46	29.301
326.83	30.544
327.19	29.718
327.56	30.226
327.92	31.234
328.29	31.322
328.65	31.400
329.01	31.498
329.38	31.175
329.74	31.948
330.11	32.799
330.47	33.425
330.84	34.191
331.20	32.787
331.56	35.505
331.93	33.519
332.29	34.250
332.66	34.513
333.02	34.095
333.38	35.501
333.75	34.314
334.11	34.875
334.48	34.605
334.84	35.202
335.20	35.818
335.57	36.083
335.93	34.196
336.29	35.440
336.66	35.888
337.02	35.113
337.38	36.204
337.75	34.670
338.11	36.526
338.47	36.188
338.84	36.297
339.20	35.321
339.56	37.956
339.93	35.273
340.29	35.870
340.65	35.561
341.02	35.515
341.38	37.189
341.74	35.789
342.11	37.904
342.47	38.414
342.83	36.301
343.20	37.403
343.56	35.468
343.92	36.228
344.28	36.395
344.65	36.629
345.01	35.522
345.37	36.106
345.73	36.717
346.10	36.829
346.46	35.508
346.82	36.079
347.19	36.257
347.55	36.700
347.91	36.327
348.27	37.387
348.63	35.452
349.00	37.783
349.36	37.274
349.72	35.124
350.08	35.494
350.45	37.347
350.81	36.474
351.17	36.953
351.53	36.527
351.89	36.056
352.26	36.148
352.62	35.686
352.98	36.224
353.34	36.565
353.70	35.597
354.07	35.806
354.43	36.270
354.79	35.720
355.15	36.792
355.51	37.170
355.87	37.959
356.24	36.971
356.60	36.407
356.96	37.249
357.32	37.204
357.68	36.929
358.04	38.401
358.40	36.184
358.77	37.089
359.13	35.991
359.49	35.922
359.85	35.317
360.21	37.161
360.57	37.432
360.93	38.231
361.29	36.357
361.66	36.455
362.02	36.343
362.38	36.578
362.74	37.872
363.10	35.973
363.46	36.977
363.82	37.264
364.18	37.004
364.54	38.039
364.90	38.173
365.26	38.088
365.62	38.057
365.98	36.888
366.35	36.748
366.71	37.744
367.07	36.271
367.43	39.332
367.79	38.044
368.15	38.218
368.51	37.791
368.87	37.330
369.23	38.771
369.59	38.885
369.95	37.941
370.31	38.889
370.67	38.551
371.03	39.775
371.39	39.796
371.75	38.015
372.11	37.980
372.47	38.636
372.83	39.553
373.19	38.873
373.55	38.803
373.91	41.090
374.27	39.313
374.63	39.782
374.99	40.466
375.35	38.800
375.71	39.479
376.07	40.398
376.42	40.646
376.78	39.563
377.14	40.163
377.50	40.530
377.86	40.160
378.22	40.518
378.58	40.038
378.94	40.603
379.30	40.776
379.66	41.751
380.02	41.400
380.38	41.166
380.74	41.357
381.09	40.587
381.45	42.286
381.81	41.216
382.17	42.484
382.53	41.887
382.89	42.840
383.25	42.151
383.61	43.494
383.97	42.026
384.32	42.046
384.68	41.388
385.04	43.208
385.40	42.105
385.76	41.769
386.12	43.199
386.48	44.368
386.83	44.259
387.19	44.960
387.55	44.465
387.91	44.317
388.27	43.961
388.62	44.868
388.98	43.243
389.34	45.244
389.70	43.654
390.06	45.817
390.42	45.006
390.77	43.957
391.13	46.203
391.49	45.305
391.85	44.558
392.20	45.615
392.56	47.033
392.92	46.557
393.28	44.970
393.64	45.624
393.99	46.121
394.35	45.285
394.71	46.738
395.07	45.358
395.42	47.590
395.78	47.328
396.14	47.796
396.50	48.559
396.85	48.442
397.21	47.287
397.57	48.357
397.92	48.798
398.28	47.982
398.64	48.029
399.00	48.013
399.35	47.265
399.71	49.653
400.07	49.970
400.42	49.571
400.78	49.940
401.14	50.427
401.49	50.269
401.85	50.635
402.21	48.802
402.57	50.093
402.92	51.198
403.28	52.217
403.63	51.671
403.99	52.611
404.35	50.909
404.70	52.338
405.06	51.019
405.42	54.148
405.77	51.200
406.13	51.806
406.49	52.336
406.84	51.920
407.20	52.482
407.55	54.371
407.91	54.800
408.27	55.010
408.62	53.402
408.98	54.596
409.34	54.244
409.69	55.548
410.05	54.647
410.40	55.963
410.76	55.317
411.11	54.584
411.47	55.272
411.83	56.628
412.18	56.895
412.54	56.725
412.89	55.964
413.25	55.903
413.60	57.134
413.96	54.948
414.31	56.804
414.67	57.731
415.03	58.013
415.38	57.152
415.74	56.977
416.09	58.981
416.45	59.170
416.80	59.551
417.16	60.188
417.51	60.319
417.87	59.473
418.22	60.442
418.58	60.426
418.93	60.319
419.29	60.471
419.64	61.146
420.00	60.671
420.35	59.478
420.71	60.012
421.06	59.964
421.42	62.339
421.77	60.818
422.12	61.707
422.48	60.550
422.83	62.551
423.19	60.331
423.54	63.378
423.90	62.319
424.25	61.865
424.61	60.774
424.96	61.924
425.31	62.237
425.67	61.517
426.02	62.800
426.38	64.652
426.73	62.493
427.09	64.498
427.44	63.427
427.79	64.175
428.15	63.750
428.50	64.131
428.85	64.243
429.21	63.390
429.56	63.453
429.92	63.161
430.27	62.761
430.62	63.902
430.98	63.570
431.33	64.072
431.68	64.136
432.04	61.981
432.39	65.848
432.74	65.649
433.10	64.573
433.45	66.064
433.80	66.020
434.16	65.919
434.51	63.632
434.86	66.762
435.22	66.426
435.57	67.112
435.92	66.121
436.28	66.845
436.63	67.219
436.98	66.743
437.34	66.488
437.69	67.678
438.04	67.622
438.39	66.687
438.75	68.274
439.10	67.542
439.45	66.647
439.81	68.338
440.16	67.702
440.51	67.955
440.86	68.500
441.22	67.853
441.57	67.834
441.92	68.270
442.27	69.268
442.63	69.510
442.98	69.352
443.33	68.696
443.68	69.695
444.03	68.521
444.39	69.036
444.74	68.994
445.09	68.518
445.44	68.015
445.79	70.064
446.15	68.449
446.50	68.713
446.85	69.527
447.20	69.046
447.55	69.905
447.91	69.553
448.26	70.785
448.61	70.492
448.96	70.432
449.31	71.429
449.66	69.612
450.02	70.752
450.37	70.238
450.72	70.728
451.07	69.775
451.42	68.997
451.77	70.581
452.12	70.785
452.47	70.585
452.83	71.270
453.18	69.804
453.53	71.800
453.88	70.467
454.23	71.369
454.58	72.441
454.93	73.236
455.28	70.574
455.63	72.512
455.98	72.679
456.34	71.231
456.69	72.073
457.04	73.251
457.39	70.953
457.74	71.851
458.09	70.558
458.44	71.608
458.79	70.716
459.14	71.332
459.49	70.753
459.84	71.856
460.19	71.597
460.54	69.387
460.89	71.530
461.24	71.828
461.59	72.225
461.94	70.962
462.29	72.226
462.64	70.964
462.99	71.047
463.34	70.467
463.69	71.169
464.04	71.536
464.39	70.667
464.74	71.420
465.09	70.265
465.44	70.305
465.79	71.309
466.14	69.677
466.49	70.745
466.84	71.512
467.19	70.911
467.54	72.438
467.89	71.669
468.24	70.273
468.59	71.612
468.94	69.884
469.29	72.108
469.64	72.557
469.99	74.019
470.34	73.118
470.68	72.701
471.03	71.769
471.38	73.801
471.73	71.686
472.08	72.039
472.43	72.739
472.78	71.231
473.13	71.887
473.48	72.846
473.83	72.012
474.17	70.940
474.52	73.015
474.87	72.446
475.22	70.865
475.57	70.607
475.92	70.951
476.27	72.041
476.61	72.201
476.96	72.567
477.31	70.801
477.66	71.225
478.01	71.040
478.36	72.184
478.70	71.184
479.05	71.033
479.40	71.392
479.75	72.395
480.10	70.775
480.45	70.347
480.79	69.995
481.14	70.793
481.49	70.859
481.84	70.553
482.19	70.650
482.53	70.734
482.88	70.963
483.23	71.075
483.58	70.382
483.92	70.337
484.27	68.671
484.62	69.784
484.97	68.664
485.31	69.726
485.66	68.265
486.01	66.544
486.36	64.438
486.70	63.854
487.05	64.930
487.40	66.369
487.75	66.210
488.09	67.789
488.44	67.245
488.79	69.114
489.13	69.022
489.48	69.127
489.83	70.695
490.17	70.715
490.52	69.088
490.87	68.521
491.22	69.804
491.56	68.975
491.91	70.312
492.26	69.821
492.60	69.309
492.95	69.878
493.30	69.346
493.64	69.995
493.99	69.406
494.34	70.444
494.68	70.604
495.03	70.442
495.37	69.195
495.72	70.809
496.07	70.534
496.41	68.805
496.76	69.525
497.11	69.158
497.45	69.306
497.80	69.722
498.14	69.614
498.49	70.341
498.84	70.614
499.18	70.667
499.53	70.038
499.87	69.758
500.22	69.477
500.56	71.311
500.91	69.423
501.26	70.128
501.60	69.720
501.95	68.790
502.29	69.916
502.64	70.205
502.98	70.079
503.33	68.464
503.67	70.023
504.02	69.598
504.36	69.209
504.71	69.809
505.06	70.024
505.40	69.081
505.75	68.370
506.09	70.117
506.44	70.202
506.78	69.313
507.13	70.924
507.47	69.949
507.82	70.567
508.16	71.682
508.51	71.385
508.85	70.258
509.19	71.020
509.54	69.898
509.88	69.037
510.23	71.260
510.57	71.620
510.92	70.896
511.26	70.555
511.61	69.761
511.95	69.207
512.30	70.520
512.64	70.070
512.98	69.668
513.33	70.717
513.67	68.570
514.02	69.697
514.36	70.836
514.70	71.998
515.05	71.445
515.39	71.340
515.74	71.622
516.08	71.213
516.42	71.754
516.77	72.520
517.11	72.420
517.46	70.880
517.80	74.274
518.14	71.569
518.49	73.046
518.83	71.080
519.17	71.882
519.52	71.081
519.86	72.847
520.20	71.676
520.55	73.369
520.89	72.871
521.23	72.979
521.58	72.329
521.92	73.117
522.26	70.958
522.61	73.832
522.95	72.437
523.29	71.211
523.64	71.951
523.98	73.752
524.32	72.859
524.66	72.099
525.01	72.181
525.35	71.375
525.69	70.813
526.04	71.402
526.38	71.385
526.72	71.104
527.06	73.258
527.41	71.968
527.75	73.119
528.09	72.447
528.43	71.256
528.78	72.096
529.12	70.667
529.46	73.239
529.80	72.834
530.15	72.399
530.49	70.892
530.83	72.595
531.17	72.846
531.51	73.152
531.86	73.032
532.20	71.969
532.54	72.966
532.88	72.529
533.22	70.706
533.57	71.852
533.91	70.921
534.25	70.049
534.59	72.422
534.93	69.899
535.27	71.515
535.62	71.001
535.96	72.128
536.30	70.502
536.64	71.668
536.98	71.931
537.32	71.099
537.66	73.467
538.01	71.824
538.35	72.204
538.69	72.112
539.03	70.760
539.37	70.351
539.71	69.021
540.05	73.333
540.39	73.023
540.73	69.922
541.07	71.966
541.42	72.081
541.76	71.806
542.10	71.281
542.44	71.722
542.78	71.937
543.12	70.505
543.46	71.738
543.80	70.917
544.14	70.347
544.48	72.762
544.82	69.788
545.16	71.568
545.50	70.116
545.84	70.363
546.18	71.380
546.52	72.471
546.86	73.402
547.20	71.477
547.54	70.942
547.88	70.791
548.22	70.361
548.56	70.629
548.90	71.063
549.24	71.044
549.58	71.555
549.92	71.429
550.26	72.372
550.60	69.986
550.94	71.620
551.28	71.105
551.62	71.603
551.96	70.877
552.30	70.785
552.64	72.279
552.98	71.186
553.32	69.656
553.66	71.370
554.00	70.762
554.34	70.255
554.68	70.887
555.02	71.509
555.36	71.747
555.69	69.621
556.03	69.314
556.37	69.304
556.71	70.055
557.05	70.238
557.39	70.119
557.73	71.207
558.07	72.806
558.41	72.287
558.75	72.006
559.08	71.663
559.42	72.562
559.76	71.618
560.10	69.522
560.44	69.462
560.78	70.526
561.12	69.657
561.45	70.143
561.79	69.479
562.13	68.410
562.47	70.697
562.81	71.967
563.15	68.763
563.48	69.629
563.82	69.080
564.16	68.934
564.50	68.294
564.84	68.837
565.17	68.533
565.51	70.415
565.85	68.211
566.19	67.502
566.52	69.791
566.86	67.752
567.20	68.396
567.54	67.180
567.88	66.540
568.21	67.407
568.55	65.521
568.89	65.710
569.23	64.617
569.56	63.563
569.90	63.698
570.24	62.935
570.57	62.496
570.91	60.827
571.25	60.902
571.59	60.501
571.92	60.282
572.26	61.843
572.60	61.622
572.93	60.660
573.27	61.372
573.61	60.553
573.95	60.775
574.28	60.980
574.62	60.544
574.96	59.283
575.29	59.069
575.63	59.172
575.97	59.750
576.30	60.568
576.64	60.147
576.98	59.577
577.31	59.242
577.65	59.739
577.98	58.786
578.32	58.161
578.66	58.658
578.99	59.210
579.33	59.017
579.67	58.453
580.00	58.547
580.34	59.350
580.67	59.064
581.01	58.939
581.35	58.478
581.68	58.546
582.02	57.758
582.35	57.975
582.69	58.821
583.02	58.485
583.36	58.889
583.70	59.066
584.03	59.222
584.37	59.842
584.70	59.587
585.04	58.611
585.37	58.364
585.71	58.200
586.04	59.241
586.38	59.065
586.72	58.575
587.05	58.082
587.39	58.074
587.72	58.954
588.06	59.392
588.39	58.820
588.73	58.258
589.06	59.925
589.40	60.438
589.73	59.521
590.07	60.285
590.40	59.810
590.73	61.007
591.07	60.602
591.40	60.312
591.74	61.515
592.07	60.777
592.41	59.777
592.74	59.064
593.08	59.694
593.41	59.158
593.75	57.589
594.08	58.364
594.41	58.713
594.75	60.518
595.08	59.270
595.42	59.229
595.75	60.185
596.09	59.369
596.42	60.157
596.75	59.434
597.09	61.082
597.42	59.064
597.75	60.241
598.09	58.565
598.42	60.009
598.76	59.181
599.09	58.153
599.42	57.969
599.76	58.931
600.09	58.434
600.42	57.999
600.76	58.179
601.09	58.652
601.42	58.181
601.76	57.419
602.09	58.656
602.42	58.838
602.76	58.686
603.09	58.812
603.42	59.508
603.76	58.384
604.09	58.278
604.42	58.500
604.76	59.005
605.09	59.371
605.42	58.230
605.75	57.906
606.09	58.682
606.42	58.929
606.75	58.358
607.09	58.351
607.42	58.494
607.75	57.975
608.08	58.228
608.42	58.763
608.75	58.296
609.08	57.493
609.41	58.258
609.75	57.742
610.08	58.907
610.41	58.007
610.74	59.508
611.07	59.980
611.41	59.274
611.74	59.527
612.07	59.679
612.40	59.706
612.73	59.211
613.07	59.968
613.40	59.400
613.73	59.150
614.06	60.323
614.39	58.207
614.72	58.368
615.06	59.139
615.39	58.599
615.72	57.464
616.05	57.682
616.38	59.366
616.71	60.333
617.05	60.306
617.38	58.749
617.71	60.541
618.04	60.757
618.37	58.309
618.70	59.428
619.03	61.118
619.36	61.643
619.69	61.197
620.03	61.676
620.36	61.698
620.69	62.397
621.02	62.979
621.35	61.002
621.68	61.215
622.01	61.687
622.34	60.061
622.67	62.586
623.00	60.748
623.33	60.615
623.66	61.330
623.99	63.402
624.32	60.128
624.65	60.523
624.99	59.490
625.32	61.405
625.65	60.105
625.98	61.184
626.31	59.720
626.64	61.143
626.97	61.014
627.30	62.760
627.63	62.346
627.96	63.583
628.29	62.030
628.62	60.567
628.95	64.340
629.28	62.226
629.61	62.328
629.94	64.476
630.26	62.440
630.59	63.489
630.92	62.356
631.25	61.698
631.58	62.763
631.91	62.982
632.24	62.236
632.57	62.959
632.90	64.803
633.23	65.884
633.56	65.424
633.89	66.818
634.22	64.586
634.55	66.154
634.88	64.072
635.20	66.547
635.53	64.699
635.86	65.965
636.19	64.471
636.52	65.283
636.85	63.803
637.18	62.673
637.51	65.130
637.83	62.762
638.16	66.496
638.49	63.476
638.82	67.004
639.15	67.000
639.48	64.963
639.81	66.086
640.13	65.755
640.46	64.698
640.79	64.861
641.12	63.686
641.45	64.106
641.77	67.010
642.10	66.813
642.43	67.417
642.76	67.957
643.09	67.638
643.41	66.768
643.74	69.136
644.07	65.396
644.40	65.798
644.73	68.189
645.05	68.304
645.38	66.667
645.71	66.345
646.04	68.106
646.36	69.115
646.69	68.729
647.02	67.007
647.35	66.667
647.67	69.912
648.00	66.504
648.33	67.657
648.66	62.273
648.98	64.168
649.31	64.723
649.64	66.218
649.96	63.487
650.29	63.349
650.62	67.476
650.94	64.344
651.27	69.088
651.60	67.221
651.92	65.655
652.25	61.726
652.58	62.461
652.90	65.719
653.23	61.941
653.56	64.724
653.88	64.818
654.21	64.139
654.54	64.026
654.86	66.355
655.19	60.946
655.52	45.846
655.84	41.302
656.17	53.554
656.49	72.168
656.82	73.112
657.15	55.105
657.47	40.623
657.80	31.054
658.13	32.119
658.45	46.884
658.78	47.244
659.10	47.886
659.43	49.626
659.75	51.586
660.08	55.380
660.41	59.683
660.73	64.549
661.06	64.172
661.38	66.545
661.71	68.077
662.03	65.878
662.36	66.600
662.68	68.474
663.01	65.657
663.33	69.639
663.66	67.227
663.98	67.819
664.31	65.546
664.63	63.158
664.96	64.789
665.28	68.852
665.61	65.302
665.93	65.392
666.26	65.112
666.58	64.854
666.91	67.865
667.23	67.640
667.56	65.443
667.88	65.171
668.21	66.311
668.53	65.076
668.86	63.853
669.18	66.951
669.50	66.522
669.83	67.974
670.15	66.444
670.48	66.667
670.80	66.379
671.13	65.393
671.45	67.660
671.77	65.377
672.10	63.031
672.42	60.954
672.75	60.199
673.07	60.211
673.39	61.844
673.72	63.672
674.04	61.373
674.37	62.718
674.69	65.440
675.01	63.808
675.34	64.271
675.66	67.158
675.98	63.747
676.31	63.235
676.63	63.270
676.95	64.361
677.28	66.121
677.60	65.275
677.92	64.135
678.25	64.887
678.57	62.351
678.89	62.725
679.22	62.279
679.54	60.115
679.86	60.183
680.18	59.928
680.51	58.333
680.83	59.609
681.15	63.208
681.48	60.870
681.80	60.155
682.12	59.579
682.44	58.607
682.77	60.081
683.09	63.734
683.41	65.188
683.73	60.927
684.06	60.744
684.38	60.274
684.70	61.822
685.02	58.912
685.34	58.059
685.67	55.944
685.99	57.216
686.31	56.143
686.63	56.007
686.96	55.536
687.28	57.401
687.60	55.072
687.92	58.684
688.24	55.894
688.56	57.831
688.89	60.581
689.21	63.974
689.53	57.411
689.85	61.419
690.17	59.006
690.49	61.146
690.82	63.785
691.14	58.482
691.46	59.705
691.78	59.036
692.10	61.157
692.42	58.283
692.74	57.676
693.06	59.787
693.39	57.290
693.71	61.135
694.03	60.000
694.35	58.658
694.67	57.895
694.99	58.537
695.31	62.745
695.63	61.005
695.95	63.570
696.27	63.706
696.59	59.326
696.91	63.731
697.23	56.808
697.56	54.797
697.88	53.783
698.20	54.375
698.52	59.140
698.84	58.352
699.16	58.065
699.48	61.283
699.80	62.319
700.12	63.896
700.44	63.395
700.76	65.193
701.08	62.931
701.40	63.966
701.72	64.431
702.04	66.761
702.36	61.473
702.68	61.473
703.00	63.158
703.32	61.702
703.64	58.981
703.96	61.281
704.28	60.174
704.60	62.757
704.91	63.205
705.23	63.343
705.55	66.777
705.87	72.757
706.19	64.664
706.51	62.305
706.83	60.606
707.15	61.905
707.47	58.333
707.79	58.968
708.11	56.621
708.43	55.952
708.74	57.398
709.06	58.442
709.38	61.417
709.70	63.663
710.02	62.315
710.34	63.333
710.66	61.493
710.98	64.205
711.29	58.430
711.61	63.127
711.93	65.385
712.25	66.559
712.57	70.956
712.89	64.014
713.20	61.094
713.52	66.118
713.84	62.658
714.16	62.195
714.48	59.483
714.80	68.085
715.11	58.501
715.43	60.237
715.75	59.420
716.07	62.300
716.39	61.755
716.70	64.120
717.02	65.468
717.34	60.424
717.66	69.030
717.97	72.510
718.29	65.556
718.61	66.058
718.93	68.382
719.24	60.208
719.56	62.373
719.88	62.034
720.20	62.162
720.51	65.505
720.83	67.286
721.15	62.313
721.46	62.766
721.78	68.817
722.10	70.189
722.42	65.789
722.73	68.539
723.05	64.344
723.37	62.348
723.68	62.162
724.00	68.699
724.32	64.919
724.63	66.667
724.95	68.619
725.27	74.899
725.58	66.406
725.90	66.058
726.22	64.528
726.53	62.847
726.85	60.068
727.16	65.480
727.48	61.348
727.80	66.288
728.11	58.333
728.43	60.769
728.74	59.140
729.06	65.693
729.38	63.971
729.69	63.345
730.01	55.631
730.32	61.458
730.64	59.866
730.96	54.785
731.27	58.940
731.59	58.716
731.90	57.143
732.22	57.453
732.53	57.276
732.85	54.808
733.16	55.305
733.48	60.797
733.80	56.818
734.11	55.732
734.43	57.692
734.74	53.143
735.06	53.009
735.37	60.405
735.69	53.503
736.00	61.111
736.32	56.698
736.63	58.147
736.95	60.383
737.26	57.143
737.58	53.871
737.89	59.197
738.21	58.020
738.52	56.071
738.83	59.245
739.15	59.615
739.46	59.489
739.78	59.028
740.09	54.769
740.41	59.032
740.72	56.794
741.04	62.222
741.35	55.833
741.66	68.444
741.98	65.094
742.29	62.679
742.61	66.810
742.92	64.253
743.23	64.103
743.55	60.000
743.86	61.842
744.18	68.584
744.49	71.292
744.80	67.136
745.12	65.000
745.43	64.758
745.74	70.270
746.06	57.798
746.37	62.332
746.68	66.516
747.00	68.519
747.31	67.619
747.62	62.389
747.94	60.352
748.25	60.851
748.56	70.044
748.88	68.812
749.19	68.000
749.50	65.581
749.82	60.976
750.13	59.184
750.44	58.394
750.75	57.193
751.07	54.984
751.38	60.279
751.69	57.040
752.01	54.887
752.32	54.152
752.63	58.865
752.94	58.197
753.26	60.800
753.57	54.065
753.88	61.719
754.19	56.786
754.51	53.472
754.82	53.430
755.13	61.132
755.44	58.271
755.75	58.394
756.07	57.092
756.38	53.650
756.69	53.356
757.00	51.198
757.31	51.039
757.63	50.000
757.94	50.134
758.25	48.529
758.56	49.630
758.87	47.581
759.18	48.788
759.50	52.978
759.81	50.779
760.12	52.187
760.43	53.009
760.74	50.272
761.05	51.130
761.36	49.465
761.67	52.557
761.99	52.795
762.30	52.778
762.61	59.924
762.92	59.375
763.23	64.706
763.54	58.800
763.85	59.766
764.16	58.077
764.47	57.795
764.78	49.470
765.10	47.785
765.41	51.917
765.72	54.192
766.03	53.918
766.34	50.333
766.65	62.128
766.96	53.846
767.27	72.081
767.58	65.625
767.89	67.895
768.20	65.517
768.51	64.467
768.82	65.138
769.13	57.317
769.44	52.632
769.75	56.223
770.06	57.339
770.37	57.919
770.68	64.352
770.99	60.000
771.30	55.328
771.61	65.919
771.92	53.689
772.23	60.504
772.54	65.641
772.85	62.304
773.16	60.106
773.47	69.022
773.78	62.437
774.09	60.119
774.39	67.251
774.70	74.074
775.01	80.435
775.32	77.778
775.63	74.342
775.94	65.468
776.25	78.740
776.56	74.627
776.87	80.328
777.18	85.156
777.48	74.809
777.79	78.788
778.10	66.667
778.41	85.714
778.72	67.153
779.03	75.839
779.34	74.497
779.65	69.595
779.95	71.166
780.26	70.588
780.57	69.655
780.88	85.938
781.19	75.188
781.50	74.324
781.80	74.214
782.11	68.362
782.42	67.722
782.73	63.804
783.04	81.757
783.34	74.648
783.65	83.562
783.96	71.642
784.27	78.322
784.57	68.345
784.88	75.926
785.19	93.651
785.50	83.962
785.81	76.866
786.11	81.148
786.42	78.295
786.73	86.726
787.04	84.906
787.34	78.571
787.65	95.000
787.96	74.775
788.26	81.818
788.57	77.119
788.88	85.950
789.19	72.222
789.49	78.788
789.80	80.153
790.11	82.857
790.41	94.059
790.72	100.000
791.03	94.565
791.33	98.837
791.64	90.722
791.95	92.079
792.25	90.000
792.56	100.000
792.87	114.103
793.17	108.861
793.48	100.000
793.79	97.701
794.09	93.182
794.40	71.429
794.70	80.147
795.01	74.815
795.32	65.468
795.62	70.079
795.93	74.138
796.23	82.301
796.54	95.294
796.85	90.541
797.15	109.859
797.46	110.606
797.76	101.205
798.07	105.063
798.37	106.154
798.68	103.030
798.99	97.183
799.29	94.805
799.60	80.682
799.90	108.219
800.21	111.940
800.51	139.655
800.82	133.333
801.12	101.639
801.43	112.121
801.73	93.243
802.04	125.397
802.34	107.407
802.65	110.938
802.95	133.898
803.26	134.375
803.56	85.714
803.87	110.769
804.17	120.588
804.48	127.778
804.78	113.793
805.09	101.471
805.39	144.231
805.70	121.429
806.00	121.311
806.30	112.121
806.61	87.805
806.91	96.203
807.22	105.263
807.52	101.493
807.83	119.718
808.13	135.937
808.43	113.333
808.74	100.000
809.04	115.942
809.35	113.433
809.65	97.368
809.95	137.097
810.26	111.864
810.56	101.587
810.86	161.364
811.17	197.619
811.47	123.333
811.77	137.037
812.08	132.727
812.38	128.000
812.69	172.222
812.99	168.182
813.29	136.735
813.59	123.810
813.90	128.571
814.20	130.909
814.50	113.846
814.81	116.176
815.11	144.898
815.41	122.951
815.72	171.429
816.02	138.182
816.32	140.476
816.62	157.500
816.93	151.220
817.23	185.714
817.53	140.909
817.84	187.879
818.14	150.000
818.44	168.889
818.74	197.059
819.04	162.500
819.35	174.286
819.65	211.765
819.95	221.429
820.25	245.000
820.56	169.231
820.86	165.909
821.16	162.791
821.46	189.744
821.76	138.000
822.07	191.429
822.37	157.500
822.67	206.061
822.97	119.608
823.27	228.571
823.57	181.081
823.88	192.500
824.18	216.667
824.48	185.714
824.78	256.000
825.08	212.500
825.38	194.595
825.69	160.976
825.99	225.000
826.29	220.690
826.59	173.684
826.89	173.684
827.19	194.118
827.49	251.613
827.79	147.727
828.09	163.636
828.39	129.787
828.70	134.694
829.00	229.630
829.30	203.226
829.60	155.000
829.90	413.333
830.20	239.286
830.50	247.826
830.80	282.609
831.10	200.000
831.40	220.000
831.70	200.000
832.00	223.077
832.30	237.037
832.60	368.750
832.90	253.333
833.20	457.143
833.50	206.452
833.80	203.448
834.10	212.500
834.40	253.846
834.70	266.667
835.00	314.286
835.30	188.571
835.60	400.000
835.90	227.586
836.20	385.714
836.50	182.759
836.80	204.000
837.10	163.889
837.40	266.667
837.70	329.412
838.00	218.519
838.30	271.429
838.60	319.048
838.90	234.615
839.19	255.000
839.49	450.000
839.79	330.000
840.09	330.000
840.39	266.667
840.69	239.130
840.99	277.778
841.29	620.000
841.59	366.667
841.88	406.250
842.18	186.207
842.48	304.762
842.78	193.333
843.08	247.826
843.38	215.625
843.68	933.333
843.97	246.154
844.27	231.034
844.57	285.714
844.87	412.500
845.17	244.444
845.47	1866.667
845.76	511.111
846.06	329.412
846.36	687.500
846.66	442.857
846.96	356.250
847.25	481.818
847.55	427.273
847.85	317.391
848.15	470.000
848.44	428.571
848.74	277.778
849.04	311.765
849.34	570.000
849.63	242.105
849.93	436.364
850.23	1080.000
850.53	457.143
850.82	3100.000
851.12	-5000.000
851.42	5500.000
851.71	285.000
852.01	-1600.000
852.31	275.000
852.61	2133.333
852.90	323.810
853.20	252.000
853.50	341.176
853.79	333.333
854.09	229.167
854.39	337.500
854.68	170.270
854.98	196.774
855.28	166.667
855.57	210.345
855.87	218.519
856.17	236.842
856.46	273.333
856.76	323.529
857.05	206.897
857.35	250.000
857.65	393.333
857.94	269.565
858.24	238.462
858.53	300.000
858.83	286.364
859.13	440.000
859.42	0.000
859.72	611.111
860.01	472.727
860.31	281.818
860.60	284.211
860.90	278.261
861.20	655.556
861.49	591.667
861.79	-4900.000
862.08	762.500
862.38	271.429
862.67	384.615
862.97	335.294
863.26	566.667
863.56	277.778
863.85	416.667
864.15	625.000
864.44	426.667
864.74	983.333
865.03	712.500
865.33	352.632
865.62	490.909
865.92	407.692
866.21	433.333
866.51	0.000
866.80	518.182
867.10	1220.000
867.39	384.615
867.69	472.727
867.98	289.474
868.27	527.273
868.57	336.842
868.86	-5000.000
869.16	412.500
869.45	2700.000
869.75	-4700.000
870.04	566.667
870.33	842.857
870.63	1075.000
870.92	2550.000
871.22	785.714
871.51	335.294
871.80	242.857
872.10	385.714
>>>>>End Processed Spectral Data<<<<<
