SpectraSuite Data File
++++++++++++++++++++++++++++++++++++
Date: Wed May 13 19:54:20 PDT 2015
User: schluterlab
Dark Spectrum Present: Yes
Reference Spectrum Present: Yes
Number of Sampled Component Spectra: 1
Spectrometers: USB2E3373
Integration Time (usec): 3000 (USB2E3373)
Spectra Averaged: 3 (USB2E3373)
Boxcar Smoothing: 0 (USB2E3373)
Correct for Electrical Dark: No (USB2E3373)
Strobe/Lamp Enabled: No (USB2E3373)
Correct for Detector Non-linearity: No (USB2E3373)
Correct for Stray Light: No (USB2E3373)
Number of Pixels in Processed Spectrum: 2048
>>>>>Begin Processed Spectral Data<<<<<
178.53	0.000
178.91	-1475.000
179.29	-1350.000
179.67	-238.889
180.04	-1425.000
180.42	2800.000
180.80	1060.000
181.18	-1175.000
181.56	685.714
181.94	0.000
182.31	-571.429
182.69	1733.333
183.07	-600.000
183.45	-566.667
183.83	572.727
184.20	-470.000
184.58	2450.000
184.96	5700.000
185.34	-880.000
185.72	-675.000
186.09	-2150.000
186.47	2500.000
186.85	3000.000
187.23	5700.000
187.61	-1666.667
187.98	1100.000
188.36	600.000
188.74	563.636
189.12	-1000.000
189.49	590.000
189.87	-5800.000
190.25	-1025.000
190.63	450.000
191.00	500.000
191.38	916.667
191.76	-1300.000
192.14	1475.000
192.51	625.000
192.89	833.333
193.27	687.500
193.65	-1525.000
194.02	570.000
194.40	1100.000
194.78	460.000
195.15	550.000
195.53	610.000
195.91	-2250.000
196.29	343.750
196.66	336.842
197.04	-320.000
197.42	0.000
197.79	510.000
198.17	-5200.000
198.55	714.286
198.92	750.000
199.30	1020.000
199.68	0.000
200.05	355.556
200.43	857.143
200.81	3900.000
201.18	1600.000
201.56	-1566.667
201.94	577.778
202.31	633.333
202.69	508.333
203.07	570.000
203.44	0.000
203.82	1500.000
204.19	814.286
204.57	500.000
204.95	662.500
205.32	1700.000
205.70	654.545
206.08	407.143
206.45	3000.000
206.83	406.250
207.20	900.000
207.58	940.000
207.96	394.444
208.33	787.500
208.71	-833.333
209.08	971.429
209.46	777.778
209.84	518.182
210.21	-1733.333
210.59	1575.000
210.96	-537.500
211.34	2450.000
211.71	590.000
212.09	916.667
212.46	0.000
212.84	1633.333
213.22	1600.000
213.59	-4000.000
213.97	850.000
214.34	942.857
214.72	590.909
215.09	1120.000
215.47	-2000.000
215.84	-2700.000
216.22	1666.667
216.59	442.857
216.97	1250.000
217.34	527.273
217.72	-750.000
218.09	0.000
218.47	-5600.000
218.84	622.222
219.22	800.000
219.59	1833.333
219.97	-700.000
220.34	1020.000
220.72	-1533.333
221.09	457.143
221.47	1625.000
221.84	-966.667
222.22	0.000
222.59	1250.000
222.97	-2950.000
223.34	1080.000
223.72	523.077
224.09	1140.000
224.46	2200.000
224.84	-4400.000
225.21	-1040.000
225.59	-4400.000
225.96	600.000
226.34	300.000
226.71	2750.000
227.08	762.500
227.46	620.000
227.83	-1275.000
228.21	-2450.000
228.58	600.000
228.95	-2500.000
229.33	-2750.000
229.70	1866.667
230.08	857.143
230.45	-1220.000
230.82	433.333
231.20	916.667
231.57	671.429
231.95	425.000
232.32	263.636
232.69	454.545
233.07	700.000
233.44	376.923
233.81	-1733.333
234.19	294.737
234.56	433.333
234.93	441.667
235.31	509.091
235.68	376.923
236.05	357.143
236.43	196.970
236.80	300.000
237.17	5900.000
237.55	276.190
237.92	225.000
238.29	280.952
238.67	190.323
239.04	224.138
239.41	166.667
239.79	139.130
240.16	159.524
240.53	156.818
240.91	129.412
241.28	150.000
241.65	128.000
242.02	111.594
242.40	116.129
242.77	135.000
243.14	104.301
243.51	102.247
243.89	103.529
244.26	88.889
244.63	87.097
245.00	89.362
245.38	92.079
245.75	79.439
246.12	80.734
246.49	88.321
246.87	79.200
247.24	87.692
247.61	73.571
247.98	70.588
248.36	70.270
248.73	71.338
249.10	72.611
249.47	63.842
249.84	69.519
250.22	65.241
250.59	65.089
250.96	64.141
251.33	59.716
251.70	68.812
252.08	65.714
252.45	56.054
252.82	58.261
253.19	63.830
253.56	64.314
253.94	63.071
254.31	57.422
254.68	58.462
255.05	61.255
255.42	57.724
255.79	58.456
256.16	58.484
256.54	56.537
256.91	58.719
257.28	55.036
257.65	52.805
258.02	54.969
258.39	55.205
258.76	55.184
259.14	55.060
259.51	53.191
259.88	54.037
260.25	55.891
260.62	48.844
260.99	56.211
261.36	52.553
261.73	51.003
262.10	51.744
262.47	54.366
262.85	49.861
263.22	51.282
263.59	54.131
263.96	51.923
264.33	52.219
264.70	49.474
265.07	51.151
265.44	52.778
265.81	47.445
266.18	49.497
266.55	48.537
266.92	52.580
267.29	50.926
267.66	50.000
268.03	47.727
268.40	49.766
268.77	50.119
269.14	50.901
269.51	46.275
269.88	47.786
270.25	47.178
270.62	46.966
270.99	49.892
271.36	48.069
271.73	46.729
272.10	47.174
272.47	50.323
272.84	47.403
273.21	47.589
273.58	44.978
273.95	45.702
274.32	45.455
274.69	46.253
275.06	47.638
275.43	48.298
275.80	47.495
276.17	45.214
276.54	47.817
276.91	49.605
277.28	45.117
277.65	47.389
278.02	45.756
278.39	47.656
278.76	44.727
279.13	47.170
279.50	45.996
279.87	46.813
280.23	47.505
280.60	47.002
280.97	47.320
281.34	46.726
281.71	44.545
282.08	44.722
282.45	45.818
282.82	43.517
283.19	39.750
283.56	42.807
283.92	43.655
284.29	43.563
284.66	46.824
285.03	43.580
285.40	43.838
285.77	42.929
286.14	41.623
286.51	43.333
286.87	42.564
287.24	43.160
287.61	40.770
287.98	42.370
288.35	39.937
288.72	38.474
289.08	41.158
289.45	41.680
289.82	39.187
290.19	39.246
290.56	39.357
290.93	36.707
291.29	39.571
291.66	38.348
292.03	38.808
292.40	39.648
292.77	37.130
293.13	37.761
293.50	38.338
293.87	38.074
294.24	37.037
294.60	36.972
294.97	36.483
295.34	36.953
295.71	37.216
296.08	34.900
296.44	35.076
296.81	32.365
297.18	35.772
297.55	32.718
297.91	36.016
298.28	34.404
298.65	33.290
299.02	34.256
299.38	33.333
299.75	30.997
300.12	32.439
300.48	34.375
300.85	31.196
301.22	32.229
301.59	32.071
301.95	32.620
302.32	32.349
302.69	31.422
303.05	32.727
303.42	32.593
303.79	30.917
304.15	31.002
304.52	31.518
304.89	30.778
305.25	30.162
305.62	30.351
305.99	31.995
306.35	30.201
306.72	30.269
307.09	32.297
307.45	31.306
307.82	30.022
308.19	29.470
308.55	31.176
308.92	30.827
309.29	27.244
309.65	30.753
310.02	30.444
310.38	30.538
310.75	29.989
311.12	29.580
311.48	30.930
311.85	31.971
312.22	30.073
312.58	28.378
312.95	30.306
313.31	29.709
313.68	29.418
314.05	31.558
314.41	30.251
314.78	30.211
315.14	29.494
315.51	30.072
315.87	30.396
316.24	30.089
316.61	29.825
316.97	30.626
317.34	29.648
317.70	31.071
318.07	29.163
318.43	32.192
318.80	31.959
319.16	30.979
319.53	30.113
319.89	31.714
320.26	32.700
320.62	31.349
320.99	32.626
321.35	31.919
321.72	33.265
322.08	33.959
322.45	34.627
322.81	34.981
323.18	35.356
323.54	34.045
323.91	34.906
324.27	34.034
324.64	34.203
325.00	33.904
325.37	35.214
325.73	35.458
326.10	34.334
326.46	35.215
326.83	36.928
327.19	35.952
327.56	37.456
327.92	38.058
328.29	36.646
328.65	38.122
329.01	37.635
329.38	37.558
329.74	37.211
330.11	38.077
330.47	38.017
330.84	39.522
331.20	38.889
331.56	37.339
331.93	38.981
332.29	37.533
332.66	38.761
333.02	38.208
333.38	38.753
333.75	39.127
334.11	38.879
334.48	38.687
334.84	39.522
335.20	38.818
335.57	39.438
335.93	39.286
336.29	39.011
336.66	38.864
337.02	38.914
337.38	40.000
337.75	39.394
338.11	40.197
338.47	38.766
338.84	39.138
339.20	38.349
339.56	42.153
339.93	39.636
340.29	39.674
340.65	39.750
341.02	41.361
341.38	41.103
341.74	40.439
342.11	39.825
342.47	40.441
342.83	39.983
343.20	39.827
343.56	39.343
343.92	40.000
344.28	39.541
344.65	40.413
345.01	39.226
345.37	40.309
345.73	40.609
346.10	40.153
346.46	38.475
346.82	40.115
347.19	40.267
347.55	39.737
347.91	39.401
348.27	42.235
348.63	40.719
349.00	39.806
349.36	40.722
349.72	38.573
350.08	39.141
350.45	41.172
350.81	39.155
351.17	38.898
351.53	40.377
351.89	40.182
352.26	40.568
352.62	40.176
352.98	39.951
353.34	40.099
353.70	40.426
354.07	39.919
354.43	38.730
354.79	38.858
355.15	40.383
355.51	40.208
355.87	40.408
356.24	39.984
356.60	39.936
356.96	41.030
357.32	39.248
357.68	39.843
358.04	40.063
358.40	40.618
358.77	39.593
359.13	40.410
359.49	40.863
359.85	40.079
360.21	42.026
360.57	42.101
360.93	40.077
361.29	41.421
361.66	40.015
362.02	41.045
362.38	42.129
362.74	40.327
363.10	39.896
363.46	41.599
363.82	41.270
364.18	40.675
364.54	42.571
364.90	42.068
365.26	41.985
365.62	41.636
365.98	41.125
366.35	41.189
366.71	40.926
367.07	40.932
367.43	42.525
367.79	44.325
368.15	41.954
368.51	42.078
368.87	42.256
369.23	42.209
369.59	43.157
369.95	42.353
370.31	41.880
370.67	41.159
371.03	44.195
371.39	42.784
371.75	43.971
372.11	42.888
372.47	43.695
372.83	44.741
373.19	42.124
373.55	43.163
373.91	44.772
374.27	42.818
374.63	43.491
374.99	44.421
375.35	42.359
375.71	43.112
376.07	44.787
376.42	44.223
376.78	45.129
377.14	43.487
377.50	46.026
377.86	43.684
378.22	43.869
378.58	43.546
378.94	43.809
379.30	44.338
379.66	43.655
380.02	44.410
380.38	44.991
380.74	45.078
381.09	45.599
381.45	45.913
381.81	45.946
382.17	45.159
382.53	45.472
382.89	46.667
383.25	46.717
383.61	46.716
383.97	46.779
384.32	46.725
384.68	44.796
385.04	45.544
385.40	46.192
385.76	47.052
386.12	47.668
386.48	47.451
386.83	47.787
387.19	48.918
387.55	48.423
387.91	47.461
388.27	45.677
388.62	47.695
388.98	48.342
389.34	48.060
389.70	48.130
390.06	49.366
390.42	50.454
390.77	47.837
391.13	49.713
391.49	51.142
391.85	49.650
392.20	48.959
392.56	50.379
392.92	50.147
393.28	48.580
393.64	48.921
393.99	49.481
394.35	51.241
394.71	49.812
395.07	49.907
395.42	50.989
395.78	50.382
396.14	50.652
396.50	52.757
396.85	52.829
397.21	50.617
397.57	51.271
397.92	51.923
398.28	51.570
398.64	51.493
399.00	51.819
399.35	51.438
399.71	52.373
400.07	51.508
400.42	52.331
400.78	53.317
401.14	54.024
401.49	54.388
401.85	53.055
402.21	52.036
402.57	54.041
402.92	54.224
403.28	55.153
403.63	54.889
403.99	55.350
404.35	53.758
404.70	55.396
405.06	54.980
405.42	55.521
405.77	54.743
406.13	55.079
406.49	55.352
406.84	55.818
407.20	55.674
407.55	57.243
407.91	56.533
408.27	57.881
408.62	56.653
408.98	57.414
409.34	56.150
409.69	56.645
410.05	57.373
410.40	57.064
410.76	57.467
411.11	57.479
411.47	57.125
411.83	58.400
412.18	57.699
412.54	58.904
412.89	58.133
413.25	58.973
413.60	59.172
413.96	58.409
414.31	57.473
414.67	60.013
415.03	58.675
415.38	60.567
415.74	59.678
416.09	60.287
416.45	61.446
416.80	60.674
417.16	61.394
417.51	61.845
417.87	60.051
418.22	60.757
418.58	60.813
418.93	61.732
419.29	63.081
419.64	61.776
420.00	61.829
420.35	60.348
420.71	62.283
421.06	61.754
421.42	61.871
421.77	62.556
422.12	60.640
422.48	61.684
422.83	63.483
423.19	62.155
423.54	63.262
423.90	62.551
424.25	61.921
424.61	62.798
424.96	61.749
425.31	62.292
425.67	60.955
426.02	63.771
426.38	65.507
426.73	63.429
427.09	62.796
427.44	64.635
427.79	63.600
428.15	63.690
428.50	62.785
428.85	64.362
429.21	63.887
429.56	63.764
429.92	63.362
430.27	63.704
430.62	63.287
430.98	63.985
431.33	63.144
431.68	62.984
432.04	63.472
432.39	64.991
432.74	65.410
433.10	66.610
433.45	66.006
433.80	64.967
434.16	64.370
434.51	65.053
434.86	65.222
435.22	65.314
435.57	65.289
435.92	64.775
436.28	66.311
436.63	64.956
436.98	65.827
437.34	65.295
437.69	67.503
438.04	66.723
438.39	66.388
438.75	66.996
439.10	66.369
439.45	66.352
439.81	68.157
440.16	65.443
440.51	67.018
440.86	67.342
441.22	67.686
441.57	66.242
441.92	65.507
442.27	66.846
442.63	66.087
442.98	66.366
443.33	65.598
443.68	67.372
444.03	66.862
444.39	65.531
444.74	67.208
445.09	66.792
445.44	66.539
445.79	66.403
446.15	65.749
446.50	66.936
446.85	67.369
447.20	67.160
447.55	67.002
447.91	67.237
448.26	65.109
448.61	68.231
448.96	66.777
449.31	67.548
449.66	66.179
450.02	66.852
450.37	66.100
450.72	67.400
451.07	66.484
451.42	67.173
451.77	67.469
452.12	66.051
452.47	66.791
452.83	67.191
453.18	66.381
453.53	67.409
453.88	67.100
454.23	67.603
454.58	67.595
454.93	70.121
455.28	67.519
455.63	67.840
455.98	68.452
456.34	67.965
456.69	66.938
457.04	69.721
457.39	66.219
457.74	66.860
458.09	65.727
458.44	67.560
458.79	65.998
459.14	67.325
459.49	67.075
459.84	66.925
460.19	66.411
460.54	65.799
460.89	66.868
461.24	67.820
461.59	68.855
461.94	66.584
462.29	67.122
462.64	67.007
462.99	65.582
463.34	68.400
463.69	67.480
464.04	66.609
464.39	67.188
464.74	66.370
465.09	66.405
465.44	67.036
465.79	65.045
466.14	64.313
466.49	66.185
466.84	67.542
467.19	65.419
467.54	66.625
467.89	65.786
468.24	64.863
468.59	67.949
468.94	65.730
469.29	67.031
469.64	67.537
469.99	66.576
470.34	68.230
470.68	67.816
471.03	67.007
471.38	68.520
471.73	67.288
472.08	66.842
472.43	66.709
472.78	66.294
473.13	65.404
473.48	66.355
473.83	66.280
474.17	66.708
474.52	66.811
474.87	67.309
475.22	65.119
475.57	65.073
475.92	66.437
476.27	65.671
476.61	65.637
476.96	65.860
477.31	64.626
477.66	65.755
478.01	65.395
478.36	65.944
478.70	66.199
479.05	66.667
479.40	66.172
479.75	66.650
480.10	65.905
480.45	64.874
480.79	64.405
481.14	65.998
481.49	64.832
481.84	64.472
482.19	64.380
482.53	64.450
482.88	64.635
483.23	64.907
483.58	64.240
483.92	65.933
484.27	63.834
484.62	63.147
484.97	63.697
485.31	63.116
485.66	61.013
486.01	58.990
486.36	57.670
486.70	57.394
487.05	58.908
487.40	60.393
487.75	60.487
488.09	62.299
488.44	61.975
488.79	63.255
489.13	63.254
489.48	64.478
489.83	64.653
490.17	64.840
490.52	63.729
490.87	63.682
491.22	63.074
491.56	63.235
491.91	64.588
492.26	62.701
492.60	63.041
492.95	63.891
493.30	62.710
493.64	63.462
493.99	63.649
494.34	62.766
494.68	63.599
495.03	64.051
495.37	61.843
495.72	64.961
496.07	63.063
496.41	61.504
496.76	62.445
497.11	62.449
497.45	62.832
497.80	62.860
498.14	63.527
498.49	62.878
498.84	63.087
499.18	62.619
499.53	63.675
499.87	62.815
500.22	61.988
500.56	63.058
500.91	61.635
501.26	62.352
501.60	63.692
501.95	61.732
502.29	62.840
502.64	63.128
502.98	62.927
503.33	61.289
503.67	62.784
504.02	62.442
504.36	61.722
504.71	62.140
505.06	61.253
505.40	61.595
505.75	62.054
506.09	61.759
506.44	63.148
506.78	62.056
507.13	62.342
507.47	62.475
507.82	62.563
508.16	62.057
508.51	63.623
508.85	61.917
509.19	62.806
509.54	62.194
509.88	61.257
510.23	62.571
510.57	63.519
510.92	62.196
511.26	60.997
511.61	61.981
511.95	61.639
512.30	62.036
512.64	61.634
512.98	62.808
513.33	62.634
513.67	61.366
514.02	61.580
514.36	62.643
514.70	62.037
515.05	62.856
515.39	62.928
515.74	63.063
516.08	62.549
516.42	61.931
516.77	62.598
517.11	61.820
517.46	61.851
517.80	63.182
518.14	62.420
518.49	62.835
518.83	62.102
519.17	62.529
519.52	61.913
519.86	62.978
520.20	61.098
520.55	63.256
520.89	63.808
521.23	62.847
521.58	61.885
521.92	62.768
522.26	62.477
522.61	63.988
522.95	62.615
523.29	62.934
523.64	61.159
523.98	63.031
524.32	62.063
524.66	61.575
525.01	61.091
525.35	62.144
525.69	61.515
526.04	62.804
526.38	61.074
526.72	62.331
527.06	61.833
527.41	59.777
527.75	63.023
528.09	62.428
528.43	62.269
528.78	60.725
529.12	60.667
529.46	61.298
529.80	61.448
530.15	61.682
530.49	59.692
530.83	60.759
531.17	63.316
531.51	62.646
531.86	60.839
532.20	62.647
532.54	62.012
532.88	61.617
533.22	60.462
533.57	60.309
533.91	59.241
534.25	59.721
534.59	60.342
534.93	58.239
535.27	58.419
535.62	59.402
535.96	59.699
536.30	60.140
536.64	60.270
536.98	60.584
537.32	59.974
537.66	60.067
538.01	59.710
538.35	60.310
538.69	59.604
539.03	59.649
539.37	58.594
539.71	58.717
540.05	59.935
540.39	60.532
540.73	58.926
541.07	59.507
541.42	60.274
541.76	58.968
542.10	60.026
542.44	59.603
542.78	58.564
543.12	56.814
543.46	58.885
543.80	58.621
544.14	58.922
544.48	58.476
544.82	58.114
545.16	59.987
545.50	58.419
545.84	58.938
546.18	58.923
546.52	59.394
546.86	58.900
547.20	58.260
547.54	59.385
547.88	57.270
548.22	56.663
548.56	57.233
548.90	57.298
549.24	57.710
549.58	58.799
549.92	58.723
550.26	59.446
550.60	57.331
550.94	59.085
551.28	59.912
551.62	59.454
551.96	57.474
552.30	57.952
552.64	57.404
552.98	56.746
553.32	56.912
553.66	59.032
554.00	57.584
554.34	57.488
554.68	57.725
555.02	57.546
555.36	56.924
555.69	56.698
556.03	57.739
556.37	57.844
556.71	56.617
557.05	57.563
557.39	57.033
557.73	58.151
558.07	58.666
558.41	57.598
558.75	57.825
559.08	58.091
559.42	59.033
559.76	56.912
560.10	56.888
560.44	56.254
560.78	55.156
561.12	55.541
561.45	55.671
561.79	55.900
562.13	55.533
562.47	56.284
562.81	56.764
563.15	54.448
563.48	56.233
563.82	54.990
564.16	54.938
564.50	54.818
564.84	54.488
565.17	54.762
565.51	56.294
565.85	54.505
566.19	53.350
566.52	55.035
566.86	53.044
567.20	54.422
567.54	53.995
567.88	52.689
568.21	52.646
568.55	51.567
568.89	51.119
569.23	50.490
569.56	49.150
569.90	49.358
570.24	48.619
570.57	48.181
570.91	47.511
571.25	47.066
571.59	47.099
571.92	47.552
572.26	47.400
572.60	48.018
572.93	46.717
573.27	47.885
573.61	47.487
573.95	47.571
574.28	46.080
574.62	45.918
574.96	45.759
575.29	45.975
575.63	45.935
575.97	45.821
576.30	46.601
576.64	46.121
576.98	45.746
577.31	45.633
577.65	44.995
577.98	45.215
578.32	44.241
578.66	44.948
578.99	45.241
579.33	45.195
579.67	45.415
580.00	45.912
580.34	45.515
580.67	44.907
581.01	45.199
581.35	44.672
581.68	44.393
582.02	43.922
582.35	43.617
582.69	44.040
583.02	44.675
583.36	45.031
583.70	45.430
584.03	46.082
584.37	45.481
584.70	45.637
585.04	44.765
585.37	44.804
585.71	44.196
586.04	44.818
586.38	44.906
586.72	44.960
587.05	43.847
587.39	43.852
587.72	44.422
588.06	45.384
588.39	44.801
588.73	45.028
589.06	46.027
589.40	46.229
589.73	45.794
590.07	45.480
590.40	45.670
590.73	47.034
591.07	47.049
591.40	45.972
591.74	47.922
592.07	46.335
592.41	46.383
592.74	44.981
593.08	44.604
593.41	44.922
593.75	43.567
594.08	43.983
594.41	45.458
594.75	45.065
595.08	44.739
595.42	44.834
595.75	45.477
596.09	45.400
596.42	46.169
596.75	45.758
597.09	45.714
597.42	44.266
597.75	45.278
598.09	45.130
598.42	45.060
598.76	43.899
599.09	43.672
599.42	43.705
599.76	43.960
600.09	43.424
600.42	43.207
600.76	43.500
601.09	43.534
601.42	43.988
601.76	43.985
602.09	44.348
602.42	44.029
602.76	44.538
603.09	44.925
603.42	44.201
603.76	43.864
604.09	43.273
604.42	44.313
604.76	44.665
605.09	45.216
605.42	43.566
605.75	44.123
606.09	43.066
606.42	44.136
606.75	43.675
607.09	43.240
607.42	43.945
607.75	42.911
608.08	42.901
608.42	45.182
608.75	43.959
609.08	43.941
609.41	44.027
609.75	44.593
610.08	44.251
610.41	44.181
610.74	43.141
611.07	44.862
611.41	44.455
611.74	44.495
612.07	44.928
612.40	45.488
612.73	44.368
613.07	45.744
613.40	45.392
613.73	43.891
614.06	44.516
614.39	44.048
614.72	43.737
615.06	44.800
615.39	45.064
615.72	43.967
616.05	43.541
616.38	44.024
616.71	44.893
617.05	44.759
617.38	45.941
617.71	43.243
618.04	46.034
618.37	44.057
618.70	46.733
619.03	47.303
619.36	46.640
619.69	46.127
620.03	46.635
620.36	45.388
620.69	46.712
621.02	48.230
621.35	45.497
621.68	45.872
622.01	46.440
622.34	45.840
622.67	47.681
623.00	45.855
623.33	44.889
623.66	46.319
623.99	45.287
624.32	45.649
624.65	44.986
624.99	44.688
625.32	46.271
625.65	45.605
625.98	47.502
626.31	46.734
626.64	48.571
626.97	47.049
627.30	46.633
627.63	47.416
627.96	48.276
628.29	47.594
628.62	49.039
628.95	50.189
629.28	48.814
629.61	49.038
629.94	50.952
630.26	47.474
630.59	48.141
630.92	46.073
631.25	47.187
631.58	48.549
631.91	47.465
632.24	47.890
632.57	49.423
632.90	49.781
633.23	49.553
633.56	50.395
633.89	48.018
634.22	49.603
634.55	51.006
634.88	48.862
635.20	52.808
635.53	50.843
635.86	51.856
636.19	49.765
636.52	50.865
636.85	48.797
637.18	47.581
637.51	50.591
637.83	49.322
638.16	50.512
638.49	50.882
638.82	51.454
639.15	50.500
639.48	50.499
639.81	52.681
640.13	51.432
640.46	50.201
640.79	49.802
641.12	49.794
641.45	50.698
641.77	53.461
642.10	52.632
642.43	52.252
642.76	50.929
643.09	52.454
643.41	51.745
643.74	52.315
644.07	50.762
644.40	53.681
644.73	51.339
645.05	54.517
645.38	50.869
645.71	51.530
646.04	54.817
646.36	56.928
646.69	53.177
647.02	52.381
647.35	53.093
647.67	55.044
648.00	52.358
648.33	52.475
648.66	49.545
648.98	51.874
649.31	50.523
649.64	50.523
649.96	49.478
650.29	54.344
650.62	51.456
650.94	52.998
651.27	53.885
651.60	52.912
651.92	48.083
652.25	49.023
652.58	52.804
652.90	54.186
653.23	48.382
653.56	49.921
653.88	52.139
654.21	51.659
654.54	50.660
654.86	49.688
655.19	48.108
655.52	34.788
655.84	29.749
656.17	38.363
656.49	51.854
656.82	53.446
657.15	40.595
657.47	30.185
657.80	23.149
658.13	24.747
658.45	37.063
658.78	37.624
659.10	39.746
659.43	41.763
659.75	43.680
660.08	45.759
660.41	49.721
660.73	53.494
661.06	53.185
661.38	56.909
661.71	56.346
662.03	55.621
662.36	52.286
662.68	51.004
663.01	54.545
663.33	52.017
663.66	55.252
663.98	56.587
664.31	53.571
664.63	53.239
664.96	52.716
665.28	53.074
665.61	51.657
665.93	54.326
666.26	53.144
666.58	53.347
666.91	53.700
667.23	55.056
667.56	52.916
667.88	55.556
668.21	54.797
668.53	50.976
668.86	52.381
669.18	54.584
669.50	53.696
669.83	55.991
670.15	56.000
670.48	52.941
670.80	54.957
671.13	52.866
671.45	52.128
671.77	53.971
672.10	51.017
672.42	47.527
672.75	48.756
673.07	49.120
673.39	48.825
673.72	51.562
674.04	50.196
674.37	50.097
674.69	50.307
675.01	48.536
675.34	51.951
675.66	54.947
675.98	50.916
676.31	52.941
676.63	52.442
676.95	51.153
677.28	53.738
677.60	56.264
677.92	54.008
678.25	52.977
678.57	50.996
678.89	49.098
679.22	48.134
679.54	49.618
679.86	50.275
680.18	48.301
680.51	49.291
680.83	50.356
681.15	48.491
681.48	51.796
681.80	49.710
682.12	48.467
682.44	46.035
682.77	50.102
683.09	51.502
683.41	51.663
683.73	53.642
684.06	48.760
684.38	49.119
684.70	48.256
685.02	48.030
685.34	49.634
685.67	46.503
685.99	43.643
686.31	47.952
686.63	44.523
686.96	44.464
687.28	45.487
687.60	45.471
687.92	48.995
688.24	50.760
688.56	50.602
688.89	51.452
689.21	52.183
689.53	49.687
689.85	53.659
690.17	46.791
690.49	51.805
690.82	53.505
691.14	47.545
691.46	47.468
691.78	49.398
692.10	52.273
692.42	49.301
692.74	48.340
693.06	52.128
693.39	46.817
693.71	51.965
694.03	45.895
694.35	48.485
694.67	49.199
694.99	48.780
695.31	50.735
695.63	50.957
695.95	49.878
696.27	49.746
696.59	51.554
696.91	51.554
697.23	45.775
697.56	47.122
697.88	46.421
698.20	44.583
698.52	49.032
698.84	49.220
699.16	49.770
699.48	49.644
699.80	49.517
700.12	55.325
700.44	50.663
700.76	51.934
701.08	55.747
701.40	52.235
701.72	55.394
702.04	58.807
702.36	49.292
702.68	52.125
703.00	54.848
703.32	51.596
703.64	50.402
703.96	52.925
704.28	52.326
704.60	54.252
704.91	55.786
705.23	52.786
705.55	56.478
705.87	58.472
706.19	60.071
706.51	56.075
706.83	54.545
707.15	54.062
707.47	49.747
707.79	48.649
708.11	47.032
708.43	48.810
708.74	48.469
709.06	53.247
709.38	51.444
709.70	54.942
710.02	51.335
710.34	54.242
710.66	51.343
710.98	52.557
711.29	54.651
711.61	52.507
711.93	52.885
712.25	55.949
712.57	56.250
712.89	59.862
713.20	54.407
713.52	54.276
713.84	53.797
714.16	53.049
714.48	50.287
714.80	56.231
715.11	46.110
715.43	50.742
715.75	51.884
716.07	53.035
716.39	52.038
716.70	50.831
717.02	57.554
717.34	55.477
717.66	59.701
717.97	59.363
718.29	52.222
718.61	57.299
718.93	56.618
719.24	53.287
719.56	54.237
719.88	53.898
720.20	56.419
720.51	55.052
720.83	59.108
721.15	57.836
721.46	55.674
721.78	57.706
722.10	57.736
722.42	59.774
722.73	55.805
723.05	52.869
723.37	58.704
723.68	56.371
724.00	59.756
724.32	50.000
724.63	57.317
724.95	54.812
725.27	57.490
725.58	56.250
725.90	59.124
726.22	54.340
726.53	51.042
726.85	51.195
727.16	52.313
727.48	51.773
727.80	56.818
728.11	52.899
728.43	55.000
728.74	53.047
729.06	56.204
729.38	56.618
729.69	54.804
730.01	51.877
730.32	51.736
730.64	50.167
730.96	47.195
731.27	53.311
731.59	49.235
731.90	52.478
732.22	50.311
732.53	47.678
732.85	48.397
733.16	49.839
733.48	46.844
733.80	50.325
734.11	49.045
734.43	47.337
734.74	47.714
735.06	46.132
735.37	50.867
735.69	48.408
736.00	54.248
736.32	52.648
736.63	50.479
736.95	47.923
737.26	50.340
737.58	51.935
737.89	48.161
738.21	55.290
738.52	53.214
738.83	51.698
739.15	51.154
739.46	52.555
739.78	52.778
740.09	49.846
740.41	51.613
740.72	48.780
741.04	53.704
741.35	53.333
741.66	58.667
741.98	58.019
742.29	64.115
742.61	60.776
742.92	59.276
743.23	58.120
743.55	51.600
743.86	57.018
744.18	59.735
744.49	58.373
744.80	63.380
745.12	58.636
745.43	56.388
745.74	62.613
746.06	58.716
746.37	55.605
746.68	54.299
747.00	64.352
747.31	64.762
747.62	56.195
747.94	57.709
748.25	53.191
748.56	62.115
748.88	61.386
749.19	66.500
749.50	56.744
749.82	52.033
750.13	55.510
750.44	53.650
750.75	49.825
751.07	50.804
751.38	53.310
751.69	47.653
752.01	46.241
752.32	52.708
752.63	51.418
752.94	53.689
753.26	57.600
753.57	50.407
753.88	57.422
754.19	48.571
754.51	51.736
754.82	50.181
755.13	54.717
755.44	53.759
755.75	47.810
756.07	47.872
756.38	50.730
756.69	47.651
757.00	44.311
757.31	45.697
757.63	47.368
757.94	43.164
758.25	45.098
758.56	42.469
758.87	44.892
759.18	49.091
759.50	45.141
759.81	47.975
760.12	48.750
760.43	43.266
760.74	45.109
761.05	46.045
761.36	41.979
761.67	46.591
761.99	48.447
762.30	48.958
762.61	52.290
762.92	51.172
763.23	56.303
763.54	58.400
763.85	49.219
764.16	55.385
764.47	55.513
764.78	42.756
765.10	45.570
765.41	48.083
765.72	44.012
766.03	46.708
766.34	48.333
766.65	57.021
766.96	55.556
767.27	64.467
767.58	58.854
767.89	64.737
768.20	64.368
768.51	59.391
768.82	55.505
769.13	47.154
769.44	53.441
769.75	52.790
770.06	50.459
770.37	57.919
770.68	55.093
770.99	49.778
771.30	50.820
771.61	56.054
771.92	51.230
772.23	55.462
772.54	55.385
772.85	61.257
773.16	60.106
773.47	57.065
773.78	52.792
774.09	63.690
774.39	67.251
774.70	62.963
775.01	79.710
775.32	68.627
775.63	68.421
775.94	69.784
776.25	78.740
776.56	74.627
776.87	73.770
777.18	77.344
777.48	73.282
777.79	65.152
778.10	73.333
778.41	76.786
778.72	64.964
779.03	71.141
779.34	70.470
779.65	70.270
779.95	71.779
780.26	65.359
780.57	61.379
780.88	71.875
781.19	78.195
781.50	71.622
781.80	60.377
782.11	61.582
782.42	60.759
782.73	60.123
783.04	74.324
783.34	66.197
783.65	78.767
783.96	77.612
784.27	63.636
784.57	57.554
784.88	68.519
785.19	73.810
785.50	81.132
785.81	79.104
786.11	77.049
786.42	71.318
786.73	75.221
787.04	81.132
787.34	77.679
787.65	95.000
787.96	84.685
788.26	71.901
788.57	79.661
788.88	74.380
789.19	69.444
789.49	78.030
789.80	73.282
790.11	83.810
790.41	90.099
790.72	96.386
791.03	92.391
791.33	97.674
791.64	87.629
791.95	89.109
792.25	85.556
792.56	92.208
792.87	106.410
793.17	84.810
793.48	90.805
793.79	93.103
794.09	92.045
794.40	70.588
794.70	77.941
795.01	65.185
795.32	67.626
795.62	66.929
795.93	78.448
796.23	69.027
796.54	90.588
796.85	100.000
797.15	112.676
797.46	103.030
797.76	86.747
798.07	94.937
798.37	107.692
798.68	112.121
798.99	85.915
799.29	101.299
799.60	79.545
799.90	100.000
800.21	114.925
800.51	131.034
800.82	140.351
801.12	114.754
801.43	107.576
801.73	86.486
802.04	130.159
802.34	86.420
802.65	128.125
802.95	108.475
803.26	115.625
803.56	95.714
803.87	98.462
804.17	108.824
804.48	140.741
804.78	115.517
805.09	98.529
805.39	121.154
805.70	114.286
806.00	122.951
806.30	106.061
806.61	84.146
806.91	82.278
807.22	97.368
807.52	95.522
807.83	94.366
808.13	115.625
808.43	115.000
808.74	82.895
809.04	104.348
809.35	102.985
809.65	92.105
809.95	124.194
810.26	132.203
810.56	114.286
810.86	177.273
811.17	185.714
811.47	125.000
811.77	105.556
812.08	129.091
812.38	162.000
812.69	169.444
812.99	168.182
813.29	140.816
813.59	130.952
813.90	148.980
814.20	120.000
814.50	96.923
814.81	107.353
815.11	159.184
815.41	101.639
815.72	154.762
816.02	125.455
816.32	152.381
816.62	175.000
816.93	151.220
817.23	157.143
817.53	159.091
817.84	200.000
818.14	147.826
818.44	128.889
818.74	185.294
819.04	165.000
819.35	185.714
819.65	205.882
819.95	203.571
820.25	265.000
820.56	194.872
820.86	154.545
821.16	141.860
821.46	169.231
821.76	178.000
822.07	197.143
822.37	177.500
822.67	175.758
822.97	113.725
823.27	246.429
823.57	162.162
823.88	192.500
824.18	216.667
824.48	169.048
824.78	276.000
825.08	200.000
825.38	154.054
825.69	180.488
825.99	258.333
826.29	175.862
826.59	165.789
826.89	184.211
827.19	185.294
827.49	177.419
827.79	138.636
828.09	154.545
828.39	144.681
828.70	136.735
829.00	211.111
829.30	164.516
829.60	175.000
829.90	440.000
830.20	232.143
830.50	265.217
830.80	230.435
831.10	180.000
831.40	220.000
831.70	204.348
832.00	234.615
832.30	233.333
832.60	312.500
832.90	210.000
833.20	421.429
833.50	212.903
833.80	241.379
834.10	218.750
834.40	250.000
834.70	322.222
835.00	342.857
835.30	174.286
835.60	376.923
835.90	220.690
836.20	371.429
836.50	193.103
836.80	244.000
837.10	172.222
837.40	271.429
837.70	358.824
838.00	233.333
838.30	266.667
838.60	300.000
838.90	238.462
839.19	300.000
839.49	435.714
839.79	310.000
840.09	265.000
840.39	309.524
840.69	317.391
840.99	322.222
841.29	520.000
841.59	366.667
841.88	368.750
842.18	162.069
842.48	276.190
842.78	220.000
843.08	243.478
843.38	178.125
843.68	933.333
843.97	219.231
844.27	206.897
844.57	323.810
844.87	387.500
845.17	266.667
845.47	1566.667
845.76	522.222
846.06	252.941
846.36	512.500
846.66	428.571
846.96	393.750
847.25	445.455
847.55	436.364
847.85	278.261
848.15	520.000
848.44	414.286
848.74	294.444
849.04	305.882
849.34	570.000
849.63	310.526
849.93	545.455
850.23	1120.000
850.53	407.143
850.82	2700.000
851.12	-5700.000
851.42	5300.000
851.71	265.000
852.01	-1333.333
852.31	270.833
852.61	1900.000
852.90	276.190
853.20	220.000
853.50	317.647
853.79	290.476
854.09	237.500
854.39	362.500
854.68	175.676
854.98	187.097
855.28	193.333
855.57	251.724
855.87	218.519
856.17	294.737
856.46	286.667
856.76	323.529
857.05	248.276
857.35	225.000
857.65	306.667
857.94	239.130
858.24	226.923
858.53	310.000
858.83	268.182
859.13	366.667
859.42	0.000
859.72	600.000
860.01	527.273
860.31	254.545
860.60	305.263
860.90	252.174
861.20	588.889
861.49	558.333
861.79	-5500.000
862.08	637.500
862.38	285.714
862.67	369.231
862.97	370.588
863.26	544.444
863.56	338.889
863.85	408.333
864.15	600.000
864.44	433.333
864.74	750.000
865.03	700.000
865.33	273.684
865.62	327.273
865.92	423.077
866.21	516.667
866.51	0.000
866.80	409.091
867.10	1000.000
867.39	492.308
867.69	500.000
867.98	257.895
868.27	472.727
868.57	300.000
868.86	-5100.000
869.16	325.000
869.45	2450.000
869.75	-4700.000
870.04	475.000
870.33	685.714
870.63	1150.000
870.92	2450.000
871.22	814.286
871.51	311.765
871.80	280.952
872.10	400.000
>>>>>End Processed Spectral Data<<<<<
