SpectraSuite Data File
++++++++++++++++++++++++++++++++++++
Date: Wed May 13 19:43:36 PDT 2015
User: schluterlab
Dark Spectrum Present: Yes
Reference Spectrum Present: Yes
Number of Sampled Component Spectra: 1
Spectrometers: USB2E3373
Integration Time (usec): 3000 (USB2E3373)
Spectra Averaged: 3 (USB2E3373)
Boxcar Smoothing: 0 (USB2E3373)
Correct for Electrical Dark: No (USB2E3373)
Strobe/Lamp Enabled: No (USB2E3373)
Correct for Detector Non-linearity: No (USB2E3373)
Correct for Stray Light: No (USB2E3373)
Number of Pixels in Processed Spectrum: 2048
>>>>>Begin Processed Spectral Data<<<<<
178.53	0.000
178.91	-1325.000
179.29	-1400.000
179.67	-222.222
180.04	-1300.000
180.42	2500.000
180.80	880.000
181.18	-1075.000
181.56	685.714
181.94	0.000
182.31	-714.286
182.69	1533.333
183.07	-650.000
183.45	-577.778
183.83	436.364
184.20	-360.000
184.58	2250.000
184.96	5800.000
185.34	-900.000
185.72	-637.500
186.09	-2500.000
186.47	2800.000
186.85	2050.000
187.23	5300.000
187.61	-1666.667
187.98	1250.000
188.36	463.636
188.74	472.727
189.12	-960.000
189.49	570.000
189.87	-5400.000
190.25	-1275.000
190.63	292.857
191.00	407.692
191.38	800.000
191.76	-1050.000
192.14	1375.000
192.51	800.000
192.89	850.000
193.27	600.000
193.65	-1175.000
194.02	540.000
194.40	1100.000
194.78	520.000
195.15	466.667
195.53	560.000
195.91	-2100.000
196.29	400.000
196.66	342.105
197.04	-370.000
197.42	0.000
197.79	560.000
198.17	-4000.000
198.55	685.714
198.92	637.500
199.30	980.000
199.68	0.000
200.05	322.222
200.43	785.714
200.81	4500.000
201.18	1600.000
201.56	-1400.000
201.94	533.333
202.31	555.556
202.69	375.000
203.07	530.000
203.44	0.000
203.82	1375.000
204.19	785.714
204.57	442.857
204.95	562.500
205.32	1433.333
205.70	518.182
206.08	421.429
206.45	2900.000
206.83	343.750
207.20	866.667
207.58	760.000
207.96	238.889
208.33	687.500
208.71	-850.000
209.08	785.714
209.46	566.667
209.84	527.273
210.21	-1800.000
210.59	1425.000
210.96	-575.000
211.34	2400.000
211.71	590.000
212.09	733.333
212.46	0.000
212.84	1866.667
213.22	1500.000
213.59	-4600.000
213.97	833.333
214.34	757.143
214.72	627.273
215.09	1200.000
215.47	-2800.000
215.84	-2300.000
216.22	1700.000
216.59	414.286
216.97	1050.000
217.34	545.455
217.72	-600.000
218.09	0.000
218.47	-4700.000
218.84	633.333
219.22	885.714
219.59	1766.667
219.97	-600.000
220.34	980.000
220.72	-1633.333
221.09	328.571
221.47	1425.000
221.84	-800.000
222.22	0.000
222.59	1225.000
222.97	-2550.000
223.34	1160.000
223.72	453.846
224.09	1140.000
224.46	1950.000
224.84	-5100.000
225.21	-1220.000
225.59	-4600.000
225.96	570.000
226.34	270.000
226.71	2500.000
227.08	600.000
227.46	580.000
227.83	-1200.000
228.21	-2200.000
228.58	677.778
228.95	-2350.000
229.33	-2300.000
229.70	1666.667
230.08	857.143
230.45	-700.000
230.82	391.667
231.20	866.667
231.57	685.714
231.95	425.000
232.32	272.727
232.69	336.364
233.07	585.714
233.44	376.923
233.81	-1500.000
234.19	284.211
234.56	508.333
234.93	341.667
235.31	518.182
235.68	353.846
236.05	307.143
236.43	157.576
236.80	242.105
237.17	4200.000
237.55	190.476
237.92	189.286
238.29	242.857
238.67	132.258
239.04	224.138
239.41	141.667
239.79	108.696
240.16	111.905
240.53	118.182
240.91	101.961
241.28	124.000
241.65	96.000
242.02	82.609
242.40	87.097
242.77	71.667
243.14	69.892
243.51	76.404
243.89	65.882
244.26	67.778
244.63	50.538
245.00	57.447
245.38	49.505
245.75	52.336
246.12	50.459
246.49	54.015
246.87	49.600
247.24	46.154
247.61	41.429
247.98	44.444
248.36	34.459
248.73	36.306
249.10	36.306
249.47	33.333
249.84	38.503
250.22	36.364
250.59	30.769
250.96	34.848
251.33	36.019
251.70	32.178
252.08	28.095
252.45	27.803
252.82	25.652
253.19	25.106
253.56	28.627
253.94	27.801
254.31	26.562
254.68	26.538
255.05	26.937
255.42	28.049
255.79	25.368
256.16	25.632
256.54	21.555
256.91	24.199
257.28	17.986
257.65	20.792
258.02	20.186
258.39	23.344
258.76	21.739
259.14	25.298
259.51	20.061
259.88	19.255
260.25	23.565
260.62	22.254
260.99	17.081
261.36	20.420
261.73	20.917
262.10	17.442
262.47	17.465
262.85	19.220
263.22	14.815
263.59	20.228
263.96	19.231
264.33	20.104
264.70	17.895
265.07	16.880
265.44	18.687
265.81	16.302
266.18	18.342
266.55	17.073
266.92	18.428
267.29	18.519
267.66	18.807
268.03	19.091
268.40	16.355
268.77	16.468
269.14	18.243
269.51	17.833
269.88	17.483
270.25	17.833
270.62	18.427
270.99	17.419
271.36	17.597
271.73	13.318
272.10	17.826
272.47	16.774
272.84	16.883
273.21	18.449
273.58	15.502
273.95	16.143
274.32	16.322
274.69	15.418
275.06	15.551
275.43	17.021
275.80	14.228
276.17	16.497
276.54	15.800
276.91	16.996
277.28	15.234
277.65	15.474
278.02	14.907
278.39	15.039
278.76	18.000
279.13	16.038
279.50	16.760
279.87	15.139
280.23	14.571
280.60	12.959
280.97	14.787
281.34	15.752
281.71	14.364
282.08	14.971
282.45	12.182
282.82	16.163
283.19	12.656
283.56	14.386
283.92	14.721
284.29	13.933
284.66	13.249
285.03	12.116
285.40	14.261
285.77	13.468
286.14	14.335
286.51	14.333
286.87	14.530
287.24	13.192
287.61	13.804
287.98	14.286
288.35	14.105
288.72	12.617
289.08	14.710
289.45	12.356
289.82	13.333
290.19	12.402
290.56	12.711
290.93	10.725
291.29	13.190
291.66	13.127
292.03	13.953
292.40	14.391
292.77	11.391
293.13	14.179
293.50	14.140
293.87	13.481
294.24	11.556
294.60	12.082
294.97	12.791
295.34	12.130
295.71	12.926
296.08	11.823
296.44	11.417
296.81	10.964
297.18	13.144
297.55	10.422
297.91	11.609
298.28	11.647
298.65	12.402
299.02	11.726
299.38	11.687
299.75	8.491
300.12	11.494
300.48	10.250
300.85	10.974
301.22	10.446
301.59	11.237
301.95	9.824
302.32	11.297
302.69	10.155
303.05	10.061
303.42	11.111
303.79	10.646
304.15	10.606
304.52	9.733
304.89	9.524
305.25	11.021
305.62	10.759
305.99	10.272
306.35	10.626
306.72	9.641
307.09	11.210
307.45	11.261
307.82	9.598
308.19	11.148
308.55	9.924
308.92	10.741
309.29	9.820
309.65	10.286
310.02	9.514
310.38	10.108
310.75	10.348
311.12	10.747
311.48	11.390
311.85	10.482
312.22	9.677
312.58	10.187
312.95	11.932
313.31	9.709
313.68	10.915
314.05	12.821
314.41	11.156
314.78	11.178
315.14	11.817
315.51	11.637
315.87	11.485
316.24	11.817
316.61	11.598
316.97	12.818
317.34	11.448
317.70	12.620
318.07	14.533
318.43	13.699
318.80	14.527
319.16	14.407
319.53	13.039
319.89	15.524
320.26	15.300
320.62	15.972
320.99	16.364
321.35	16.465
321.72	16.530
322.08	17.177
322.45	19.403
322.81	19.186
323.18	19.268
323.54	20.130
323.91	20.094
324.27	19.790
324.64	20.410
325.00	20.830
325.37	22.930
325.73	23.070
326.10	23.654
326.46	23.925
326.83	26.057
327.19	25.619
327.56	25.784
327.92	26.772
328.29	27.773
328.65	27.808
329.01	28.430
329.38	29.695
329.74	29.178
330.11	28.841
330.47	30.579
330.84	30.423
331.20	31.056
331.56	31.651
331.93	31.204
332.29	30.878
332.66	33.363
333.02	32.633
333.38	32.249
333.75	33.066
334.11	33.363
334.48	32.831
334.84	33.456
335.20	32.818
335.57	33.364
335.93	32.411
336.29	32.967
336.66	33.273
337.02	33.484
337.38	33.981
337.75	32.620
338.11	32.587
338.47	34.162
338.84	34.739
339.20	34.037
339.56	34.124
339.93	34.273
340.29	33.152
340.65	33.512
341.02	35.340
341.38	34.075
341.74	34.386
342.11	34.323
342.47	35.066
342.83	33.562
343.20	35.065
343.56	33.109
343.92	33.860
344.28	34.014
344.65	34.394
345.01	33.502
345.37	33.276
345.73	33.587
346.10	33.674
346.46	35.000
346.82	32.867
347.19	32.832
347.55	33.415
347.91	33.414
348.27	34.429
348.63	34.114
349.00	32.929
349.36	34.072
349.72	33.921
350.08	33.387
350.45	33.849
350.81	32.656
351.17	33.225
351.53	33.333
351.89	31.848
352.26	33.386
352.62	32.719
352.98	33.144
353.34	32.375
353.70	31.997
354.07	32.581
354.43	32.302
354.79	32.261
355.15	31.844
355.51	33.493
355.87	33.143
356.24	32.166
356.60	31.115
356.96	33.628
357.32	32.706
357.68	32.520
358.04	32.383
358.40	32.779
358.77	32.942
359.13	32.281
359.49	32.314
359.85	31.667
360.21	32.297
360.57	33.852
360.93	31.846
361.29	32.577
361.66	32.121
362.02	32.687
362.38	31.939
362.74	33.036
363.10	31.088
363.46	31.401
363.82	31.444
364.18	32.085
364.54	31.426
364.90	31.941
365.26	33.824
365.62	31.921
365.98	31.410
366.35	30.874
366.71	30.803
367.07	32.629
367.43	32.874
367.79	32.548
368.15	32.759
368.51	31.395
368.87	31.620
369.23	32.626
369.59	32.657
369.95	30.956
370.31	32.194
370.67	31.377
371.03	32.509
371.39	32.580
371.75	32.279
372.11	31.579
372.47	31.525
372.83	33.141
373.19	31.864
373.55	32.373
373.91	32.990
374.27	31.615
374.63	31.855
374.99	31.568
375.35	31.612
375.71	31.666
376.07	31.276
376.42	31.499
376.78	32.140
377.14	31.750
377.50	31.589
377.86	31.051
378.22	31.542
378.58	31.579
378.94	31.050
379.30	31.552
379.66	31.853
380.02	32.248
380.38	30.480
380.74	31.993
381.09	31.785
381.45	32.760
381.81	31.204
382.17	32.739
382.53	32.013
382.89	32.407
383.25	31.520
383.61	33.519
383.97	32.458
384.32	31.503
384.68	30.235
385.04	31.346
385.40	30.960
385.76	31.450
386.12	31.995
386.48	32.977
386.83	33.162
387.19	32.715
387.55	31.045
387.91	31.620
388.27	30.595
388.62	32.145
388.98	31.388
389.34	32.603
389.70	31.269
390.06	33.460
390.42	32.296
390.77	31.807
391.13	31.270
391.49	32.868
391.85	31.318
392.20	31.420
392.56	30.934
392.92	30.783
393.28	31.775
393.64	31.415
393.99	30.971
394.35	30.707
394.71	30.991
395.07	31.215
395.42	32.138
395.78	31.425
396.14	30.975
396.50	31.830
396.85	32.168
397.21	30.210
397.57	30.750
397.92	31.731
398.28	30.998
398.64	31.123
399.00	30.610
399.35	29.554
399.71	30.382
400.07	30.869
400.42	31.227
400.78	30.820
401.14	31.524
401.49	31.045
401.85	30.672
402.21	30.240
402.57	30.969
402.92	30.643
403.28	31.230
403.63	30.879
403.99	30.955
404.35	30.909
404.70	30.635
405.06	29.936
405.42	31.441
405.77	29.771
406.13	30.418
406.49	30.455
406.84	30.124
407.20	29.551
407.55	30.121
407.91	30.267
408.27	30.887
408.62	30.945
408.98	29.718
409.34	30.566
409.69	30.129
410.05	30.483
410.40	30.826
410.76	30.287
411.11	29.554
411.47	30.288
411.83	29.994
412.18	29.994
412.54	30.697
412.89	30.241
413.25	31.169
413.60	30.389
413.96	29.326
414.31	30.255
414.67	30.672
415.03	30.464
415.38	29.510
415.74	30.225
416.09	30.764
416.45	30.054
416.80	30.469
417.16	30.027
417.51	29.330
417.87	29.737
418.22	30.284
418.58	30.407
418.93	30.283
419.29	30.172
419.64	30.542
420.00	30.122
420.35	29.739
420.71	29.289
421.06	29.177
421.42	30.702
421.77	30.269
422.12	29.197
422.48	28.494
422.83	29.412
423.19	29.006
423.54	30.064
423.90	29.913
424.25	29.816
424.61	29.345
424.96	29.271
425.31	29.568
425.67	29.326
426.02	28.171
426.38	29.487
426.73	28.613
427.09	30.030
427.44	29.557
427.79	29.902
428.15	30.119
428.50	30.193
428.85	30.453
429.21	28.327
429.56	30.327
429.92	29.542
430.27	29.047
430.62	28.981
430.98	29.268
431.33	29.072
431.68	29.529
432.04	29.020
432.39	29.754
432.74	29.264
433.10	29.202
433.45	29.796
433.80	29.157
434.16	29.434
434.51	29.737
434.86	29.761
435.22	29.405
435.57	29.483
435.92	29.725
436.28	29.953
436.63	29.470
436.98	29.880
437.34	30.471
437.69	30.338
438.04	29.399
438.39	29.313
438.75	29.518
439.10	29.609
439.45	30.460
439.81	30.453
440.16	29.418
440.51	29.643
440.86	30.168
441.22	28.643
441.57	29.724
441.92	28.659
442.27	29.602
442.63	29.489
442.98	29.859
443.33	29.565
443.68	29.169
444.03	28.941
444.39	28.773
444.74	30.736
445.09	29.542
445.44	30.016
445.79	28.946
446.15	29.063
446.50	29.618
446.85	29.908
447.20	29.373
447.55	29.704
447.91	30.281
448.26	29.772
448.61	30.639
448.96	30.288
449.31	30.540
449.66	29.713
450.02	29.916
450.37	29.535
450.72	30.175
451.07	29.311
451.42	29.909
451.77	29.654
452.12	30.023
452.47	29.789
452.83	30.653
453.18	30.196
453.53	30.056
453.88	30.065
454.23	29.827
454.58	30.224
454.93	31.214
455.28	29.426
455.63	30.886
455.98	30.357
456.34	29.962
456.69	31.434
457.04	31.146
457.39	29.982
457.74	30.702
458.09	30.822
458.44	30.787
458.79	28.579
459.14	30.135
459.49	29.772
459.84	30.083
460.19	29.405
460.54	30.440
460.89	29.676
461.24	31.026
461.59	31.377
461.94	30.456
462.29	30.801
462.64	29.547
462.99	30.319
463.34	31.133
463.69	30.394
464.04	30.435
464.39	29.797
464.74	29.887
465.09	29.192
465.44	29.972
465.79	29.810
466.14	29.009
466.49	29.310
466.84	29.947
467.19	30.416
467.54	31.062
467.89	30.432
468.24	29.901
468.59	30.525
468.94	30.238
469.29	30.977
469.64	31.258
469.99	30.650
470.34	30.317
470.68	31.106
471.03	31.020
471.38	31.480
471.73	30.779
472.08	31.908
472.43	30.779
472.78	31.073
473.13	29.974
473.48	30.212
473.83	31.159
474.17	29.434
474.52	30.707
474.87	29.772
475.22	30.412
475.57	30.199
475.92	30.271
476.27	29.651
476.61	30.006
476.96	30.126
477.31	30.246
477.66	30.142
478.01	29.796
478.36	30.407
478.70	29.024
479.05	29.659
479.40	29.785
479.75	29.334
480.10	28.827
480.45	29.748
480.79	28.810
481.14	29.941
481.49	29.995
481.84	29.538
482.19	30.123
482.53	28.991
482.88	29.828
483.23	29.252
483.58	29.481
483.92	29.991
484.27	28.105
484.62	28.017
484.97	28.656
485.31	28.425
485.66	26.868
486.01	26.382
486.36	25.556
486.70	25.714
487.05	26.861
487.40	26.813
487.75	27.574
488.09	28.541
488.44	27.852
488.79	28.969
489.13	29.221
489.48	29.038
489.83	29.866
490.17	30.644
490.52	29.982
490.87	28.810
491.22	30.059
491.56	28.155
491.91	29.781
492.26	28.985
492.60	29.447
492.95	28.906
493.30	28.925
493.64	28.978
493.99	29.294
494.34	29.741
494.68	29.212
495.03	30.169
495.37	29.595
495.72	29.386
496.07	29.234
496.41	28.319
496.76	29.112
497.11	29.356
497.45	29.064
497.80	29.846
498.14	29.082
498.49	30.000
498.84	29.003
499.18	28.905
499.53	28.917
499.87	30.149
500.22	28.780
500.56	29.757
500.91	28.750
501.26	29.066
501.60	29.426
501.95	28.323
502.29	29.709
502.64	28.957
502.98	28.565
503.33	28.702
503.67	27.935
504.02	28.531
504.36	29.574
504.71	28.823
505.06	28.819
505.40	29.655
505.75	28.930
506.09	29.009
506.44	28.416
506.78	29.420
507.13	29.581
507.47	29.747
507.82	29.686
508.16	29.433
508.51	29.731
508.85	28.749
509.19	29.082
509.54	29.235
509.88	28.954
510.23	29.100
510.57	30.341
510.92	29.052
511.26	29.496
511.61	29.564
511.95	28.549
512.30	29.533
512.64	29.017
512.98	29.796
513.33	30.460
513.67	28.869
514.02	29.275
514.36	30.748
514.70	28.888
515.05	28.723
515.39	30.342
515.74	29.673
516.08	29.793
516.42	30.189
516.77	30.100
517.11	29.190
517.46	30.248
517.80	30.836
518.14	29.763
518.49	30.572
518.83	30.000
519.17	29.619
519.52	29.428
519.86	30.576
520.20	29.942
520.55	29.982
520.89	30.961
521.23	30.639
521.58	30.072
521.92	30.006
522.26	29.286
522.61	31.153
522.95	29.834
523.29	29.397
523.64	30.671
523.98	30.314
524.32	30.881
524.66	29.044
525.01	30.147
525.35	29.616
525.69	29.680
526.04	30.031
526.38	29.652
526.72	29.816
527.06	30.760
527.41	29.208
527.75	31.576
528.09	30.636
528.43	30.210
528.78	30.547
529.12	29.576
529.46	30.680
529.80	30.322
530.15	29.907
530.49	28.677
530.83	30.506
531.17	31.332
531.51	30.480
531.86	30.516
532.20	29.531
532.54	30.301
532.88	29.718
533.22	29.419
533.57	29.691
533.91	28.778
534.25	29.040
534.59	29.591
534.93	29.328
535.27	30.115
535.62	29.548
535.96	30.132
536.30	29.625
536.64	30.586
536.98	29.595
537.32	29.427
537.66	30.933
538.01	29.691
538.35	29.282
538.69	29.866
539.03	28.980
539.37	28.882
539.71	27.933
540.05	29.281
540.39	30.498
540.73	29.495
541.07	29.981
541.42	30.267
541.76	29.935
542.10	29.366
542.44	30.596
542.78	30.501
543.12	28.279
543.46	30.689
543.80	29.668
544.14	28.434
544.48	29.460
544.82	30.148
545.16	30.124
545.50	29.434
545.84	29.167
546.18	30.572
546.52	30.007
546.86	30.103
547.20	29.872
547.54	29.125
547.88	30.485
548.22	28.082
548.56	28.742
548.90	28.937
549.24	28.754
549.58	30.286
549.92	29.464
550.26	30.469
550.60	30.014
550.94	29.577
551.28	29.700
551.62	30.338
551.96	30.035
552.30	29.420
552.64	29.277
552.98	29.085
553.32	29.063
553.66	30.061
554.00	29.101
554.34	28.364
554.68	29.256
555.02	29.760
555.36	29.158
555.69	27.673
556.03	28.129
556.37	28.445
556.71	28.308
557.05	29.272
557.39	28.551
557.73	30.275
558.07	28.571
558.41	29.378
558.75	29.170
559.08	29.828
559.42	29.932
559.76	29.853
560.10	29.408
560.44	27.952
560.78	28.476
561.12	28.298
561.45	29.270
561.79	27.818
562.13	28.840
562.47	29.303
562.81	28.801
563.15	27.960
563.48	28.249
563.82	27.528
564.16	28.254
564.50	27.930
564.84	28.129
565.17	27.606
565.51	27.796
565.85	28.617
566.19	27.239
566.52	27.612
566.86	27.486
567.20	27.535
567.54	27.568
567.88	26.616
568.21	26.931
568.55	26.997
568.89	26.508
569.23	25.847
569.56	24.899
569.90	24.642
570.24	24.937
570.57	24.447
570.91	23.626
571.25	24.027
571.59	23.976
571.92	23.934
572.26	23.830
572.60	24.324
572.93	23.628
573.27	24.164
573.61	23.618
573.95	23.773
574.28	23.317
574.62	23.324
574.96	22.796
575.29	23.181
575.63	22.942
575.97	23.327
576.30	23.420
576.64	22.795
576.98	23.043
577.31	23.013
577.65	23.062
577.98	22.376
578.32	22.160
578.66	22.453
578.99	22.963
579.33	22.440
579.67	22.549
580.00	23.016
580.34	22.829
580.67	22.926
581.01	23.162
581.35	22.234
581.68	22.020
582.02	22.144
582.35	21.989
582.69	22.399
583.02	22.724
583.36	23.403
583.70	23.052
584.03	23.328
584.37	23.900
584.70	23.119
585.04	23.068
585.37	22.647
585.71	22.674
586.04	22.566
586.38	23.511
586.72	23.419
587.05	22.766
587.39	22.559
587.72	22.726
588.06	23.372
588.39	22.771
588.73	23.145
589.06	23.964
589.40	24.007
589.73	23.583
590.07	23.452
590.40	23.420
590.73	24.434
591.07	24.339
591.40	24.209
591.74	24.675
592.07	23.909
592.41	24.225
592.74	23.970
593.08	22.985
593.41	23.252
593.75	22.299
594.08	23.265
594.41	23.507
594.75	23.475
595.08	23.372
595.42	23.818
595.75	23.433
596.09	23.845
596.42	24.244
596.75	23.470
597.09	24.892
597.42	23.145
597.75	24.364
598.09	23.826
598.42	24.184
598.76	23.024
599.09	22.653
599.42	22.744
599.76	23.609
600.09	22.805
600.42	22.790
600.76	22.750
601.09	22.842
601.42	23.440
601.76	23.605
602.09	23.478
602.42	23.567
602.76	24.023
603.09	23.800
603.42	23.780
603.76	23.285
604.09	23.304
604.42	23.522
604.76	24.420
605.09	23.416
605.42	23.215
605.75	23.675
606.09	22.936
606.42	22.926
606.75	23.310
607.09	24.027
607.42	22.978
607.75	22.827
608.08	22.927
608.42	23.667
608.75	22.904
609.08	22.895
609.41	23.655
609.75	23.726
610.08	24.128
610.41	22.998
610.74	22.895
611.07	24.259
611.41	23.798
611.74	25.490
612.07	24.689
612.40	25.446
612.73	24.211
613.07	25.216
613.40	24.223
613.73	23.807
614.06	24.032
614.39	23.492
614.72	24.526
615.06	23.687
615.39	22.558
615.72	23.057
616.05	24.083
616.38	24.013
616.71	24.881
617.05	24.676
617.38	24.534
617.71	23.904
618.04	24.579
618.37	24.719
618.70	25.078
619.03	26.053
619.36	26.544
619.69	26.761
620.03	25.481
620.36	25.735
620.69	26.027
621.02	25.959
621.35	25.215
621.68	26.246
622.01	25.464
622.34	25.492
622.67	25.475
623.00	25.238
623.33	24.875
623.66	25.089
623.99	25.773
624.32	25.678
624.65	24.718
624.99	24.858
625.32	25.851
625.65	25.470
625.98	25.980
626.31	26.205
626.64	25.878
626.97	26.850
627.30	25.769
627.63	25.759
627.96	27.166
628.29	26.947
628.62	26.349
628.95	27.358
629.28	27.372
629.61	28.231
629.94	26.190
630.26	26.406
630.59	28.313
630.92	28.257
631.25	26.259
631.58	27.628
631.91	27.282
632.24	28.797
632.57	27.492
632.90	27.522
633.23	28.635
633.56	29.492
633.89	28.086
634.22	28.944
634.55	29.586
634.88	27.784
635.20	29.510
635.53	29.157
635.86	30.074
636.19	27.765
636.52	29.066
636.85	28.064
637.18	27.304
637.51	29.669
637.83	26.757
638.16	29.540
638.49	29.471
638.82	28.571
639.15	29.375
639.48	29.551
639.81	29.893
640.13	28.906
640.46	31.409
640.79	29.458
641.12	29.161
641.45	30.168
641.77	30.486
642.10	33.041
642.43	30.931
642.76	28.793
643.09	30.982
643.41	31.411
643.74	32.716
644.07	30.030
644.40	30.828
644.73	32.441
645.05	31.379
645.38	30.964
645.71	32.850
646.04	29.900
646.36	32.387
646.69	32.441
647.02	32.483
647.35	32.131
647.67	33.274
648.00	32.846
648.33	29.538
648.66	29.848
648.98	30.135
649.31	27.952
649.64	28.700
649.96	28.912
650.29	31.122
650.62	30.259
650.94	30.470
651.27	32.770
651.60	31.614
651.92	32.268
652.25	28.827
652.58	30.841
652.90	31.754
653.23	26.656
653.56	28.976
653.88	30.269
654.21	30.332
654.54	31.023
654.86	29.907
655.19	25.946
655.52	18.948
655.84	15.113
656.17	19.343
656.49	26.754
656.82	27.932
657.15	21.277
657.47	16.115
657.80	12.240
658.13	13.074
658.45	19.757
658.78	19.789
659.10	21.036
659.43	22.260
659.75	22.733
660.08	25.506
660.41	27.467
660.73	29.733
661.06	30.255
661.38	31.455
661.71	31.346
662.03	32.150
662.36	31.809
662.68	31.928
663.01	36.162
663.33	33.121
663.66	32.773
663.98	30.022
664.31	32.773
664.63	30.567
664.96	29.376
665.28	31.352
665.61	31.189
665.93	32.394
666.26	34.888
666.58	32.845
666.91	32.770
667.23	34.157
667.56	31.749
667.88	32.051
668.21	31.343
668.53	31.020
668.86	34.632
669.18	33.262
669.50	34.783
669.83	33.551
670.15	33.778
670.48	29.630
670.80	32.112
671.13	34.183
671.45	32.766
671.77	32.383
672.10	31.608
672.42	29.682
672.75	29.353
673.07	29.049
673.39	30.018
673.72	31.055
674.04	29.412
674.37	31.456
674.69	30.470
675.01	30.335
675.34	34.292
675.66	34.526
675.98	32.587
676.31	32.983
676.63	31.847
676.95	29.979
677.28	32.477
677.60	32.308
677.92	34.177
678.25	32.033
678.57	30.876
678.89	30.261
679.22	29.666
679.54	29.962
679.86	30.459
680.18	27.013
680.51	29.255
680.83	27.758
681.15	30.377
681.48	32.325
681.80	28.820
682.12	30.268
682.44	28.820
682.77	32.383
683.09	32.618
683.41	32.151
683.73	31.788
684.06	31.818
684.38	31.703
684.70	29.845
685.02	30.582
685.34	28.755
685.67	27.098
685.99	27.148
686.31	25.085
686.63	24.912
686.96	27.321
687.28	29.964
687.60	26.812
687.92	29.799
688.24	29.658
688.56	29.317
688.89	28.631
689.21	32.096
689.53	29.228
689.85	31.707
690.17	28.364
690.49	32.909
690.82	33.178
691.14	29.018
691.46	28.270
691.78	30.120
692.10	30.992
692.42	30.140
692.74	29.461
693.06	32.128
693.39	29.158
693.71	30.568
694.03	29.684
694.35	30.519
694.67	28.833
694.99	34.634
695.31	29.902
695.63	31.579
695.95	33.007
696.27	32.487
696.59	34.974
696.91	32.642
697.23	28.638
697.56	31.770
697.88	27.812
698.20	28.542
698.52	28.817
698.84	30.735
699.16	29.493
699.48	31.829
699.80	29.952
700.12	36.364
700.44	34.483
700.76	32.597
701.08	30.460
701.40	34.358
701.72	35.277
702.04	35.227
702.36	33.144
702.68	32.011
703.00	34.072
703.32	30.319
703.64	32.976
703.96	36.212
704.28	32.849
704.60	35.777
704.91	35.905
705.23	32.551
705.55	40.199
705.87	38.538
706.19	31.802
706.51	35.514
706.83	33.333
707.15	34.174
707.47	31.818
707.79	31.941
708.11	29.452
708.43	31.905
708.74	28.316
709.06	32.987
709.38	35.696
709.70	35.174
710.02	35.905
710.34	32.424
710.66	33.731
710.98	32.386
711.29	34.012
711.61	37.463
711.93	34.295
712.25	37.621
712.57	36.397
712.89	37.370
713.20	35.258
713.52	37.829
713.84	32.911
714.16	33.232
714.48	31.897
714.80	37.082
715.11	33.141
715.43	33.531
715.75	32.754
716.07	34.824
716.39	33.542
716.70	36.545
717.02	38.129
717.34	34.629
717.66	39.552
717.97	40.637
718.29	33.704
718.61	34.307
718.93	36.765
719.24	31.834
719.56	32.881
719.88	34.915
720.20	36.149
720.51	38.328
720.83	35.688
721.15	37.313
721.46	35.816
721.78	34.767
722.10	36.604
722.42	37.970
722.73	37.079
723.05	38.115
723.37	38.057
723.68	38.610
724.00	38.618
724.32	39.516
724.63	36.992
724.95	38.912
725.27	39.271
725.58	35.937
725.90	41.971
726.22	34.340
726.53	34.722
726.85	37.543
727.16	37.367
727.48	32.979
727.80	37.500
728.11	35.870
728.43	40.000
728.74	31.900
729.06	37.226
729.38	40.074
729.69	35.943
730.01	31.741
730.32	32.639
730.64	36.789
730.96	31.023
731.27	37.417
731.59	33.028
731.90	28.863
732.22	31.366
732.53	28.173
732.85	32.692
733.16	30.868
733.48	33.555
733.80	31.494
734.11	32.166
734.43	34.615
734.74	28.571
735.06	30.086
735.37	37.283
735.69	30.573
736.00	32.680
736.32	35.514
736.63	32.268
736.95	34.185
737.26	28.231
737.58	30.968
737.89	32.776
738.21	35.154
738.52	28.571
738.83	36.226
739.15	38.077
739.46	35.401
739.78	31.250
740.09	37.231
740.41	37.419
740.72	33.449
741.04	34.074
741.35	35.000
741.66	40.889
741.98	32.547
742.29	44.976
742.61	45.690
742.92	37.104
743.23	39.744
743.55	42.400
743.86	36.842
744.18	40.708
744.49	38.278
744.80	42.723
745.12	46.364
745.43	41.410
745.74	41.892
746.06	39.450
746.37	40.807
746.68	41.629
747.00	42.593
747.31	41.905
747.62	37.168
747.94	35.242
748.25	40.851
748.56	40.529
748.88	38.614
749.19	40.000
749.50	37.209
749.82	35.772
750.13	31.429
750.44	34.307
750.75	34.035
751.07	36.334
751.38	37.631
751.69	32.852
752.01	36.842
752.32	34.657
752.63	34.397
752.94	34.836
753.26	38.000
753.57	34.146
753.88	37.891
754.19	33.571
754.51	37.153
754.82	32.852
755.13	30.189
755.44	36.842
755.75	33.942
756.07	32.624
756.38	31.752
756.69	34.899
757.00	29.940
757.31	29.970
757.63	29.240
757.94	26.273
758.25	30.392
758.56	26.667
758.87	27.419
759.18	33.333
759.50	32.602
759.81	29.283
760.12	27.187
760.43	30.372
760.74	27.174
761.05	30.226
761.36	26.203
761.67	32.955
761.99	30.124
762.30	35.069
762.61	33.969
762.92	38.672
763.23	36.134
763.54	40.000
763.85	31.641
764.16	38.846
764.47	31.559
764.78	37.102
765.10	25.316
765.41	31.268
765.72	26.347
766.03	29.467
766.34	31.333
766.65	32.766
766.96	38.034
767.27	41.624
767.58	46.875
767.89	43.684
768.20	47.701
768.51	43.147
768.82	38.532
769.13	34.959
769.44	33.603
769.75	36.052
770.06	35.780
770.37	42.986
770.68	43.519
770.99	38.667
771.30	30.328
771.61	37.668
771.92	36.475
772.23	39.496
772.54	40.000
772.85	41.885
773.16	43.085
773.47	44.022
773.78	46.701
774.09	39.286
774.39	49.123
774.70	45.062
775.01	54.348
775.32	55.556
775.63	50.000
775.94	51.079
776.25	61.417
776.56	54.478
776.87	57.377
777.18	60.156
777.48	60.305
777.79	53.030
778.10	53.333
778.41	53.571
778.72	51.825
779.03	51.007
779.34	51.007
779.65	50.000
779.95	39.877
780.26	43.791
780.57	53.103
780.88	54.688
781.19	50.376
781.50	52.703
781.80	49.057
782.11	38.983
782.42	48.101
782.73	38.037
783.04	45.270
783.34	59.859
783.65	52.055
783.96	47.761
784.27	43.357
784.57	48.201
784.88	48.148
785.19	67.460
785.50	60.377
785.81	58.955
786.11	56.557
786.42	60.465
786.73	59.292
787.04	56.604
787.34	57.143
787.65	61.000
787.96	56.757
788.26	55.372
788.57	65.254
788.88	60.331
789.19	53.472
789.49	58.333
789.80	57.252
790.11	71.429
790.41	69.307
790.72	71.084
791.03	68.478
791.33	72.093
791.64	62.887
791.95	70.297
792.25	78.889
792.56	89.610
792.87	82.051
793.17	81.013
793.48	73.563
793.79	66.667
794.09	67.045
794.40	58.824
794.70	61.765
795.01	45.926
795.32	53.237
795.62	56.693
795.93	54.310
796.23	59.292
796.54	77.647
796.85	59.459
797.15	91.549
797.46	74.242
797.76	77.108
798.07	78.481
798.37	75.385
798.68	90.909
798.99	76.056
799.29	80.519
799.60	73.864
799.90	91.781
800.21	95.522
800.51	94.828
800.82	100.000
801.12	93.443
801.43	103.030
801.73	75.676
802.04	96.825
802.34	80.247
802.65	75.000
802.95	111.864
803.26	92.188
803.56	81.429
803.87	90.769
804.17	86.765
804.48	100.000
804.78	81.034
805.09	85.294
805.39	98.077
805.70	114.286
806.00	106.557
806.30	86.364
806.61	71.951
806.91	67.089
807.22	76.316
807.52	79.104
807.83	88.732
808.13	93.750
808.43	98.333
808.74	71.053
809.04	86.957
809.35	102.985
809.65	90.789
809.95	114.516
810.26	93.220
810.56	96.825
810.86	143.182
811.17	150.000
811.47	103.333
811.77	120.370
812.08	112.727
812.38	140.000
812.69	163.889
812.99	145.455
813.29	114.286
813.59	119.048
813.90	134.694
814.20	90.909
814.50	78.462
814.81	92.647
815.11	120.408
815.41	86.885
815.72	133.333
816.02	105.455
816.32	140.476
816.62	117.500
816.93	139.024
817.23	142.857
817.53	131.818
817.84	142.424
818.14	147.826
818.44	124.444
818.74	179.412
819.04	135.000
819.35	140.000
819.65	167.647
819.95	196.429
820.25	265.000
820.56	158.974
820.86	127.273
821.16	146.512
821.46	146.154
821.76	136.000
822.07	165.714
822.37	135.000
822.67	190.909
822.97	103.922
823.27	192.857
823.57	151.351
823.88	167.500
824.18	213.333
824.48	135.714
824.78	192.000
825.08	195.833
825.38	135.135
825.69	141.463
825.99	216.667
826.29	175.862
826.59	178.947
826.89	144.737
827.19	179.412
827.49	200.000
827.79	138.636
828.09	136.364
828.39	125.532
828.70	122.449
829.00	218.519
829.30	187.097
829.60	147.500
829.90	253.333
830.20	214.286
830.50	182.609
830.80	191.304
831.10	196.667
831.40	170.000
831.70	186.957
832.00	223.077
832.30	174.074
832.60	362.500
832.90	226.667
833.20	350.000
833.50	183.871
833.80	224.138
834.10	168.750
834.40	203.846
834.70	305.556
835.00	280.952
835.30	145.714
835.60	323.077
835.90	189.655
836.20	307.143
836.50	227.586
836.80	172.000
837.10	194.444
837.40	276.190
837.70	300.000
838.00	211.111
838.30	233.333
838.60	276.190
838.90	223.077
839.19	275.000
839.49	478.571
839.79	310.000
840.09	225.000
840.39	209.524
840.69	282.609
840.99	272.222
841.29	490.000
841.59	375.000
841.88	350.000
842.18	186.207
842.48	223.810
842.78	180.000
843.08	230.435
843.38	196.875
843.68	1133.333
843.97	223.077
844.27	227.586
844.57	300.000
844.87	412.500
845.17	222.222
845.47	1533.333
845.76	455.556
846.06	288.235
846.36	500.000
846.66	392.857
846.96	337.500
847.25	400.000
847.55	509.091
847.85	252.174
848.15	430.000
848.44	364.286
848.74	255.556
849.04	270.588
849.34	470.000
849.63	257.895
849.93	445.455
850.23	1100.000
850.53	414.286
850.82	2250.000
851.12	-4700.000
851.42	4700.000
851.71	285.000
852.01	-1233.333
852.31	212.500
852.61	1900.000
852.90	290.476
853.20	260.000
853.50	282.353
853.79	238.095
854.09	216.667
854.39	300.000
854.68	183.784
854.98	206.452
855.28	180.000
855.57	182.759
855.87	196.296
856.17	221.053
856.46	326.667
856.76	229.412
857.05	179.310
857.35	212.500
857.65	340.000
857.94	260.870
858.24	250.000
858.53	250.000
858.83	245.455
859.13	346.667
859.42	0.000
859.72	522.222
860.01	418.182
860.31	213.636
860.60	294.737
860.90	230.435
861.20	555.556
861.49	508.333
861.79	-4200.000
862.08	600.000
862.38	266.667
862.67	384.615
862.97	341.176
863.26	600.000
863.56	338.889
863.85	425.000
864.15	612.500
864.44	380.000
864.74	816.667
865.03	787.500
865.33	294.737
865.62	509.091
865.92	453.846
866.21	325.000
866.51	0.000
866.80	445.455
867.10	960.000
867.39	392.308
867.69	436.364
867.98	289.474
868.27	418.182
868.57	310.526
868.86	-4800.000
869.16	375.000
869.45	1900.000
869.75	-4200.000
870.04	433.333
870.33	857.143
870.63	1150.000
870.92	2750.000
871.22	728.571
871.51	329.412
871.80	195.238
872.10	428.571
>>>>>End Processed Spectral Data<<<<<
