SpectraSuite Data File
++++++++++++++++++++++++++++++++++++
Date: Wed May 13 19:44:46 PDT 2015
User: schluterlab
Dark Spectrum Present: Yes
Reference Spectrum Present: Yes
Number of Sampled Component Spectra: 1
Spectrometers: USB2E3373
Integration Time (usec): 3000 (USB2E3373)
Spectra Averaged: 3 (USB2E3373)
Boxcar Smoothing: 0 (USB2E3373)
Correct for Electrical Dark: No (USB2E3373)
Strobe/Lamp Enabled: No (USB2E3373)
Correct for Detector Non-linearity: No (USB2E3373)
Correct for Stray Light: No (USB2E3373)
Number of Pixels in Processed Spectrum: 2048
>>>>>Begin Processed Spectral Data<<<<<
178.53	0.000
178.91	-1275.000
179.29	-1250.000
179.67	-183.333
180.04	-1375.000
180.42	2150.000
180.80	1100.000
181.18	-1125.000
181.56	614.286
181.94	0.000
182.31	-685.714
182.69	1800.000
183.07	-550.000
183.45	-477.778
183.83	490.909
184.20	-430.000
184.58	1950.000
184.96	5000.000
185.34	-840.000
185.72	-562.500
186.09	-2650.000
186.47	2200.000
186.85	2350.000
187.23	4200.000
187.61	-1433.333
187.98	1425.000
188.36	436.364
188.74	536.364
189.12	-840.000
189.49	510.000
189.87	-4400.000
190.25	-1125.000
190.63	421.429
191.00	400.000
191.38	700.000
191.76	-1175.000
192.14	1150.000
192.51	725.000
192.89	1000.000
193.27	650.000
193.65	-1300.000
194.02	460.000
194.40	1040.000
194.78	580.000
195.15	458.333
195.53	640.000
195.91	-2050.000
196.29	362.500
196.66	257.895
197.04	-340.000
197.42	0.000
197.79	650.000
198.17	-4500.000
198.55	771.429
198.92	725.000
199.30	1000.000
199.68	0.000
200.05	355.556
200.43	785.714
200.81	3600.000
201.18	1533.333
201.56	-1600.000
201.94	466.667
202.31	511.111
202.69	433.333
203.07	650.000
203.44	0.000
203.82	1225.000
204.19	757.143
204.57	378.571
204.95	687.500
205.32	1900.000
205.70	536.364
206.08	335.714
206.45	2750.000
206.83	350.000
207.20	816.667
207.58	860.000
207.96	327.778
208.33	712.500
208.71	-850.000
209.08	700.000
209.46	488.889
209.84	472.727
210.21	-1433.333
210.59	1350.000
210.96	-425.000
211.34	2800.000
211.71	660.000
212.09	683.333
212.46	0.000
212.84	1700.000
213.22	1225.000
213.59	-4500.000
213.97	983.333
214.34	742.857
214.72	518.182
215.09	1160.000
215.47	-2350.000
215.84	-2350.000
216.22	1533.333
216.59	428.571
216.97	1250.000
217.34	500.000
217.72	-750.000
218.09	0.000
218.47	-4800.000
218.84	633.333
219.22	771.429
219.59	1466.667
219.97	-585.714
220.34	720.000
220.72	-1400.000
221.09	421.429
221.47	1300.000
221.84	-783.333
222.22	0.000
222.59	1350.000
222.97	-2600.000
223.34	1020.000
223.72	430.769
224.09	1200.000
224.46	2600.000
224.84	-5200.000
225.21	-1060.000
225.59	-4900.000
225.96	660.000
226.34	295.000
226.71	2500.000
227.08	712.500
227.46	540.000
227.83	-925.000
228.21	-2850.000
228.58	566.667
228.95	-2150.000
229.33	-2800.000
229.70	1600.000
230.08	728.571
230.45	-980.000
230.82	483.333
231.20	900.000
231.57	671.429
231.95	408.333
232.32	213.636
232.69	418.182
233.07	742.857
233.44	284.615
233.81	-1266.667
234.19	273.684
234.56	366.667
234.93	358.333
235.31	463.636
235.68	330.769
236.05	307.143
236.43	157.576
236.80	236.842
237.17	4500.000
237.55	247.619
237.92	178.571
238.29	247.619
238.67	154.839
239.04	210.345
239.41	130.556
239.79	119.565
240.16	107.143
240.53	84.091
240.91	82.353
241.28	108.000
241.65	100.000
242.02	81.159
242.40	75.806
242.77	73.333
243.14	59.140
243.51	67.416
243.89	52.941
244.26	53.333
244.63	51.613
245.00	51.064
245.38	46.535
245.75	48.598
246.12	44.954
246.49	48.905
246.87	51.200
247.24	37.692
247.61	42.143
247.98	43.791
248.36	29.730
248.73	33.758
249.10	32.484
249.47	32.203
249.84	33.155
250.22	25.134
250.59	26.627
250.96	26.768
251.33	27.962
251.70	27.723
252.08	26.190
252.45	22.870
252.82	22.174
253.19	25.106
253.56	26.275
253.94	22.822
254.31	23.437
254.68	23.077
255.05	18.081
255.42	15.854
255.79	18.750
256.16	21.661
256.54	16.608
256.91	19.217
257.28	18.345
257.65	17.162
258.02	17.391
258.39	17.981
258.76	17.726
259.14	18.750
259.51	12.766
259.88	14.907
260.25	17.523
260.62	18.786
260.99	14.596
261.36	16.817
261.73	14.900
262.10	15.407
262.47	14.930
262.85	15.599
263.22	13.390
263.59	15.385
263.96	15.110
264.33	16.188
264.70	13.421
265.07	14.322
265.44	14.899
265.81	14.599
266.18	14.070
266.55	13.902
266.92	14.496
267.29	12.500
267.66	13.073
268.03	13.409
268.40	12.850
268.77	9.308
269.14	15.315
269.51	15.801
269.88	13.520
270.25	13.093
270.62	11.461
270.99	14.409
271.36	12.446
271.73	8.879
272.10	11.739
272.47	12.258
272.84	11.255
273.21	13.627
273.58	10.262
273.95	10.901
274.32	11.157
274.69	13.490
275.06	12.008
275.43	12.766
275.80	11.824
276.17	11.609
276.54	12.682
276.91	11.067
277.28	11.133
277.65	11.219
278.02	10.559
278.39	12.695
278.76	10.727
279.13	12.264
279.50	13.780
279.87	10.956
280.23	10.579
280.60	9.478
280.97	9.612
281.34	10.796
281.71	10.727
282.08	11.708
282.45	8.909
282.82	11.012
283.19	9.804
283.56	10.175
283.92	13.198
284.29	10.229
284.66	9.256
285.03	9.403
285.40	8.627
285.77	9.428
286.14	7.945
286.51	8.833
286.87	11.282
287.24	10.586
287.61	9.791
287.98	10.390
288.35	8.875
288.72	10.436
289.08	11.111
289.45	9.226
289.82	10.732
290.19	8.948
290.56	9.954
290.93	8.006
291.29	6.595
291.66	10.177
292.03	9.738
292.40	9.838
292.77	8.580
293.13	8.358
293.50	9.184
293.87	8.296
294.24	8.000
294.60	7.569
294.97	9.157
295.34	9.732
295.71	8.665
296.08	8.832
296.44	8.666
296.81	8.719
297.18	9.621
297.55	6.332
297.91	8.311
298.28	8.969
298.65	8.486
299.02	8.037
299.38	8.499
299.75	6.334
300.12	7.152
300.48	8.000
300.85	7.152
301.22	7.134
301.59	6.566
301.95	6.927
302.32	7.189
302.69	8.363
303.05	6.909
303.42	6.049
303.79	8.607
304.15	7.459
304.52	7.184
304.89	6.969
305.25	7.425
305.62	8.720
305.99	7.556
306.35	8.389
306.72	8.072
307.09	7.436
307.45	8.671
307.82	6.138
308.19	7.064
308.55	7.983
308.92	7.626
309.29	7.075
309.65	7.529
310.02	7.188
310.38	8.065
310.75	6.230
311.12	8.393
311.48	7.001
311.85	7.862
312.22	7.492
312.58	8.004
312.95	9.504
313.31	6.990
313.68	7.588
314.05	9.961
314.41	9.045
314.78	6.949
315.14	8.441
315.51	7.724
315.87	6.931
316.24	7.349
316.61	6.433
316.97	7.828
317.34	5.871
317.70	7.457
318.07	6.737
318.43	6.751
318.80	8.529
319.16	7.062
319.53	6.473
319.89	7.429
320.26	7.300
320.62	7.341
320.99	8.485
321.35	9.192
321.72	6.776
322.08	7.404
322.45	8.060
322.81	7.752
323.18	7.611
323.54	7.607
323.91	8.396
324.27	7.839
324.64	6.431
325.00	6.673
325.37	8.189
325.73	8.707
326.10	7.679
326.46	7.616
326.83	8.369
327.19	7.600
327.56	6.620
327.92	8.574
328.29	7.631
328.65	7.182
329.01	8.213
329.38	7.586
329.74	8.033
330.11	7.917
330.47	8.173
330.84	8.640
331.20	7.468
331.56	8.440
331.93	6.759
332.29	8.518
332.66	8.142
333.02	7.495
333.38	7.859
333.75	7.754
334.11	7.918
334.48	6.211
334.84	7.169
335.20	7.364
335.57	6.709
335.93	6.786
336.29	6.868
336.66	7.394
337.02	6.787
337.38	6.667
337.75	7.130
338.11	7.252
338.47	6.906
338.84	7.699
339.20	7.156
339.56	7.664
339.93	7.000
340.29	6.793
340.65	6.417
341.02	6.806
341.38	6.673
341.74	6.053
342.11	6.725
342.47	7.753
342.83	7.449
343.20	8.139
343.56	7.329
343.92	6.579
344.28	7.398
344.65	7.137
345.01	6.650
345.37	6.690
345.73	6.430
346.10	6.991
346.46	6.864
346.82	6.672
347.19	6.516
347.55	6.322
347.91	6.634
348.27	6.984
348.63	6.856
349.00	6.553
349.36	6.732
349.72	7.298
350.08	6.564
350.45	7.323
350.81	6.661
351.17	6.483
351.53	6.143
351.89	6.271
352.26	6.946
352.62	7.298
352.98	6.969
353.34	6.163
353.70	5.728
354.07	5.968
354.43	6.111
354.79	6.436
355.15	6.704
355.51	6.475
355.87	6.857
356.24	6.433
356.60	5.934
356.96	6.195
357.32	6.378
357.68	7.087
358.04	5.384
358.40	7.205
358.77	5.947
359.13	5.525
359.49	6.039
359.85	4.286
360.21	4.067
360.57	6.226
360.93	6.231
361.29	6.954
361.66	5.263
362.02	7.239
362.38	5.779
362.74	5.952
363.10	5.033
363.46	5.723
363.82	5.820
364.18	6.461
364.54	5.795
364.90	6.303
365.26	6.029
365.62	6.793
365.98	5.551
366.35	4.728
366.71	6.218
367.07	5.462
367.43	5.080
367.79	5.782
368.15	6.537
368.51	5.451
368.87	5.924
369.23	5.779
369.59	5.431
369.95	4.559
370.31	5.057
370.67	5.435
371.03	6.142
371.39	5.904
371.75	4.779
372.11	6.330
372.47	5.425
372.83	6.124
373.19	5.636
373.55	5.174
373.91	6.701
374.27	5.155
374.63	5.236
374.99	5.579
375.35	4.885
375.71	5.346
376.07	6.516
376.42	5.227
376.78	6.494
377.14	5.224
377.50	5.099
377.86	4.920
378.22	5.563
378.58	4.261
378.94	4.651
379.30	4.707
379.66	4.505
380.02	4.914
380.38	4.250
380.74	4.802
381.09	4.890
381.45	4.856
381.81	5.098
382.17	5.350
382.53	5.660
382.89	5.432
383.25	4.503
383.61	5.514
383.97	5.003
384.32	5.303
384.68	4.213
385.04	4.425
385.40	4.520
385.76	5.283
386.12	4.339
386.48	5.475
386.83	4.875
387.19	5.257
387.55	5.442
387.91	5.139
388.27	4.660
388.62	5.224
388.98	3.993
389.34	5.382
389.70	5.212
390.06	5.830
390.42	5.058
390.77	4.962
391.13	5.169
391.49	5.140
391.85	4.456
392.20	4.038
392.56	3.914
392.92	4.709
393.28	3.136
393.64	4.916
393.99	4.948
394.35	4.280
394.71	4.580
395.07	4.112
395.42	4.821
395.78	4.835
396.14	4.469
396.50	5.639
396.85	4.450
397.21	4.747
397.57	4.836
397.92	4.507
398.28	4.260
398.64	4.241
399.00	4.365
399.35	3.948
399.71	4.861
400.07	5.441
400.42	5.215
400.78	5.247
401.14	3.902
401.49	4.478
401.85	4.477
402.21	4.431
402.57	4.195
402.92	3.909
403.28	4.372
403.63	3.960
403.99	3.885
404.35	4.485
404.70	4.197
405.06	4.718
405.42	4.616
405.77	4.171
406.13	4.628
406.49	5.086
406.84	4.666
407.20	4.669
407.55	4.914
407.91	4.267
408.27	3.829
408.62	4.937
408.98	4.350
409.34	4.182
409.69	4.581
410.05	4.027
410.40	4.832
410.76	3.345
411.11	4.825
411.47	4.473
411.83	4.398
412.18	4.143
412.54	4.421
412.89	5.241
413.25	4.191
413.60	4.818
413.96	4.554
414.31	4.192
414.67	4.689
415.03	3.974
415.38	5.219
415.74	5.080
416.09	5.029
416.45	4.819
416.80	4.164
417.16	5.764
417.51	5.109
417.87	4.496
418.22	4.606
418.58	5.552
418.93	5.405
419.29	4.456
419.64	5.038
420.00	4.756
420.35	4.696
420.71	4.722
421.06	3.341
421.42	4.503
421.77	4.540
422.12	4.043
422.48	3.670
422.83	4.252
423.19	4.254
423.54	4.527
423.90	4.348
424.25	4.858
424.61	4.107
424.96	4.315
425.31	4.485
425.67	4.213
426.02	4.171
426.38	4.457
426.73	4.623
427.09	4.438
427.44	4.255
427.79	3.565
428.15	5.060
428.50	4.623
428.85	4.887
429.21	4.307
429.56	3.836
429.92	3.926
430.27	3.674
430.62	4.045
430.98	4.307
431.33	4.330
431.68	4.450
432.04	4.260
432.39	3.655
432.74	4.369
433.10	3.792
433.45	4.082
433.80	3.603
434.16	4.434
434.51	4.421
434.86	4.504
435.22	4.058
435.57	4.255
435.92	3.862
436.28	3.915
436.63	5.464
436.98	4.408
437.34	4.532
437.69	4.609
438.04	3.598
438.39	4.179
438.75	4.590
439.10	4.693
439.45	4.368
439.81	4.653
440.16	4.235
440.51	4.569
440.86	4.111
441.22	3.782
441.57	3.981
441.92	3.429
442.27	4.467
442.63	3.897
442.98	4.507
443.33	4.130
443.68	3.924
444.03	3.465
444.39	3.651
444.74	4.275
445.09	4.205
445.44	4.538
445.79	4.107
446.15	4.923
446.50	3.716
446.85	3.905
447.20	4.029
447.55	4.523
447.91	4.082
448.26	4.229
448.61	3.844
448.96	4.762
449.31	4.499
449.66	4.615
450.02	4.345
450.37	3.968
450.72	3.779
451.07	4.083
451.42	4.559
451.77	5.050
452.12	4.908
452.47	4.851
452.83	4.487
453.18	4.707
453.53	4.824
453.88	4.548
454.23	4.722
454.58	4.724
454.93	4.514
455.28	3.803
455.63	4.915
455.98	4.762
456.34	3.643
456.69	4.759
457.04	3.777
457.39	3.799
457.74	4.353
458.09	4.600
458.44	4.504
458.79	3.742
459.14	4.571
459.49	4.612
459.84	4.266
460.19	3.654
460.54	4.225
460.89	4.388
461.24	4.614
461.59	5.404
461.94	4.316
462.29	4.748
462.64	4.914
462.99	4.359
463.34	4.867
463.69	5.003
464.04	5.101
464.39	4.986
464.74	4.516
465.09	4.463
465.44	3.657
465.79	4.306
466.14	4.433
466.49	4.338
466.84	4.145
467.19	4.647
467.54	5.062
467.89	4.442
468.24	4.538
468.59	5.067
468.94	4.337
469.29	4.370
469.64	4.752
469.99	4.871
470.34	4.359
470.68	4.598
471.03	4.830
471.38	4.795
471.73	5.330
472.08	5.329
472.43	4.711
472.78	4.806
473.13	5.199
473.48	5.056
473.83	5.122
474.17	4.356
474.52	4.963
474.87	4.729
475.22	4.295
475.57	4.191
475.92	4.142
476.27	4.059
476.61	4.357
476.96	4.288
477.31	4.134
477.66	3.884
478.01	4.391
478.36	4.231
478.70	3.998
479.05	4.526
479.40	4.299
479.75	4.067
480.10	3.529
480.45	3.617
480.79	3.966
481.14	3.816
481.49	3.987
481.84	3.567
482.19	3.680
482.53	3.945
482.88	3.816
483.23	3.551
483.58	4.459
483.92	3.749
484.27	3.486
484.62	3.836
484.97	3.469
485.31	3.664
485.66	2.778
486.01	2.395
486.36	2.481
486.70	2.379
487.05	2.616
487.40	2.554
487.75	2.656
488.09	2.972
488.44	3.002
488.79	3.508
489.13	3.056
489.48	3.263
489.83	3.151
490.17	4.077
490.52	3.676
490.87	3.754
491.22	3.001
491.56	3.872
491.91	3.816
492.26	3.583
492.60	3.594
492.95	3.882
493.30	4.393
493.64	3.686
493.99	3.714
494.34	3.839
494.68	4.304
495.03	4.088
495.37	4.188
495.72	3.606
496.07	4.130
496.41	3.761
496.76	3.782
497.11	3.692
497.45	4.192
497.80	3.791
498.14	3.430
498.49	3.463
498.84	4.219
499.18	3.762
499.53	3.656
499.87	4.240
500.22	3.862
500.56	4.369
500.91	3.654
501.26	3.698
501.60	4.699
501.95	3.162
502.29	3.655
502.64	4.004
502.98	3.413
503.33	3.428
503.67	3.852
504.02	3.742
504.36	3.837
504.71	3.615
505.06	3.566
505.40	3.889
505.75	3.664
506.09	4.130
506.44	4.095
506.78	4.335
507.13	4.240
507.47	4.040
507.82	4.154
508.16	4.053
508.51	4.262
508.85	4.071
509.19	3.878
509.54	3.724
509.88	4.276
510.23	4.113
510.57	4.902
510.92	4.195
511.26	4.060
511.61	4.616
511.95	4.541
512.30	4.189
512.64	4.245
512.98	4.930
513.33	4.657
513.67	4.109
514.02	4.058
514.36	4.642
514.70	4.704
515.05	4.183
515.39	4.431
515.74	4.955
516.08	5.143
516.42	4.495
516.77	4.849
517.11	4.550
517.46	4.910
517.80	4.646
518.14	4.574
518.49	4.492
518.83	4.886
519.17	4.330
519.52	4.584
519.86	5.533
520.20	4.740
520.55	5.266
520.89	5.049
521.23	5.187
521.58	5.402
521.92	4.654
522.26	4.027
522.61	5.047
522.95	4.972
523.29	5.113
523.64	5.427
523.98	4.868
524.32	5.066
524.66	5.051
525.01	4.963
525.35	4.957
525.69	5.542
526.04	5.047
526.38	5.430
526.72	4.663
527.06	4.896
527.41	4.641
527.75	5.788
528.09	5.716
528.43	5.417
528.78	5.532
529.12	4.364
529.46	5.940
529.80	5.136
530.15	5.670
530.49	5.292
530.83	6.139
531.17	5.091
531.51	6.355
531.86	4.710
532.20	6.258
532.54	5.573
532.88	5.648
533.22	4.872
533.57	4.630
533.91	4.816
534.25	5.893
534.59	5.125
534.93	5.175
535.27	5.613
535.62	5.067
535.96	5.022
536.30	5.340
536.64	5.280
536.98	5.906
537.32	4.872
537.66	5.333
538.01	5.332
538.35	5.236
538.69	6.190
539.03	5.003
539.37	4.217
539.71	4.601
540.05	4.902
540.39	4.784
540.73	4.851
541.07	5.256
541.42	5.414
541.76	5.806
542.10	5.951
542.44	5.166
542.78	6.390
543.12	5.118
543.46	6.033
543.80	5.921
544.14	4.942
544.48	5.206
544.82	4.618
545.16	5.465
545.50	4.756
545.84	6.384
546.18	5.320
546.52	5.712
546.86	5.430
547.20	6.271
547.54	5.812
547.88	6.186
548.22	4.919
548.56	5.346
548.90	4.866
549.24	5.657
549.58	5.662
549.92	5.632
550.26	7.102
550.60	5.463
550.94	5.563
551.28	4.974
551.62	6.039
551.96	5.754
552.30	5.529
552.64	6.085
552.98	6.237
553.32	5.799
553.66	6.271
554.00	5.285
554.34	5.245
554.68	5.651
555.02	5.853
555.36	5.915
555.69	4.533
556.03	5.384
556.37	5.116
556.71	5.389
557.05	6.162
557.39	5.738
557.73	5.857
558.07	5.294
558.41	4.993
558.75	6.319
559.08	6.413
559.42	5.291
559.76	6.029
560.10	4.640
560.44	5.521
560.78	5.855
561.12	4.749
561.45	6.584
561.79	5.537
562.13	5.500
562.47	5.533
562.81	5.927
563.15	5.017
563.48	5.570
563.82	4.827
564.16	5.363
564.50	4.753
564.84	5.120
565.17	5.598
565.51	5.240
565.85	6.091
566.19	5.322
566.52	5.256
566.86	4.039
567.20	5.071
567.54	4.852
567.88	4.943
568.21	5.026
568.55	5.308
568.89	4.572
569.23	3.877
569.56	4.332
569.90	3.849
570.24	3.983
570.57	3.740
570.91	3.555
571.25	3.799
571.59	3.741
571.92	3.341
572.26	3.466
572.60	3.754
572.93	3.628
573.27	3.727
573.61	3.713
573.95	3.618
574.28	3.216
574.62	3.571
574.96	3.345
575.29	3.322
575.63	3.277
575.97	3.124
576.30	3.717
576.64	3.033
576.98	2.893
577.31	3.189
577.65	2.953
577.98	3.136
578.32	2.979
578.66	3.082
578.99	3.081
579.33	2.735
579.67	3.065
580.00	3.261
580.34	3.370
580.67	2.931
581.01	3.306
581.35	2.925
581.68	3.013
582.02	3.026
582.35	2.767
582.69	3.203
583.02	2.909
583.36	3.274
583.70	3.072
584.03	3.292
584.37	4.058
584.70	3.004
585.04	3.449
585.37	2.912
585.71	3.454
586.04	3.044
586.38	3.344
586.72	3.949
587.05	2.907
587.39	3.166
587.72	3.298
588.06	3.095
588.39	3.759
588.73	3.403
589.06	3.989
589.40	3.603
589.73	3.414
590.07	4.342
590.40	3.471
590.73	3.942
591.07	4.233
591.40	3.922
591.74	4.502
592.07	4.276
592.41	4.258
592.74	4.270
593.08	4.131
593.41	3.954
593.75	3.685
594.08	4.123
594.41	3.959
594.75	3.734
595.08	4.223
595.42	4.168
595.75	4.131
596.09	3.905
596.42	4.558
596.75	4.306
597.09	5.368
597.42	4.216
597.75	4.097
598.09	4.739
598.42	4.768
598.76	3.567
599.09	3.801
599.42	4.148
599.76	4.209
600.09	3.716
600.42	3.908
600.76	4.036
601.09	4.408
601.42	3.234
601.76	4.023
602.09	3.676
602.42	4.737
602.76	4.555
603.09	3.344
603.42	4.139
603.76	3.925
604.09	3.955
604.42	3.791
604.76	4.639
605.09	4.325
605.42	4.361
605.75	4.553
606.09	3.538
606.42	4.005
606.75	4.314
607.09	4.437
607.42	3.979
607.75	4.177
608.08	3.908
608.42	4.617
608.75	3.968
609.08	4.255
609.41	4.522
609.75	4.526
610.08	4.948
610.41	3.445
610.74	4.068
611.07	4.298
611.41	4.318
611.74	4.827
612.07	4.503
612.40	4.460
612.73	4.474
613.07	4.903
613.40	5.635
613.73	4.248
614.06	4.140
614.39	5.087
614.72	5.474
615.06	4.832
615.39	4.565
615.72	5.215
616.05	4.891
616.38	4.725
616.71	5.048
617.05	5.241
617.38	4.450
617.71	4.865
618.04	5.048
618.37	4.908
618.70	4.978
619.03	5.526
619.36	5.092
619.69	5.563
620.03	5.632
620.36	6.217
620.69	6.575
621.02	5.457
621.35	4.855
621.68	5.452
622.01	6.347
622.34	7.110
622.67	5.551
623.00	5.062
623.33	5.361
623.66	5.575
623.99	5.670
624.32	5.777
624.65	5.862
624.99	4.603
625.32	5.358
625.65	5.785
625.98	5.688
626.31	5.988
626.64	6.612
626.97	5.569
627.30	6.318
627.63	6.563
627.96	5.046
628.29	6.562
628.62	7.319
628.95	7.453
629.28	6.843
629.61	7.058
629.94	6.286
630.26	5.910
630.59	6.292
630.92	7.280
631.25	5.429
631.58	7.608
631.91	6.288
632.24	5.907
632.57	7.135
632.90	7.018
633.23	7.159
633.56	8.023
633.89	7.701
634.22	7.491
634.55	8.402
634.88	6.826
635.20	8.363
635.53	8.313
635.86	7.302
636.19	7.529
636.52	8.766
636.85	6.529
637.18	7.143
637.51	7.565
637.83	6.289
638.16	8.056
638.49	8.690
638.82	8.850
639.15	7.625
639.48	8.603
639.81	8.981
640.13	8.333
640.46	8.993
640.79	8.719
641.12	7.015
641.45	9.218
641.77	9.278
642.10	9.795
642.43	7.207
642.76	9.907
643.09	10.890
643.41	7.891
643.74	10.031
644.07	9.146
644.40	10.123
644.73	12.283
645.05	11.094
645.38	9.163
645.71	9.662
646.04	9.635
646.36	10.851
646.69	11.037
647.02	10.034
647.35	10.825
647.67	9.735
648.00	10.244
648.33	7.756
648.66	9.091
648.98	10.495
649.31	10.463
649.64	8.969
649.96	9.985
650.29	9.163
650.62	8.091
650.94	10.859
651.27	11.486
651.60	10.150
651.92	11.022
652.25	9.772
652.58	9.346
652.90	10.585
653.23	8.937
653.56	8.031
653.88	10.460
654.21	10.585
654.54	9.076
654.86	10.592
655.19	6.486
655.52	3.586
655.84	2.386
656.17	2.666
656.49	3.462
656.82	3.539
657.15	2.773
657.47	2.096
657.80	1.858
658.13	1.843
658.45	2.869
658.78	3.273
659.10	3.462
659.43	3.642
659.75	4.556
660.08	5.506
660.41	6.518
660.73	9.276
661.06	8.121
661.38	10.727
661.71	12.500
662.03	13.412
662.36	9.543
662.68	11.847
663.01	13.333
663.33	11.465
663.66	12.185
663.98	12.527
664.31	12.605
664.63	9.919
664.96	9.054
665.28	13.320
665.61	10.331
665.93	10.664
666.26	9.939
666.58	12.552
666.91	13.742
667.23	13.933
667.56	14.039
667.88	11.538
668.21	14.925
668.53	12.148
668.86	10.606
669.18	12.367
669.50	13.261
669.83	15.033
670.15	13.111
670.48	13.290
670.80	11.207
671.13	14.225
671.45	12.340
671.77	12.831
672.10	10.906
672.42	9.717
672.75	11.940
673.07	10.915
673.39	9.946
673.72	8.008
674.04	12.353
674.37	10.874
674.69	9.407
675.01	11.088
675.34	13.963
675.66	14.316
675.98	12.220
676.31	13.655
676.63	14.650
676.95	13.417
677.28	12.150
677.60	11.648
677.92	14.979
678.25	13.347
678.57	13.546
678.89	12.826
679.22	11.984
679.54	12.023
679.86	11.376
680.18	10.376
680.51	10.816
680.83	12.100
681.15	12.075
681.48	14.367
681.80	10.445
682.12	10.345
682.44	9.865
682.77	12.424
683.09	13.948
683.41	13.747
683.73	13.466
684.06	12.810
684.38	11.742
684.70	11.240
685.02	13.133
685.34	9.707
685.67	9.441
685.99	8.935
686.31	10.580
686.63	9.364
686.96	10.714
687.28	11.191
687.60	10.326
687.92	13.163
688.24	11.787
688.56	14.859
688.89	11.411
689.21	12.664
689.53	11.900
689.85	13.082
690.17	11.180
690.49	13.588
690.82	14.252
691.14	9.821
691.46	12.658
691.78	13.855
692.10	11.570
692.42	12.176
692.74	11.411
693.06	11.064
693.39	13.552
693.71	11.572
694.03	13.684
694.35	11.905
694.67	13.272
694.99	15.122
695.31	12.990
695.63	11.962
695.95	15.648
696.27	10.406
696.59	12.435
696.91	13.472
697.23	12.441
697.56	14.286
697.88	8.998
698.20	12.708
698.52	14.624
698.84	11.581
699.16	13.825
699.48	15.439
699.80	11.111
700.12	17.143
700.44	14.854
700.76	14.365
701.08	14.655
701.40	18.436
701.72	18.367
702.04	21.307
702.36	15.014
702.68	13.314
703.00	15.235
703.32	13.298
703.64	15.550
703.96	17.270
704.28	17.151
704.60	21.114
704.91	19.585
705.23	16.422
705.55	17.276
705.87	20.266
706.19	15.194
706.51	20.561
706.83	16.970
707.15	17.087
707.47	15.657
707.79	14.005
708.11	14.155
708.43	12.381
708.74	13.010
709.06	15.325
709.38	18.110
709.70	15.116
710.02	16.320
710.34	17.879
710.66	12.537
710.98	18.182
711.29	16.860
711.61	19.764
711.93	16.667
712.25	21.865
712.57	19.118
712.89	16.955
713.20	18.845
713.52	19.079
713.84	16.456
714.16	15.549
714.48	16.667
714.80	17.933
715.11	18.444
715.43	16.320
715.75	19.420
716.07	15.335
716.39	19.436
716.70	22.924
717.02	19.424
717.34	21.555
717.66	22.015
717.97	24.701
718.29	19.259
718.61	18.613
718.93	22.794
719.24	17.647
719.56	18.305
719.88	20.678
720.20	22.297
720.51	21.254
720.83	22.677
721.15	19.403
721.46	19.858
721.78	23.656
722.10	22.642
722.42	22.180
722.73	19.850
723.05	21.721
723.37	19.028
723.68	22.008
724.00	21.951
724.32	21.371
724.63	21.545
724.95	20.921
725.27	23.887
725.58	18.750
725.90	21.898
726.22	15.849
726.53	19.097
726.85	19.795
727.16	18.861
727.48	19.858
727.80	21.970
728.11	19.203
728.43	20.385
728.74	20.072
729.06	20.073
729.38	23.897
729.69	21.708
730.01	19.113
730.32	16.667
730.64	20.736
730.96	15.182
731.27	19.205
731.59	18.960
731.90	19.242
732.22	16.770
732.53	14.551
732.85	18.269
733.16	16.399
733.48	17.608
733.80	15.584
734.11	14.650
734.43	18.343
734.74	15.143
735.06	13.754
735.37	18.497
735.69	14.650
736.00	16.013
736.32	19.315
736.63	14.377
736.95	13.419
737.26	18.707
737.58	17.419
737.89	19.064
738.21	22.526
738.52	18.929
738.83	17.736
739.15	20.385
739.46	23.358
739.78	17.361
740.09	19.692
740.41	19.355
740.72	19.164
741.04	17.778
741.35	20.417
741.66	25.333
741.98	15.566
742.29	23.445
742.61	29.310
742.92	24.434
743.23	21.368
743.55	25.200
743.86	21.053
744.18	24.336
744.49	24.880
744.80	29.577
745.12	30.909
745.43	22.907
745.74	27.477
746.06	24.771
746.37	29.596
746.68	20.814
747.00	23.611
747.31	28.095
747.62	21.681
747.94	23.789
748.25	21.277
748.56	28.634
748.88	21.782
749.19	27.500
749.50	24.651
749.82	23.171
750.13	18.367
750.44	17.518
750.75	22.456
751.07	24.116
751.38	22.300
751.69	18.412
752.01	16.917
752.32	17.329
752.63	21.277
752.94	22.541
753.26	25.200
753.57	19.106
753.88	25.000
754.19	19.643
754.51	20.139
754.82	16.968
755.13	21.132
755.44	18.045
755.75	17.518
756.07	16.667
756.38	16.058
756.69	18.456
757.00	17.665
757.31	14.837
757.63	15.497
757.94	15.013
758.25	13.725
758.56	15.309
758.87	13.978
759.18	16.970
759.50	16.928
759.81	17.445
760.12	14.375
760.43	16.046
760.74	18.750
761.05	17.232
761.36	15.241
761.67	19.034
761.99	13.665
762.30	17.708
762.61	17.557
762.92	22.266
763.23	20.588
763.54	22.800
763.85	18.359
764.16	23.077
764.47	21.293
764.78	17.668
765.10	15.190
765.41	19.174
765.72	16.467
766.03	18.809
766.34	20.333
766.65	24.681
766.96	20.513
767.27	29.949
767.58	27.604
767.89	33.158
768.20	31.034
768.51	28.426
768.82	27.982
769.13	23.984
769.44	22.672
769.75	23.176
770.06	11.927
770.37	24.434
770.68	25.463
770.99	20.889
771.30	18.852
771.61	26.009
771.92	22.541
772.23	26.891
772.54	22.051
772.85	28.796
773.16	27.660
773.47	33.152
773.78	31.472
774.09	26.190
774.39	27.485
774.70	30.247
775.01	40.580
775.32	47.712
775.63	38.816
775.94	35.252
776.25	41.732
776.56	43.284
776.87	36.885
777.18	34.375
777.48	35.878
777.79	43.939
778.10	36.296
778.41	35.714
778.72	30.657
779.03	36.242
779.34	38.255
779.65	22.973
779.95	23.926
780.26	39.869
780.57	39.310
780.88	42.187
781.19	38.346
781.50	43.243
781.80	28.931
782.11	33.333
782.42	25.949
782.73	39.264
783.04	33.108
783.34	41.549
783.65	42.466
783.96	39.552
784.27	32.867
784.57	37.410
784.88	37.037
785.19	48.413
785.50	46.226
785.81	44.030
786.11	45.902
786.42	39.535
786.73	43.363
787.04	46.226
787.34	44.643
787.65	44.000
787.96	44.144
788.26	35.537
788.57	54.237
788.88	42.975
789.19	43.056
789.49	42.424
789.80	41.985
790.11	53.333
790.41	54.455
790.72	69.880
791.03	60.870
791.33	56.977
791.64	50.515
791.95	51.485
792.25	66.667
792.56	72.727
792.87	70.513
793.17	81.013
793.48	66.667
793.79	57.471
794.09	68.182
794.40	41.176
794.70	50.000
795.01	31.852
795.32	33.813
795.62	47.244
795.93	47.414
796.23	53.097
796.54	60.000
796.85	51.351
797.15	87.324
797.46	68.182
797.76	71.084
798.07	59.494
798.37	67.692
798.68	80.303
798.99	52.113
799.29	80.519
799.60	47.727
799.90	61.644
800.21	82.090
800.51	86.207
800.82	89.474
801.12	78.689
801.43	80.303
801.73	64.865
802.04	93.651
802.34	65.432
802.65	81.250
802.95	94.915
803.26	93.750
803.56	55.714
803.87	78.462
804.17	73.529
804.48	90.741
804.78	81.034
805.09	77.941
805.39	78.846
805.70	64.286
806.00	103.279
806.30	72.727
806.61	70.732
806.91	49.367
807.22	57.895
807.52	62.687
807.83	61.972
808.13	64.063
808.43	83.333
808.74	55.263
809.04	73.913
809.35	73.134
809.65	61.842
809.95	96.774
810.26	86.441
810.56	92.063
810.86	102.273
811.17	121.429
811.47	106.667
811.77	83.333
812.08	96.364
812.38	110.000
812.69	127.778
812.99	129.545
813.29	100.000
813.59	100.000
813.90	114.286
814.20	80.000
814.50	67.692
814.81	85.294
815.11	95.918
815.41	90.164
815.72	107.143
816.02	105.455
816.32	116.667
816.62	130.000
816.93	121.951
817.23	107.143
817.53	104.545
817.84	136.364
818.14	123.913
818.44	95.556
818.74	167.647
819.04	117.500
819.35	122.857
819.65	158.824
819.95	175.000
820.25	160.000
820.56	125.641
820.86	120.455
821.16	137.209
821.46	92.308
821.76	94.000
822.07	160.000
822.37	132.500
822.67	142.424
822.97	101.961
823.27	178.571
823.57	127.027
823.88	162.500
824.18	180.000
824.48	138.095
824.78	164.000
825.08	133.333
825.38	148.649
825.69	129.268
825.99	187.500
826.29	165.517
826.59	134.211
826.89	152.632
827.19	179.412
827.49	145.161
827.79	115.909
828.09	109.091
828.39	121.277
828.70	120.408
829.00	181.481
829.30	180.645
829.60	100.000
829.90	233.333
830.20	146.429
830.50	173.913
830.80	204.348
831.10	163.333
831.40	173.333
831.70	156.522
832.00	200.000
832.30	181.481
832.60	318.750
832.90	156.667
833.20	314.286
833.50	161.290
833.80	168.966
834.10	196.875
834.40	219.231
834.70	288.889
835.00	285.714
835.30	160.000
835.60	238.462
835.90	175.862
836.20	342.857
836.50	186.207
836.80	184.000
837.10	177.778
837.40	209.524
837.70	305.882
838.00	218.519
838.30	252.381
838.60	271.429
838.90	253.846
839.19	240.000
839.49	335.714
839.79	275.000
840.09	235.000
840.39	252.381
840.69	221.739
840.99	238.889
841.29	370.000
841.59	333.333
841.88	293.750
842.18	193.103
842.48	252.381
842.78	193.333
843.08	252.174
843.38	159.375
843.68	916.667
843.97	215.385
844.27	189.655
844.57	257.143
844.87	343.750
845.17	218.519
845.47	1500.000
845.76	411.111
846.06	276.471
846.36	450.000
846.66	385.714
846.96	306.250
847.25	372.727
847.55	381.818
847.85	256.522
848.15	460.000
848.44	342.857
848.74	288.889
849.04	252.941
849.34	490.000
849.63	210.526
849.93	381.818
850.23	920.000
850.53	371.429
850.82	1850.000
851.12	-4400.000
851.42	4300.000
851.71	275.000
852.01	-800.000
852.31	220.833
852.61	1633.333
852.90	261.905
853.20	232.000
853.50	247.059
853.79	223.810
854.09	183.333
854.39	312.500
854.68	148.649
854.98	180.645
855.28	163.333
855.57	186.207
855.87	196.296
856.17	257.895
856.46	193.333
856.76	311.765
857.05	179.310
857.35	237.500
857.65	280.000
857.94	260.870
858.24	223.077
858.53	295.000
858.83	259.091
859.13	326.667
859.42	0.000
859.72	677.778
860.01	436.364
860.31	259.091
860.60	226.316
860.90	239.130
861.20	488.889
861.49	466.667
861.79	-4700.000
862.08	650.000
862.38	228.571
862.67	338.462
862.97	329.412
863.26	522.222
863.56	294.444
863.85	375.000
864.15	612.500
864.44	333.333
864.74	650.000
865.03	662.500
865.33	331.579
865.62	409.091
865.92	461.538
866.21	433.333
866.51	0.000
866.80	454.545
867.10	1200.000
867.39	430.769
867.69	463.636
867.98	236.842
868.27	472.727
868.57	373.684
868.86	-4300.000
869.16	337.500
869.45	2500.000
869.75	-3600.000
870.04	483.333
870.33	671.429
870.63	875.000
870.92	2300.000
871.22	600.000
871.51	341.176
871.80	247.619
872.10	414.286
>>>>>End Processed Spectral Data<<<<<
