SpectraSuite Data File
++++++++++++++++++++++++++++++++++++
Date: Wed May 13 19:25:37 PDT 2015
User: schluterlab
Dark Spectrum Present: Yes
Reference Spectrum Present: Yes
Number of Sampled Component Spectra: 1
Spectrometers: USB2E3373
Integration Time (usec): 3000 (USB2E3373)
Spectra Averaged: 3 (USB2E3373)
Boxcar Smoothing: 0 (USB2E3373)
Correct for Electrical Dark: No (USB2E3373)
Strobe/Lamp Enabled: No (USB2E3373)
Correct for Detector Non-linearity: No (USB2E3373)
Correct for Stray Light: No (USB2E3373)
Number of Pixels in Processed Spectrum: 2048
>>>>>Begin Processed Spectral Data<<<<<
178.53	0.000
178.91	-1575.000
179.29	-1425.000
179.67	-238.889
180.04	-1350.000
180.42	2650.000
180.80	1160.000
181.18	-1175.000
181.56	657.143
181.94	0.000
182.31	-700.000
182.69	1866.667
183.07	-675.000
183.45	-500.000
183.83	581.818
184.20	-410.000
184.58	2450.000
184.96	5200.000
185.34	-960.000
185.72	-662.500
186.09	-2200.000
186.47	2700.000
186.85	3050.000
187.23	6100.000
187.61	-2033.333
187.98	1450.000
188.36	636.364
188.74	527.273
189.12	-1100.000
189.49	680.000
189.87	-4900.000
190.25	-1225.000
190.63	457.143
191.00	415.385
191.38	783.333
191.76	-1300.000
192.14	1325.000
192.51	637.500
192.89	950.000
193.27	612.500
193.65	-1150.000
194.02	560.000
194.40	1000.000
194.78	600.000
195.15	541.667
195.53	680.000
195.91	-2400.000
196.29	375.000
196.66	321.053
197.04	-410.000
197.42	0.000
197.79	620.000
198.17	-4700.000
198.55	714.286
198.92	787.500
199.30	900.000
199.68	0.000
200.05	344.444
200.43	728.571
200.81	4900.000
201.18	2033.333
201.56	-1700.000
201.94	611.111
202.31	700.000
202.69	458.333
203.07	550.000
203.44	0.000
203.82	1325.000
204.19	900.000
204.57	514.286
204.95	800.000
205.32	1800.000
205.70	590.909
206.08	392.857
206.45	2650.000
206.83	450.000
207.20	783.333
207.58	980.000
207.96	316.667
208.33	775.000
208.71	-1016.667
209.08	928.571
209.46	566.667
209.84	545.455
210.21	-1500.000
210.59	1475.000
210.96	-537.500
211.34	2700.000
211.71	670.000
212.09	966.667
212.46	0.000
212.84	1533.333
213.22	1200.000
213.59	-5500.000
213.97	983.333
214.34	928.571
214.72	609.091
215.09	1260.000
215.47	-2200.000
215.84	-2450.000
216.22	2033.333
216.59	371.429
216.97	1400.000
217.34	509.091
217.72	-816.667
218.09	0.000
218.47	-4800.000
218.84	600.000
219.22	871.429
219.59	1600.000
219.97	-671.429
220.34	980.000
220.72	-1866.667
221.09	335.714
221.47	1350.000
221.84	-1100.000
222.22	0.000
222.59	1425.000
222.97	-3000.000
223.34	1100.000
223.72	430.769
224.09	1120.000
224.46	1850.000
224.84	-5500.000
225.21	-1080.000
225.59	-5500.000
225.96	630.000
226.34	310.000
226.71	3250.000
227.08	712.500
227.46	570.000
227.83	-1025.000
228.21	-2200.000
228.58	566.667
228.95	-2300.000
229.33	-2850.000
229.70	2066.667
230.08	714.286
230.45	-900.000
230.82	441.667
231.20	816.667
231.57	800.000
231.95	466.667
232.32	259.091
232.69	445.455
233.07	771.429
233.44	484.615
233.81	-1800.000
234.19	336.842
234.56	508.333
234.93	416.667
235.31	490.909
235.68	415.385
236.05	385.714
236.43	233.333
236.80	257.895
237.17	5200.000
237.55	266.667
237.92	242.857
238.29	276.190
238.67	187.097
239.04	248.276
239.41	202.778
239.79	128.261
240.16	161.905
240.53	177.273
240.91	121.569
241.28	140.000
241.65	126.000
242.02	118.841
242.40	106.452
242.77	96.667
243.14	89.247
243.51	96.629
243.89	83.529
244.26	86.667
244.63	86.022
245.00	93.617
245.38	92.079
245.75	75.701
246.12	73.394
246.49	77.372
246.87	89.600
247.24	87.692
247.61	62.143
247.98	64.706
248.36	68.243
248.73	68.790
249.10	68.153
249.47	59.887
249.84	64.171
250.22	55.080
250.59	65.680
250.96	55.556
251.33	60.664
251.70	61.881
252.08	57.619
252.45	52.466
252.82	49.565
253.19	54.468
253.56	53.725
253.94	52.282
254.31	51.172
254.68	55.000
255.05	48.708
255.42	56.098
255.79	51.838
256.16	53.791
256.54	48.763
256.91	48.043
257.28	47.482
257.65	47.195
258.02	49.379
258.39	51.104
258.76	48.829
259.14	47.321
259.51	47.112
259.88	48.137
260.25	49.245
260.62	47.688
260.99	50.621
261.36	48.949
261.73	47.564
262.10	46.802
262.47	47.042
262.85	47.075
263.22	41.880
263.59	44.160
263.96	42.308
264.33	46.736
264.70	43.158
265.07	43.478
265.44	43.687
265.81	43.552
266.18	45.477
266.55	43.415
266.92	42.998
267.29	44.907
267.66	42.661
268.03	44.773
268.40	40.654
268.77	42.005
269.14	41.892
269.51	39.503
269.88	43.590
270.25	41.535
270.62	43.371
270.99	45.376
271.36	40.129
271.73	40.654
272.10	40.217
272.47	43.441
272.84	41.342
273.21	41.090
273.58	37.118
273.95	35.639
274.32	40.496
274.69	40.257
275.06	38.976
275.43	41.277
275.80	39.880
276.17	39.308
276.54	40.333
276.91	39.328
277.28	40.430
277.65	39.652
278.02	38.302
278.39	42.969
278.76	35.636
279.13	39.811
279.50	38.175
279.87	39.243
280.23	40.719
280.60	36.557
280.97	36.784
281.34	38.938
281.71	37.818
282.08	38.196
282.45	37.636
282.82	37.300
283.19	34.759
283.56	37.719
283.92	39.932
284.29	38.272
284.66	36.479
285.03	37.071
285.40	35.387
285.77	35.354
286.14	37.306
286.51	36.667
286.87	35.556
287.24	35.831
287.61	36.437
287.98	35.390
288.35	33.914
288.72	35.358
289.08	34.272
289.45	35.420
289.82	35.285
290.19	33.281
290.56	32.772
290.93	30.363
291.29	33.129
291.66	32.448
292.03	33.576
292.40	32.305
292.77	31.657
293.13	31.940
293.50	32.653
293.87	31.259
294.24	29.926
294.60	30.713
294.97	29.797
295.34	31.171
295.71	31.676
296.08	29.772
296.44	28.886
296.81	30.647
297.18	30.217
297.55	27.573
297.91	27.309
298.28	27.979
298.65	30.026
299.02	29.513
299.38	28.951
299.75	27.493
300.12	28.097
300.48	27.750
300.85	29.716
301.22	26.497
301.59	27.525
301.95	27.834
302.32	27.214
302.69	26.882
303.05	27.879
303.42	26.543
303.79	26.501
304.15	27.040
304.52	24.913
304.89	26.016
305.25	25.870
305.62	26.614
305.99	26.446
306.35	26.846
306.72	26.121
307.09	26.526
307.45	26.239
307.82	24.554
308.19	25.386
308.55	26.861
308.92	25.779
309.29	24.287
309.65	25.133
310.02	26.744
310.38	25.699
310.75	25.343
311.12	25.281
311.48	25.496
311.85	26.101
312.22	25.702
312.58	25.676
312.95	25.977
313.31	25.049
313.68	25.676
314.05	27.318
314.41	27.236
314.78	26.586
315.14	26.912
315.51	27.188
315.87	27.426
316.24	28.203
316.61	27.583
316.97	27.397
317.34	27.984
317.70	28.298
318.07	29.933
318.43	30.822
318.80	30.553
319.16	30.414
319.53	29.925
319.89	32.000
320.26	33.600
320.62	33.730
320.99	31.919
321.35	32.020
321.72	34.497
322.08	34.255
322.45	35.522
322.81	35.271
323.18	36.127
323.54	34.416
323.91	38.113
324.27	37.954
324.64	37.279
325.00	37.962
325.37	40.491
325.73	41.831
326.10	41.041
326.46	41.846
326.83	42.882
327.19	42.357
327.56	44.686
327.92	44.969
328.29	45.342
328.65	47.053
329.01	45.668
329.38	46.716
329.74	47.184
330.11	48.068
330.47	48.485
330.84	49.173
331.20	48.543
331.56	47.982
331.93	51.019
332.29	49.689
332.66	49.735
333.02	50.640
333.38	50.678
333.75	52.228
334.11	52.046
334.48	52.972
334.84	53.033
335.20	53.273
335.57	52.856
335.93	53.393
336.29	52.839
336.66	54.013
337.02	53.665
337.38	55.185
337.75	54.545
338.11	56.043
338.47	55.157
338.84	56.462
339.20	56.055
339.56	57.482
339.93	56.182
340.29	57.699
340.65	57.041
341.02	56.632
341.38	58.630
341.74	58.070
342.11	57.817
342.47	59.119
342.83	57.877
343.20	58.701
343.56	57.287
343.92	59.825
344.28	59.099
344.65	60.189
345.01	58.418
345.37	60.292
345.73	60.491
346.10	60.358
346.46	61.356
346.82	61.614
347.19	60.902
347.55	59.360
347.91	61.246
348.27	61.709
348.63	60.870
349.00	59.871
349.36	61.330
349.72	60.465
350.08	61.426
350.45	60.944
350.81	61.332
351.17	61.994
351.53	62.735
351.89	61.716
352.26	61.721
352.62	63.753
352.98	62.399
353.34	62.449
353.70	63.257
354.07	64.677
354.43	62.698
354.79	63.475
355.15	63.927
355.51	64.988
355.87	64.735
356.24	66.287
356.60	63.673
356.96	65.969
357.32	65.249
357.68	65.984
358.04	64.054
358.40	65.321
358.77	64.006
359.13	64.957
359.49	65.098
359.85	64.841
360.21	68.581
360.57	67.393
360.93	67.308
361.29	66.138
361.66	66.022
362.02	65.746
362.38	66.616
362.74	65.774
363.10	66.691
363.46	65.591
363.82	67.649
364.18	67.474
364.54	68.276
364.90	67.280
365.26	68.382
365.62	67.129
365.98	68.298
366.35	65.401
366.71	68.257
367.07	68.973
367.43	69.376
367.79	69.236
368.15	70.618
368.51	68.241
368.87	69.665
369.23	68.325
369.59	71.035
369.95	67.721
370.31	67.949
370.67	68.623
371.03	70.936
371.39	70.627
371.75	69.044
372.11	68.706
372.47	69.282
372.83	71.614
373.19	68.786
373.55	70.806
373.91	71.060
374.27	68.866
374.63	70.182
374.99	70.198
375.35	69.505
375.71	69.431
376.07	70.988
376.42	70.770
376.78	70.245
377.14	69.742
377.50	71.523
377.86	69.614
378.22	69.279
378.58	68.609
378.94	70.207
379.30	71.501
379.66	71.003
380.02	70.516
380.38	68.913
380.74	70.288
381.09	70.110
381.45	71.174
381.81	71.007
382.17	70.701
382.53	69.623
382.89	70.679
383.25	70.607
383.61	72.491
383.97	70.356
384.32	70.430
384.68	70.570
385.04	68.593
385.40	70.093
385.76	70.147
386.12	70.855
386.48	70.233
386.83	73.445
387.19	72.109
387.55	71.181
387.91	70.556
388.27	69.712
388.62	70.990
388.98	69.165
389.34	70.588
389.70	70.570
390.06	70.342
390.42	69.715
390.77	69.275
391.13	71.283
391.49	70.368
391.85	69.828
392.20	69.905
392.56	70.896
392.92	70.512
393.28	70.000
393.64	68.885
393.99	69.029
394.35	69.417
394.71	69.134
395.07	68.100
395.42	70.705
395.78	69.148
396.14	68.156
396.50	71.241
396.85	70.121
397.21	67.448
397.57	68.134
397.92	69.351
398.28	66.368
398.64	68.399
399.00	67.991
399.35	67.343
399.71	68.345
400.07	68.125
400.42	68.037
400.78	69.300
401.14	67.561
401.49	68.836
401.85	67.272
402.21	65.928
402.57	67.674
402.92	67.087
403.28	67.270
403.63	66.894
403.99	68.662
404.35	65.879
404.70	67.566
405.06	66.977
405.42	66.625
405.77	67.143
406.13	66.422
406.49	67.297
406.84	65.800
407.20	65.366
407.55	67.390
407.91	67.533
408.27	68.602
408.62	64.539
408.98	66.483
409.34	65.314
409.69	66.194
410.05	66.047
410.40	64.465
410.76	64.755
411.11	65.018
411.47	64.537
411.83	64.142
412.18	63.080
412.54	64.570
412.89	64.217
413.25	63.459
413.60	65.349
413.96	62.842
414.31	63.609
414.67	63.878
415.03	63.709
415.38	63.724
415.74	62.444
416.09	63.749
416.45	64.190
416.80	62.723
417.16	64.410
417.51	63.968
417.87	62.556
418.22	62.776
418.58	62.363
418.93	62.531
419.29	62.826
419.64	63.539
420.00	62.134
420.35	60.580
420.71	62.881
421.06	60.740
421.42	60.877
421.77	61.603
422.12	61.033
422.48	60.604
422.83	61.328
423.19	60.331
423.54	60.592
423.90	61.043
424.25	60.692
424.61	60.119
424.96	60.758
425.31	58.749
425.67	58.258
426.02	60.800
426.38	61.172
426.73	59.274
427.09	60.304
427.44	58.597
427.79	57.907
428.15	60.179
428.50	58.923
428.85	59.833
429.21	57.427
429.56	59.046
429.92	58.581
430.27	57.299
430.62	57.552
430.98	57.187
431.33	56.804
431.68	57.749
432.04	56.017
432.39	58.881
432.74	57.211
433.10	57.272
433.45	58.251
433.80	56.430
434.16	56.464
434.51	56.421
434.86	56.442
435.22	56.921
435.57	56.900
435.92	57.578
436.28	58.126
436.63	56.678
436.98	56.497
437.34	56.589
437.69	56.884
438.04	56.155
438.39	56.776
438.75	56.188
439.10	55.587
439.45	54.959
439.81	54.924
440.16	54.094
440.51	55.067
440.86	54.893
441.22	54.894
441.57	54.512
441.92	54.913
442.27	55.167
442.63	54.186
442.98	55.775
443.33	53.207
443.68	52.762
444.03	54.222
444.39	53.262
444.74	54.383
445.09	53.801
445.44	52.870
445.79	52.400
446.15	52.091
446.50	53.635
446.85	52.261
447.20	52.371
447.55	54.383
447.91	53.227
448.26	53.812
448.61	53.307
448.96	53.378
449.31	52.868
449.66	52.223
450.02	52.423
450.37	52.608
450.72	52.059
451.07	51.188
451.42	50.578
451.77	50.499
452.12	50.866
452.47	50.808
452.83	51.457
453.18	51.589
453.53	51.515
453.88	50.384
454.23	49.253
454.58	50.878
454.93	51.748
455.28	49.626
455.63	50.971
455.98	51.131
456.34	49.749
456.69	50.595
457.04	50.402
457.39	48.743
457.74	48.926
458.09	49.396
458.44	48.917
458.79	47.722
459.14	50.000
459.49	49.154
459.84	48.033
460.19	48.085
460.54	47.454
460.89	47.998
461.24	47.602
461.59	48.751
461.94	47.719
462.29	48.427
462.64	47.607
462.99	46.129
463.34	48.867
463.69	47.780
464.04	47.942
464.39	46.667
464.74	47.237
465.09	47.346
465.44	46.371
465.79	46.532
466.14	45.703
466.49	45.328
466.84	46.468
467.19	46.228
467.54	47.125
467.89	44.658
468.24	46.771
468.59	45.971
468.94	45.449
469.29	45.630
469.64	46.921
469.99	47.294
470.34	45.707
470.68	47.414
471.03	45.306
471.38	46.352
471.73	47.169
472.08	46.645
472.43	45.477
472.78	45.425
473.13	44.801
473.48	45.318
473.83	45.061
474.17	44.555
474.52	44.541
474.87	44.775
475.22	43.703
475.57	43.256
475.92	44.291
476.27	42.841
476.61	44.457
476.96	43.705
477.31	42.962
477.66	44.748
478.01	41.662
478.36	43.416
478.70	42.679
479.05	43.397
479.40	43.398
479.75	42.603
480.10	42.594
480.45	42.599
480.79	41.806
481.14	42.270
481.49	42.477
481.84	42.478
482.19	41.890
482.53	42.294
482.88	40.949
483.23	40.561
483.58	41.447
483.92	41.940
484.27	40.261
484.62	40.302
484.97	40.126
485.31	41.062
485.66	41.347
486.01	39.628
486.36	38.495
486.70	37.683
487.05	37.912
487.40	38.662
487.75	38.034
488.09	38.732
488.44	38.559
488.79	39.421
489.13	39.610
489.48	39.274
489.83	39.577
490.17	40.026
490.52	39.194
490.87	39.530
491.22	38.563
491.56	38.223
491.91	39.553
492.26	38.356
492.60	38.848
492.95	37.839
493.30	37.991
493.64	39.711
493.99	37.372
494.34	38.760
494.68	39.194
495.03	38.675
495.37	37.552
495.72	38.840
496.07	38.794
496.41	37.788
496.76	37.555
497.11	37.641
497.45	38.100
497.80	38.244
498.14	37.053
498.49	37.610
498.84	38.447
499.18	38.286
499.53	37.132
499.87	37.651
500.22	37.541
500.56	38.252
500.91	37.500
501.26	37.127
501.60	38.064
501.95	36.709
502.29	37.441
502.64	37.104
502.98	35.951
503.33	35.923
503.67	36.381
504.02	37.044
504.36	37.529
504.71	37.372
505.06	36.964
505.40	37.044
505.75	36.692
506.09	36.006
506.44	37.148
506.78	36.483
507.13	37.557
507.47	36.566
507.82	36.424
508.16	37.589
508.51	36.834
508.85	36.395
509.19	36.531
509.54	37.194
509.88	36.785
510.23	36.247
510.57	37.255
510.92	37.027
511.26	35.971
511.61	36.307
511.95	35.543
512.30	36.903
512.64	36.002
512.98	36.656
513.33	36.831
513.67	36.073
514.02	36.147
514.36	37.302
514.70	36.082
515.05	36.475
515.39	36.736
515.74	37.050
516.08	35.830
516.42	35.849
516.77	37.235
517.11	36.626
517.46	36.795
517.80	36.469
518.14	35.263
518.49	37.690
518.83	36.364
519.17	35.450
519.52	37.125
519.86	35.881
520.20	36.012
520.55	36.685
520.89	36.375
521.23	37.033
521.58	36.315
521.92	37.048
522.26	35.876
522.61	36.636
522.95	35.359
523.29	36.397
523.64	36.524
523.98	37.461
524.32	35.826
524.66	36.560
525.01	36.703
525.35	35.998
525.69	35.899
526.04	36.386
526.38	36.059
526.72	35.644
527.06	36.911
527.41	35.334
527.75	36.785
528.09	36.930
528.43	35.437
528.78	35.587
529.12	34.909
529.46	36.497
529.80	35.149
530.15	36.573
530.49	34.769
530.83	37.025
531.17	36.684
531.51	36.641
531.86	36.129
532.20	37.027
532.54	35.426
532.88	36.264
533.22	34.291
533.57	35.741
533.91	35.280
534.25	35.723
534.59	34.350
534.93	34.801
535.27	35.003
535.62	35.531
535.96	36.347
536.30	35.474
536.64	35.608
536.98	34.970
537.32	34.496
537.66	35.600
538.01	36.274
538.35	35.811
538.69	36.056
539.03	35.088
539.37	34.952
539.71	35.126
540.05	35.098
540.39	34.950
540.73	34.347
541.07	34.783
541.42	34.899
541.76	34.710
542.10	35.382
542.44	34.901
542.78	35.244
543.12	32.502
543.46	34.623
543.80	34.418
544.14	33.376
544.48	34.349
544.82	35.664
545.16	33.832
545.50	33.419
545.84	34.946
546.18	34.680
546.52	35.031
546.86	33.746
547.20	34.727
547.54	35.271
547.88	33.801
548.22	34.433
548.56	34.654
548.90	33.547
549.24	33.468
549.58	33.970
549.92	33.173
550.26	34.020
550.60	33.402
550.94	33.873
551.28	32.041
551.62	33.429
551.96	34.035
552.30	33.857
552.64	33.604
552.98	34.508
553.32	33.715
553.66	34.083
554.00	33.425
554.34	34.092
554.68	34.549
555.02	33.639
555.36	33.612
555.69	33.018
556.03	33.244
556.37	33.970
556.71	33.083
557.05	33.053
557.39	32.750
557.73	32.392
558.07	34.300
558.41	32.996
558.75	34.019
559.08	33.557
559.42	33.787
559.76	32.721
560.10	33.476
560.44	33.054
560.78	32.868
561.12	32.982
561.45	33.638
561.79	32.564
562.13	32.327
562.47	32.514
562.81	32.566
563.15	32.375
563.48	31.963
563.82	32.616
564.16	32.309
564.50	32.812
564.84	31.985
565.17	32.046
565.51	32.460
565.85	31.726
566.19	32.248
566.52	32.489
566.86	30.681
567.20	32.193
567.54	32.705
567.88	31.505
568.21	32.063
568.55	32.053
568.89	32.004
569.23	31.239
569.56	31.174
569.90	30.943
570.24	30.678
570.57	30.160
570.91	30.220
571.25	30.389
571.59	29.897
571.92	29.435
572.26	29.434
572.60	29.760
572.93	29.685
573.27	29.755
573.61	29.704
573.95	29.690
574.28	29.347
574.62	29.082
574.96	28.817
575.29	29.510
575.63	29.599
575.97	29.081
576.30	29.235
576.64	28.911
576.98	29.412
577.31	28.835
577.65	28.925
577.98	29.212
578.32	29.329
578.66	28.763
578.99	28.829
579.33	28.831
579.67	28.533
580.00	28.386
580.34	28.809
580.67	28.480
581.01	28.671
581.35	28.983
581.68	29.124
582.02	28.774
582.35	28.770
582.69	28.312
583.02	28.521
583.36	28.499
583.70	28.172
584.03	28.344
584.37	28.880
584.70	28.710
585.04	28.596
585.37	28.425
585.71	28.994
586.04	28.413
586.38	29.180
586.72	29.163
587.05	28.769
587.39	28.443
587.72	28.884
588.06	28.842
588.39	28.477
588.73	28.483
589.06	28.794
589.40	29.125
589.73	28.933
590.07	28.826
590.40	27.804
590.73	29.391
591.07	29.141
591.40	28.849
591.74	29.827
592.07	29.319
592.41	29.268
592.74	29.963
593.08	29.280
593.41	29.231
593.75	29.044
594.08	28.629
594.41	28.915
594.75	28.466
595.08	28.239
595.42	29.072
595.75	29.167
596.09	28.802
596.42	28.959
596.75	29.337
597.09	29.394
597.42	28.288
597.75	29.021
598.09	28.652
598.42	28.265
598.76	28.050
599.09	28.810
599.42	28.566
599.76	28.660
600.09	28.342
600.42	28.561
600.76	27.607
601.09	28.015
601.42	28.387
601.76	28.539
602.09	28.221
602.42	28.702
602.76	28.819
603.09	28.285
603.42	29.012
603.76	28.506
604.09	28.189
604.42	28.292
604.76	28.891
605.09	28.702
605.42	28.816
605.75	28.684
606.09	28.467
606.42	28.280
606.75	27.872
607.09	28.003
607.42	28.156
607.75	27.975
608.08	27.920
608.42	28.642
608.75	28.584
609.08	27.937
609.41	27.558
609.75	27.870
610.08	29.453
610.41	28.492
610.74	28.571
611.07	28.607
611.41	28.852
611.74	29.060
612.07	29.244
612.40	28.961
612.73	28.368
613.07	29.041
613.40	29.279
613.73	27.792
614.06	28.495
614.39	28.159
614.72	28.579
615.06	28.887
615.39	27.866
615.72	27.965
616.05	28.070
616.38	28.405
616.71	28.800
617.05	29.918
617.38	28.924
617.71	29.189
618.04	29.327
618.37	28.208
618.70	28.625
619.03	29.737
619.36	28.445
619.69	29.789
620.03	29.670
620.36	29.612
620.69	29.863
621.02	29.794
621.35	29.836
621.68	29.517
622.01	30.186
622.34	29.047
622.67	28.745
623.00	28.393
623.33	28.735
623.66	29.450
623.99	29.676
624.32	28.887
624.65	28.460
624.99	28.683
625.32	28.385
625.65	29.226
625.98	30.284
626.31	29.938
626.64	29.469
626.97	29.593
627.30	29.343
627.63	30.025
627.96	30.446
628.29	29.746
628.62	29.918
628.95	31.415
629.28	29.927
629.61	29.973
629.94	30.952
630.26	29.838
630.59	31.649
630.92	29.215
631.25	29.220
631.58	31.632
631.91	29.615
632.24	29.325
632.57	29.696
632.90	29.934
633.23	30.537
633.56	31.977
633.89	30.011
634.22	30.079
634.55	30.888
634.88	31.018
635.20	30.227
635.53	32.410
635.86	30.941
636.19	30.235
636.52	31.373
636.85	30.699
637.18	29.378
637.51	30.378
637.83	27.867
638.16	30.435
638.49	31.234
638.82	32.996
639.15	32.625
639.48	32.170
639.81	32.574
640.13	31.510
640.46	31.141
640.79	30.383
641.12	29.161
641.45	32.263
641.77	30.633
642.10	30.556
642.43	31.081
642.76	32.353
643.09	31.748
643.41	32.018
643.74	32.099
644.07	32.317
644.40	32.515
644.73	33.071
645.05	33.597
645.38	32.701
645.71	32.528
646.04	33.887
646.36	32.053
646.69	33.612
647.02	31.803
647.35	31.959
647.67	34.159
648.00	31.057
648.33	31.353
648.66	30.606
648.98	32.834
649.31	29.596
649.64	31.689
649.96	31.893
650.29	32.859
650.62	33.333
650.94	34.522
651.27	32.939
651.60	33.278
651.92	32.268
652.25	30.619
652.58	32.710
652.90	31.280
653.23	32.357
653.56	30.394
653.88	32.013
654.21	33.649
654.54	33.498
654.86	30.997
655.19	30.811
655.52	22.893
655.84	23.636
656.17	31.264
656.49	41.239
656.82	40.689
657.15	29.520
657.47	21.546
657.80	16.066
658.13	16.254
658.45	23.936
658.78	23.611
659.10	24.154
659.43	24.915
659.75	25.368
660.08	27.089
660.41	29.888
660.73	31.639
661.06	29.936
661.38	32.909
661.71	33.269
662.03	33.531
662.36	28.231
662.68	33.735
663.01	34.949
663.33	35.244
663.66	35.714
663.98	33.477
664.31	32.563
664.63	31.377
664.96	33.803
665.28	34.016
665.61	32.359
665.93	31.791
666.26	33.266
666.58	33.891
666.91	34.249
667.23	34.831
667.56	33.261
667.88	33.974
668.21	34.115
668.53	31.453
668.86	33.333
669.18	34.755
669.50	32.174
669.83	33.987
670.15	34.667
670.48	35.294
670.80	36.853
671.13	35.456
671.45	31.277
671.77	34.216
672.10	33.641
672.42	32.686
672.75	29.519
673.07	32.570
673.39	30.199
673.72	31.250
674.04	33.725
674.37	32.233
674.69	32.924
675.01	34.310
675.34	35.729
675.66	35.579
675.98	33.809
676.31	32.143
676.63	32.484
676.95	34.172
677.28	34.579
677.60	35.604
677.92	34.388
678.25	32.444
678.57	34.861
678.89	34.068
679.22	33.006
679.54	33.588
679.86	33.028
680.18	32.200
680.51	32.447
680.83	33.986
681.15	32.830
681.48	34.783
681.80	32.882
682.12	33.908
682.44	33.269
682.77	33.809
683.09	36.266
683.41	35.698
683.73	35.541
684.06	34.917
684.38	33.464
684.70	34.690
685.02	33.959
685.34	32.967
685.67	31.469
685.99	32.302
686.31	32.765
686.63	30.212
686.96	30.893
687.28	32.310
687.60	28.986
687.92	36.197
688.24	33.080
688.56	33.936
688.89	35.062
689.21	35.590
689.53	34.029
689.85	37.029
690.17	32.091
690.49	32.909
690.82	35.514
691.14	33.036
691.46	31.224
691.78	34.538
692.10	35.331
692.42	32.934
692.74	32.365
693.06	33.830
693.39	33.265
693.71	36.026
694.03	34.526
694.35	34.416
694.67	32.952
694.99	33.902
695.31	36.520
695.63	35.646
695.95	34.719
696.27	34.518
696.59	33.938
696.91	37.565
697.23	31.455
697.56	34.115
697.88	30.879
698.20	33.333
698.52	30.538
698.84	36.080
699.16	33.871
699.48	35.392
699.80	34.058
700.12	37.143
700.44	36.870
700.76	38.674
701.08	37.356
701.40	36.313
701.72	38.192
702.04	41.477
702.36	37.110
702.68	35.977
703.00	36.842
703.32	34.309
703.64	38.874
703.96	35.097
704.28	37.791
704.60	36.364
704.91	37.685
705.23	35.484
705.55	41.528
705.87	44.186
706.19	38.869
706.51	37.072
706.83	39.091
707.15	36.695
707.47	37.626
707.79	37.838
708.11	34.932
708.43	36.667
708.74	34.949
709.06	37.922
709.38	36.483
709.70	35.465
710.02	39.466
710.34	37.273
710.66	38.806
710.98	36.932
711.29	40.116
711.61	40.413
711.93	40.705
712.25	38.264
712.57	39.338
712.89	41.869
713.20	36.170
713.52	42.105
713.84	34.810
714.16	39.024
714.48	38.793
714.80	41.033
715.11	39.193
715.43	35.608
715.75	35.072
716.07	39.617
716.39	39.498
716.70	37.542
717.02	39.928
717.34	37.102
717.66	43.284
717.97	45.817
718.29	40.370
718.61	42.336
718.93	41.912
719.24	42.907
719.56	41.017
719.88	39.322
720.20	38.176
720.51	43.206
720.83	44.238
721.15	39.925
721.46	42.553
721.78	43.011
722.10	44.906
722.42	43.609
722.73	46.442
723.05	40.164
723.37	40.081
723.68	47.490
724.00	43.089
724.32	47.984
724.63	43.902
724.95	46.025
725.27	41.700
725.58	47.266
725.90	43.066
726.22	42.264
726.53	38.194
726.85	37.543
727.16	42.705
727.48	41.844
727.80	39.015
728.11	40.580
728.43	40.385
728.74	41.219
729.06	44.526
729.38	43.750
729.69	43.416
730.01	38.908
730.32	41.319
730.64	42.475
730.96	36.634
731.27	44.040
731.59	42.508
731.90	42.857
732.22	39.130
732.53	37.152
732.85	40.385
733.16	35.370
733.48	42.193
733.80	43.831
734.11	36.624
734.43	37.278
734.74	41.143
735.06	39.255
735.37	39.017
735.69	35.987
736.00	41.830
736.32	42.368
736.63	33.866
736.95	37.380
737.26	34.694
737.58	38.387
737.89	40.134
738.21	42.321
738.52	36.429
738.83	38.868
739.15	37.308
739.46	44.891
739.78	41.667
740.09	39.385
740.41	42.258
740.72	37.282
741.04	42.222
741.35	41.667
741.66	46.222
741.98	46.698
742.29	48.804
742.61	49.138
742.92	42.081
743.23	41.880
743.55	42.800
743.86	45.614
744.18	49.558
744.49	45.455
744.80	46.948
745.12	53.636
745.43	50.661
745.74	50.901
746.06	44.495
746.37	50.673
746.68	44.344
747.00	48.148
747.31	50.952
747.62	42.920
747.94	45.815
748.25	39.149
748.56	52.423
748.88	45.050
749.19	49.500
749.50	48.837
749.82	44.309
750.13	46.122
750.44	41.971
750.75	43.509
751.07	42.444
751.38	43.206
751.69	44.765
752.01	43.233
752.32	38.267
752.63	38.298
752.94	44.672
753.26	44.400
753.57	36.179
753.88	47.656
754.19	41.071
754.51	42.708
754.82	37.906
755.13	43.019
755.44	43.609
755.75	38.321
756.07	37.943
756.38	38.321
756.69	35.906
757.00	39.222
757.31	38.576
757.63	38.304
757.94	36.997
758.25	38.480
758.56	37.531
758.87	31.989
759.18	38.182
759.50	36.050
759.81	40.498
760.12	38.125
760.43	37.536
760.74	39.946
761.05	38.136
761.36	37.166
761.67	38.352
761.99	36.646
762.30	47.569
762.61	46.183
762.92	44.141
763.23	44.958
763.54	46.800
763.85	43.359
764.16	48.846
764.47	44.487
764.78	40.283
765.10	40.506
765.41	39.528
765.72	39.820
766.03	41.693
766.34	41.000
766.65	45.532
766.96	43.162
767.27	49.239
767.58	52.083
767.89	54.211
768.20	50.575
768.51	50.761
768.82	43.578
769.13	41.870
769.44	40.891
769.75	45.064
770.06	44.495
770.37	47.964
770.68	46.759
770.99	44.000
771.30	38.115
771.61	48.879
771.92	46.721
772.23	50.000
772.54	47.692
772.85	53.927
773.16	52.660
773.47	60.326
773.78	49.746
774.09	53.571
774.39	52.632
774.70	53.086
775.01	59.420
775.32	60.784
775.63	55.921
775.94	56.115
776.25	67.717
776.56	62.687
776.87	63.934
777.18	64.844
777.48	64.122
777.79	59.091
778.10	64.444
778.41	68.750
778.72	51.095
779.03	59.060
779.34	51.007
779.65	50.676
779.95	59.509
780.26	58.824
780.57	62.759
780.88	64.062
781.19	59.398
781.50	68.243
781.80	57.233
782.11	48.588
782.42	51.266
782.73	49.080
783.04	57.432
783.34	62.676
783.65	57.534
783.96	64.925
784.27	60.140
784.57	54.676
784.88	58.333
785.19	65.079
785.50	68.868
785.81	58.955
786.11	74.590
786.42	66.667
786.73	65.487
787.04	75.472
787.34	69.643
787.65	70.000
787.96	65.766
788.26	78.512
788.57	72.881
788.88	72.727
789.19	54.861
789.49	73.485
789.80	62.595
790.11	83.810
790.41	83.168
790.72	91.566
791.03	82.609
791.33	91.860
791.64	75.258
791.95	79.208
792.25	80.000
792.56	92.208
792.87	101.282
793.17	94.937
793.48	90.805
793.79	86.207
794.09	87.500
794.40	63.866
794.70	63.971
795.01	60.741
795.32	66.187
795.62	66.142
795.93	62.931
796.23	66.372
796.54	78.824
796.85	85.135
797.15	95.775
797.46	92.424
797.76	86.747
798.07	84.810
798.37	103.077
798.68	87.879
798.99	84.507
799.29	90.909
799.60	81.818
799.90	87.671
800.21	95.522
800.51	105.172
800.82	124.561
801.12	91.803
801.43	81.818
801.73	83.784
802.04	111.111
802.34	95.062
802.65	100.000
802.95	106.780
803.26	121.875
803.56	105.714
803.87	104.615
804.17	110.294
804.48	129.630
804.78	105.172
805.09	100.000
805.39	111.538
805.70	94.643
806.00	106.557
806.30	95.455
806.61	87.805
806.91	73.418
807.22	94.737
807.52	91.045
807.83	97.183
808.13	107.812
808.43	93.333
808.74	86.842
809.04	102.899
809.35	111.940
809.65	100.000
809.95	135.484
810.26	113.559
810.56	100.000
810.86	145.455
811.17	152.381
811.47	108.333
811.77	122.222
812.08	127.273
812.38	134.000
812.69	150.000
812.99	165.909
813.29	112.245
813.59	116.667
813.90	142.857
814.20	120.000
814.50	110.769
814.81	116.176
815.11	130.612
815.41	104.918
815.72	138.095
816.02	143.636
816.32	130.952
816.62	155.000
816.93	134.146
817.23	140.476
817.53	145.455
817.84	169.697
818.14	119.565
818.44	151.111
818.74	158.824
819.04	140.000
819.35	188.571
819.65	150.000
819.95	203.571
820.25	200.000
820.56	179.487
820.86	177.273
821.16	158.140
821.46	151.282
821.76	144.000
822.07	177.143
822.37	172.500
822.67	200.000
822.97	125.490
823.27	214.286
823.57	186.486
823.88	177.500
824.18	226.667
824.48	171.429
824.78	232.000
825.08	200.000
825.38	145.946
825.69	141.463
825.99	245.833
826.29	203.448
826.59	173.684
826.89	157.895
827.19	211.765
827.49	229.032
827.79	129.545
828.09	147.727
828.39	142.553
828.70	134.694
829.00	196.296
829.30	154.839
829.60	167.500
829.90	326.667
830.20	207.143
830.50	217.391
830.80	317.391
831.10	223.333
831.40	210.000
831.70	234.783
832.00	230.769
832.30	214.815
832.60	300.000
832.90	200.000
833.20	407.143
833.50	200.000
833.80	227.586
834.10	181.250
834.40	253.846
834.70	277.778
835.00	328.571
835.30	180.000
835.60	346.154
835.90	206.897
836.20	385.714
836.50	193.103
836.80	192.000
837.10	183.333
837.40	271.429
837.70	323.529
838.00	218.519
838.30	304.762
838.60	280.952
838.90	246.154
839.19	250.000
839.49	407.143
839.79	335.000
840.09	280.000
840.39	309.524
840.69	252.174
840.99	361.111
841.29	500.000
841.59	366.667
841.88	350.000
842.18	213.793
842.48	309.524
842.78	213.333
843.08	195.652
843.38	193.750
843.68	766.667
843.97	292.308
844.27	224.138
844.57	323.810
844.87	293.750
845.17	200.000
845.47	1700.000
845.76	544.444
846.06	370.588
846.36	525.000
846.66	414.286
846.96	331.250
847.25	363.636
847.55	500.000
847.85	247.826
848.15	630.000
848.44	385.714
848.74	227.778
849.04	335.294
849.34	600.000
849.63	273.684
849.93	400.000
850.23	880.000
850.53	400.000
850.82	2950.000
851.12	-4500.000
851.42	4700.000
851.71	315.000
852.01	-1100.000
852.31	233.333
852.61	1500.000
852.90	257.143
853.20	292.000
853.50	394.118
853.79	280.952
854.09	229.167
854.39	381.250
854.68	189.189
854.98	209.677
855.28	163.333
855.57	241.379
855.87	248.148
856.17	242.105
856.46	260.000
856.76	305.882
857.05	220.690
857.35	262.500
857.65	333.333
857.94	260.870
858.24	250.000
858.53	300.000
858.83	295.455
859.13	353.333
859.42	0.000
859.72	666.667
860.01	509.091
860.31	240.909
860.60	242.105
860.90	286.957
861.20	522.222
861.49	475.000
861.79	-4800.000
862.08	750.000
862.38	280.952
862.67	392.308
862.97	405.882
863.26	600.000
863.56	288.889
863.85	466.667
864.15	637.500
864.44	393.333
864.74	883.333
865.03	787.500
865.33	300.000
865.62	509.091
865.92	484.615
866.21	441.667
866.51	0.000
866.80	463.636
867.10	1060.000
867.39	438.462
867.69	518.182
867.98	331.579
868.27	518.182
868.57	321.053
868.86	-5300.000
869.16	337.500
869.45	2500.000
869.75	-5100.000
870.04	425.000
870.33	785.714
870.63	1175.000
870.92	3000.000
871.22	871.429
871.51	405.882
871.80	271.429
872.10	371.429
>>>>>End Processed Spectral Data<<<<<
