SpectraSuite Data File
++++++++++++++++++++++++++++++++++++
Date: Wed May 13 19:46:17 PDT 2015
User: schluterlab
Dark Spectrum Present: Yes
Reference Spectrum Present: Yes
Number of Sampled Component Spectra: 1
Spectrometers: USB2E3373
Integration Time (usec): 3000 (USB2E3373)
Spectra Averaged: 3 (USB2E3373)
Boxcar Smoothing: 0 (USB2E3373)
Correct for Electrical Dark: No (USB2E3373)
Strobe/Lamp Enabled: No (USB2E3373)
Correct for Detector Non-linearity: No (USB2E3373)
Correct for Stray Light: No (USB2E3373)
Number of Pixels in Processed Spectrum: 2048
>>>>>Begin Processed Spectral Data<<<<<
178.53	0.000
178.91	-1325.000
179.29	-1250.000
179.67	-222.222
180.04	-1350.000
180.42	2500.000
180.80	960.000
181.18	-1025.000
181.56	742.857
181.94	0.000
182.31	-571.429
182.69	1766.667
183.07	-600.000
183.45	-555.556
183.83	518.182
184.20	-390.000
184.58	2050.000
184.96	4900.000
185.34	-780.000
185.72	-587.500
186.09	-2200.000
186.47	2550.000
186.85	2700.000
187.23	5000.000
187.61	-1600.000
187.98	1425.000
188.36	527.273
188.74	463.636
189.12	-1020.000
189.49	540.000
189.87	-4700.000
190.25	-1300.000
190.63	428.571
191.00	415.385
191.38	766.667
191.76	-1075.000
192.14	1375.000
192.51	675.000
192.89	866.667
193.27	700.000
193.65	-1100.000
194.02	510.000
194.40	960.000
194.78	530.000
195.15	416.667
195.53	690.000
195.91	-1950.000
196.29	400.000
196.66	336.842
197.04	-360.000
197.42	0.000
197.79	580.000
198.17	-4500.000
198.55	614.286
198.92	662.500
199.30	880.000
199.68	0.000
200.05	294.444
200.43	614.286
200.81	3200.000
201.18	1600.000
201.56	-1800.000
201.94	477.778
202.31	644.444
202.69	391.667
203.07	560.000
203.44	0.000
203.82	1475.000
204.19	814.286
204.57	378.571
204.95	687.500
205.32	1866.667
205.70	463.636
206.08	364.286
206.45	2400.000
206.83	337.500
207.20	966.667
207.58	780.000
207.96	300.000
208.33	812.500
208.71	-700.000
209.08	714.286
209.46	477.778
209.84	463.636
210.21	-1300.000
210.59	1375.000
210.96	-537.500
211.34	2650.000
211.71	700.000
212.09	800.000
212.46	0.000
212.84	2033.333
213.22	1275.000
213.59	-4500.000
213.97	850.000
214.34	757.143
214.72	563.636
215.09	1060.000
215.47	-2800.000
215.84	-2300.000
216.22	1433.333
216.59	435.714
216.97	1375.000
217.34	490.909
217.72	-783.333
218.09	0.000
218.47	-4400.000
218.84	655.556
219.22	685.714
219.59	1733.333
219.97	-657.143
220.34	920.000
220.72	-1833.333
221.09	357.143
221.47	1425.000
221.84	-916.667
222.22	0.000
222.59	1225.000
222.97	-2250.000
223.34	1220.000
223.72	361.538
224.09	960.000
224.46	2300.000
224.84	-3500.000
225.21	-920.000
225.59	-5100.000
225.96	620.000
226.34	295.000
226.71	2800.000
227.08	637.500
227.46	480.000
227.83	-900.000
228.21	-2150.000
228.58	611.111
228.95	-2650.000
229.33	-2050.000
229.70	1800.000
230.08	857.143
230.45	-880.000
230.82	433.333
231.20	800.000
231.57	828.571
231.95	541.667
232.32	213.636
232.69	418.182
233.07	714.286
233.44	323.077
233.81	-1833.333
234.19	284.211
234.56	483.333
234.93	400.000
235.31	436.364
235.68	284.615
236.05	350.000
236.43	215.152
236.80	289.474
237.17	4500.000
237.55	180.952
237.92	185.714
238.29	233.333
238.67	180.645
239.04	210.345
239.41	161.111
239.79	84.783
240.16	126.190
240.53	131.818
240.91	100.000
241.28	114.000
241.65	112.000
242.02	88.406
242.40	82.258
242.77	66.667
243.14	69.892
243.51	69.663
243.89	57.647
244.26	66.667
244.63	59.140
245.00	55.319
245.38	60.396
245.75	54.206
246.12	53.211
246.49	51.095
246.87	56.000
247.24	54.615
247.61	41.429
247.98	40.523
248.36	36.486
248.73	36.943
249.10	45.860
249.47	41.243
249.84	38.503
250.22	40.642
250.59	40.828
250.96	42.424
251.33	37.441
251.70	43.564
252.08	33.810
252.45	32.287
252.82	32.174
253.19	37.447
253.56	31.765
253.94	31.535
254.31	36.328
254.68	35.000
255.05	32.841
255.42	31.707
255.79	31.250
256.16	33.213
256.54	25.795
256.91	30.961
257.28	25.180
257.65	30.363
258.02	26.708
258.39	28.076
258.76	23.746
259.14	25.595
259.51	26.444
259.88	25.776
260.25	28.399
260.62	27.457
260.99	22.360
261.36	26.426
261.73	26.074
262.10	26.744
262.47	25.634
262.85	22.006
263.22	22.507
263.59	23.932
263.96	25.824
264.33	22.715
264.70	22.368
265.07	27.110
265.44	22.222
265.81	21.411
266.18	21.608
266.55	24.390
266.92	22.113
267.29	24.306
267.66	25.000
268.03	24.091
268.40	21.495
268.77	23.150
269.14	22.748
269.51	22.348
269.88	22.378
270.25	23.702
270.62	21.798
270.99	24.516
271.36	18.884
271.73	23.598
272.10	20.870
272.47	22.151
272.84	22.294
273.21	20.964
273.58	19.214
273.95	20.335
274.32	20.455
274.69	20.771
275.06	19.882
275.43	20.426
275.80	20.641
276.17	19.552
276.54	21.414
276.91	21.146
277.28	21.094
277.65	19.923
278.02	20.083
278.39	20.898
278.76	19.636
279.13	20.000
279.50	19.181
279.87	22.908
280.23	20.359
280.60	18.375
280.97	18.669
281.34	20.531
281.71	21.455
282.08	20.537
282.45	19.273
282.82	20.071
283.19	18.182
283.56	18.596
283.92	21.151
284.29	18.695
284.66	19.782
285.03	16.817
285.40	18.486
285.77	18.013
286.14	18.135
286.51	19.000
286.87	19.316
287.24	19.381
287.61	16.372
287.98	18.182
288.35	16.482
288.72	16.667
289.08	17.684
289.45	17.792
289.82	17.236
290.19	16.484
290.56	16.692
290.93	14.955
291.29	15.798
291.66	15.192
292.03	18.750
292.40	18.502
292.77	16.568
293.13	17.015
293.50	16.327
293.87	17.926
294.24	15.556
294.60	14.993
294.97	17.151
295.34	16.361
295.71	15.199
296.08	14.530
296.44	14.993
296.81	15.192
297.18	18.293
297.55	13.984
297.91	15.303
298.28	15.529
298.65	15.666
299.02	14.229
299.38	15.405
299.75	11.995
300.12	12.899
300.48	14.125
300.85	15.536
301.22	13.885
301.59	12.879
301.95	12.972
302.32	14.506
302.69	12.306
303.05	14.182
303.42	12.716
303.79	13.930
304.15	11.888
304.52	11.356
304.89	13.937
305.25	12.413
305.62	14.270
305.99	12.633
306.35	14.318
306.72	12.780
307.09	14.983
307.45	13.401
307.82	13.058
308.19	13.576
308.55	14.132
308.92	11.815
309.29	12.460
309.65	11.665
310.02	13.108
310.38	13.441
310.75	13.200
311.12	13.306
311.48	12.121
311.85	12.788
312.22	12.799
312.58	12.786
312.95	12.355
313.31	11.456
313.68	11.331
314.05	14.103
314.41	12.563
314.78	12.790
315.14	12.214
315.51	12.461
315.87	12.376
316.24	13.208
316.61	11.501
316.97	12.720
317.34	11.350
317.70	12.620
318.07	12.608
318.43	11.350
318.80	12.933
319.16	11.864
319.53	11.445
319.89	13.429
320.26	13.100
320.62	12.103
320.99	12.727
321.35	11.717
321.72	12.320
322.08	12.932
322.45	14.627
322.81	12.694
323.18	13.584
323.54	13.451
323.91	13.302
324.27	13.576
324.64	12.116
325.00	12.263
325.37	12.648
325.73	13.196
326.10	12.004
326.46	12.097
326.83	12.511
327.19	12.383
327.56	12.979
327.92	13.211
328.29	14.108
328.65	13.260
329.01	13.448
329.38	13.136
329.74	14.312
330.11	11.970
330.47	13.958
330.84	13.695
331.20	13.570
331.56	14.128
331.93	12.963
332.29	12.866
332.66	14.779
333.02	12.797
333.38	14.273
333.75	13.102
334.11	13.345
334.48	12.600
334.84	13.603
335.20	12.909
335.57	13.327
335.93	11.964
336.29	12.729
336.66	12.624
337.02	12.127
337.38	12.500
337.75	12.923
338.11	13.429
338.47	13.444
338.84	13.291
339.20	11.468
339.56	14.051
339.93	12.818
340.29	12.772
340.65	13.102
341.02	13.438
341.38	12.722
341.74	12.368
342.11	13.013
342.47	12.952
342.83	13.014
343.20	13.680
343.56	12.553
343.92	12.719
344.28	12.755
344.65	12.038
345.01	12.710
345.37	11.578
345.73	13.198
346.10	12.873
346.46	12.966
346.82	12.273
347.19	12.782
347.55	12.151
347.91	12.217
348.27	13.065
348.63	12.709
349.00	12.460
349.36	12.808
349.72	12.670
350.08	11.831
350.45	13.263
350.81	11.617
351.17	13.290
351.53	12.367
351.89	12.211
352.26	13.339
352.62	11.949
352.98	12.480
353.34	13.394
353.70	11.293
354.07	12.581
354.43	11.746
354.79	11.665
355.15	11.812
355.51	12.790
355.87	11.837
356.24	12.052
356.60	11.067
356.96	11.665
357.32	12.101
357.68	12.598
358.04	12.035
358.40	11.322
358.77	12.207
359.13	10.655
359.49	11.529
359.85	9.603
360.21	10.766
360.57	12.140
360.93	12.154
361.29	11.338
361.66	11.455
362.02	11.791
362.38	12.015
362.74	11.905
363.10	11.769
363.46	10.638
363.82	10.506
364.18	11.894
364.54	12.556
364.90	12.110
365.26	10.809
365.62	11.030
365.98	11.176
366.35	10.172
366.71	12.292
367.07	11.143
367.43	10.885
367.79	10.992
368.15	12.069
368.51	9.593
368.87	11.135
369.23	10.168
369.59	11.007
369.95	10.809
370.31	11.111
370.67	11.304
371.03	12.135
371.39	11.224
371.75	11.176
372.11	10.811
372.47	11.730
372.83	11.239
373.19	10.910
373.55	10.865
373.91	12.003
374.27	11.271
374.63	11.200
374.99	11.723
375.35	11.584
375.71	10.212
376.07	10.768
376.42	11.004
376.78	10.934
377.14	10.380
377.50	11.391
377.86	10.505
378.22	10.999
378.58	10.213
378.94	9.679
379.30	11.132
379.66	10.723
380.02	11.057
380.38	9.836
380.74	11.345
381.09	10.513
381.45	10.326
381.81	10.995
382.17	11.019
382.53	10.629
382.89	10.679
383.25	10.569
383.61	11.524
383.97	10.819
384.32	10.293
384.68	9.975
385.04	10.203
385.40	9.845
385.76	10.627
386.12	10.751
386.48	10.384
386.83	10.199
387.19	11.688
387.55	10.019
387.91	10.883
388.27	10.116
388.62	10.264
388.98	10.627
389.34	11.139
389.70	11.097
390.06	10.773
390.42	10.636
390.77	10.941
391.13	11.104
391.49	11.421
391.85	10.630
392.20	9.716
392.56	10.606
392.92	10.359
393.28	10.000
393.64	9.892
393.99	10.629
394.35	10.546
394.71	10.602
395.07	9.533
395.42	10.569
395.78	9.542
396.14	10.056
396.50	10.652
396.85	10.553
397.21	9.988
397.57	10.911
397.92	10.577
398.28	9.641
398.64	10.335
399.00	9.681
399.35	9.927
399.71	10.127
400.07	10.408
400.42	10.675
400.78	10.856
401.14	10.488
401.49	10.328
401.85	9.558
402.21	9.401
402.57	9.994
402.92	9.962
403.28	10.431
403.63	10.210
403.99	9.427
404.35	10.667
404.70	9.592
405.06	9.843
405.42	10.293
405.77	10.571
406.13	10.440
406.49	10.290
406.84	9.982
407.20	9.161
407.55	10.402
407.91	11.200
408.27	9.955
408.62	9.994
408.98	9.620
409.34	9.840
409.69	11.161
410.05	9.665
410.40	9.908
410.76	10.454
411.11	10.495
411.47	10.224
411.83	10.446
412.18	10.266
412.54	10.087
412.89	10.181
413.25	10.035
413.60	10.439
413.96	10.018
414.31	9.599
414.67	10.203
415.03	10.132
415.38	11.147
415.74	9.968
416.09	10.385
416.45	10.107
416.80	10.311
417.16	10.858
417.51	10.683
417.87	10.983
418.22	10.789
418.58	10.910
418.93	10.504
419.29	9.930
419.64	10.390
420.00	10.122
420.35	10.493
420.71	10.879
421.06	10.382
421.42	10.526
421.77	10.202
422.12	9.714
422.48	9.768
422.83	10.076
423.19	10.331
423.54	10.157
423.90	10.609
424.25	9.994
424.61	10.000
424.96	10.496
425.31	10.742
425.67	10.337
426.02	10.571
426.38	10.379
426.73	9.830
427.09	10.091
427.44	10.638
427.79	10.466
428.15	10.833
428.50	10.298
428.85	10.667
429.21	9.166
429.56	9.642
429.92	9.965
430.27	9.633
430.62	9.882
430.98	9.549
431.33	9.948
431.68	10.000
432.04	10.650
432.39	10.166
432.74	10.592
433.10	10.017
433.45	10.962
433.80	9.645
434.16	9.669
434.51	9.474
434.86	10.661
435.22	10.006
435.57	9.240
435.92	10.357
436.28	10.735
436.63	11.093
436.98	10.475
437.34	10.495
437.69	10.910
438.04	9.893
438.39	10.806
438.75	10.575
439.10	10.559
439.45	10.390
439.81	10.030
440.16	9.825
440.51	10.955
440.86	10.249
441.22	10.178
441.57	9.873
441.92	9.928
442.27	10.280
442.63	9.531
442.98	10.310
443.33	10.217
443.68	10.428
444.03	10.054
444.39	9.932
444.74	10.552
445.09	10.674
445.44	10.224
445.79	10.539
446.15	10.323
446.50	10.501
446.85	9.815
447.20	9.995
447.55	10.106
447.91	9.653
448.26	9.794
448.61	10.175
448.96	10.742
449.31	10.236
449.66	10.692
450.02	9.694
450.37	9.467
450.72	9.983
451.07	10.299
451.42	10.030
451.77	11.450
452.12	10.393
452.47	9.950
452.83	9.965
453.18	10.513
453.53	10.637
453.88	10.396
454.23	11.237
454.58	10.660
454.93	11.252
455.28	10.037
455.63	11.104
455.98	11.012
456.34	10.741
456.69	10.269
457.04	10.836
457.39	9.819
457.74	10.911
458.09	10.063
458.44	10.832
458.79	9.816
459.14	11.230
459.49	11.267
459.84	10.803
460.19	10.371
460.54	10.243
460.89	10.806
461.24	9.836
461.59	12.260
461.94	11.036
462.29	11.335
462.64	10.593
462.99	11.386
463.34	11.467
463.69	11.132
464.04	11.594
464.39	10.783
464.74	11.289
465.09	10.796
465.44	10.582
465.79	10.403
466.14	11.111
466.49	10.790
466.84	11.267
467.19	10.923
467.54	11.188
467.89	10.084
468.24	10.413
468.59	10.989
468.94	10.690
469.29	11.632
469.64	11.580
469.99	10.758
470.34	10.172
470.68	11.782
471.03	11.224
471.38	11.744
471.73	11.392
472.08	11.053
472.43	10.867
472.78	10.336
473.13	11.232
473.48	11.236
473.83	10.732
474.17	10.205
474.52	10.732
474.87	11.734
475.22	10.853
475.57	11.069
475.92	10.568
476.27	11.048
476.61	10.425
476.96	10.720
477.31	10.518
477.66	10.175
478.01	10.141
478.36	10.418
478.70	10.488
479.05	10.330
479.40	10.594
479.75	10.727
480.10	10.487
480.45	10.519
480.79	9.938
481.14	10.763
481.49	10.062
481.84	10.242
482.19	9.768
482.53	10.872
482.88	11.168
483.23	10.280
483.58	10.146
483.92	10.309
484.27	9.499
484.62	10.345
484.97	9.657
485.31	9.726
485.66	8.284
486.01	7.793
486.36	7.461
486.70	7.980
487.05	8.502
487.40	8.810
487.75	8.927
488.09	9.948
488.44	9.773
488.79	9.946
489.13	9.626
489.48	9.951
489.83	9.495
490.17	9.908
490.52	10.275
490.87	9.860
491.22	9.732
491.56	9.977
491.91	10.470
492.26	10.014
492.60	10.369
492.95	9.682
493.30	9.766
493.64	9.426
493.99	9.889
494.34	10.453
494.68	10.302
495.03	10.667
495.37	10.098
495.72	10.673
496.07	10.209
496.41	9.779
496.76	10.334
497.11	9.680
497.45	10.014
497.80	10.365
498.14	10.000
498.49	10.390
498.84	11.361
499.18	10.238
499.53	9.924
499.87	10.438
500.22	10.457
500.56	10.874
500.91	10.096
501.26	10.100
501.60	10.584
501.95	10.403
502.29	10.075
502.64	9.870
502.98	10.051
503.33	10.146
503.67	9.977
504.02	10.430
504.36	10.856
504.71	10.064
505.06	10.843
505.40	10.063
505.75	9.884
506.09	10.204
506.44	10.705
506.78	10.765
507.13	10.803
507.47	11.111
507.82	11.145
508.16	10.942
508.51	10.299
508.85	10.725
509.19	11.071
509.54	10.000
509.88	10.355
510.23	10.386
510.57	11.404
510.92	10.875
511.26	10.226
511.61	10.944
511.95	10.595
512.30	10.127
512.64	10.747
512.98	10.772
513.33	11.028
513.67	11.046
514.02	10.011
514.36	10.650
514.70	10.515
515.05	10.653
515.39	11.049
515.74	10.529
516.08	10.900
516.42	11.043
516.77	11.706
517.11	10.988
517.46	11.005
517.80	10.976
518.14	10.886
518.49	11.377
518.83	11.023
519.17	11.490
519.52	10.300
519.86	11.067
520.20	11.850
520.55	11.550
520.89	12.044
521.23	11.399
521.58	11.104
521.92	11.513
522.26	10.738
522.61	11.464
522.95	11.664
523.29	11.077
523.64	12.073
523.98	11.768
524.32	12.002
524.66	10.884
525.01	11.581
525.35	10.967
525.69	11.084
526.04	12.087
526.38	10.555
526.72	12.086
527.06	12.367
527.41	11.200
527.75	11.704
528.09	11.368
528.43	11.855
528.78	11.739
529.12	11.697
529.46	11.941
529.80	11.510
530.15	12.212
530.49	12.246
530.83	11.392
531.17	12.206
531.51	12.062
531.86	11.548
532.20	12.190
532.54	12.748
532.88	11.489
533.22	10.493
533.57	12.037
533.91	11.921
534.25	11.786
534.59	10.921
534.93	11.243
535.27	11.587
535.62	11.966
535.96	12.492
536.30	11.443
536.64	12.041
536.98	13.404
537.32	11.916
537.66	11.667
538.01	11.652
538.35	13.122
538.69	12.380
539.03	11.631
539.37	11.693
539.71	10.823
540.05	11.699
540.39	11.894
540.73	12.160
541.07	11.940
541.42	12.851
541.76	12.065
542.10	12.160
542.44	12.053
542.78	12.253
543.12	10.621
543.46	12.328
543.80	12.232
544.14	11.489
544.48	12.127
544.82	10.904
545.16	12.167
545.50	12.853
545.84	12.097
546.18	11.919
546.52	12.595
546.86	11.546
547.20	12.407
547.54	12.558
547.88	12.628
548.22	11.582
548.56	11.887
548.90	11.908
549.24	11.852
549.58	13.097
549.92	12.431
550.26	12.500
550.60	11.895
550.94	12.465
551.28	10.900
551.62	13.300
551.96	12.281
552.30	13.174
552.64	12.644
552.98	12.881
553.32	13.284
553.66	13.497
554.00	12.491
554.34	11.801
554.68	13.305
555.02	11.918
555.36	12.457
555.69	12.720
556.03	12.315
556.37	11.050
556.71	12.074
557.05	12.325
557.39	12.736
557.73	12.562
558.07	12.763
558.41	12.518
558.75	12.785
559.08	12.901
559.42	13.001
559.76	13.382
560.10	12.634
560.44	12.159
560.78	11.643
561.12	12.665
561.45	12.516
561.79	12.129
562.13	12.542
562.47	12.705
562.81	12.064
563.15	11.973
563.48	12.268
563.82	12.264
564.16	11.249
564.50	10.352
564.84	11.884
565.17	11.068
565.51	11.949
565.85	11.675
566.19	11.209
566.52	11.970
566.86	11.272
567.20	11.792
567.54	11.530
567.88	10.266
568.21	10.899
568.55	10.920
568.89	11.187
569.23	10.873
569.56	10.324
569.90	10.226
570.24	9.724
570.57	9.147
570.91	9.470
571.25	9.327
571.59	9.838
571.92	9.447
572.26	9.157
572.60	10.210
572.93	9.445
573.27	9.701
573.61	9.659
573.95	10.052
574.28	9.095
574.62	9.257
574.96	9.128
575.29	9.239
575.63	9.451
575.97	9.268
576.30	9.214
576.64	9.502
576.98	9.212
577.31	9.127
577.65	9.012
577.98	8.967
578.32	8.896
578.66	9.036
578.99	9.336
579.33	9.247
579.67	9.049
580.00	9.422
580.34	9.326
580.67	9.194
581.01	9.220
581.35	9.143
581.68	8.815
582.02	8.623
582.35	8.680
582.69	9.058
583.02	8.998
583.36	9.223
583.70	9.790
584.03	9.796
584.37	9.960
584.70	9.457
585.04	9.393
585.37	9.390
585.71	9.445
586.04	9.133
586.38	9.195
586.72	9.666
587.05	9.671
587.39	8.892
587.72	9.353
588.06	9.418
588.39	9.712
588.73	9.358
589.06	10.190
589.40	9.731
589.73	9.996
590.07	9.715
590.40	9.536
590.73	10.461
591.07	10.948
591.40	10.502
591.74	11.082
592.07	10.646
592.41	10.624
592.74	10.112
593.08	9.760
593.41	9.649
593.75	9.681
594.08	9.856
594.41	10.039
594.75	10.018
595.08	10.200
595.42	10.683
595.75	10.363
596.09	10.439
596.42	10.648
596.75	10.933
597.09	10.649
597.42	10.202
597.75	10.737
598.09	10.696
598.42	10.696
598.76	10.134
599.09	10.072
599.42	9.534
599.76	10.066
600.09	9.763
600.42	9.788
600.76	9.571
601.09	9.690
601.42	9.817
601.76	10.892
602.09	10.435
602.42	10.947
602.76	11.044
603.09	10.779
603.42	10.543
603.76	9.756
604.09	10.081
604.42	10.151
604.76	10.966
605.09	10.660
605.42	10.389
605.75	10.182
606.09	10.207
606.42	10.135
606.75	10.535
607.09	10.590
607.42	10.312
607.75	10.464
608.08	10.030
608.42	11.206
608.75	10.730
609.08	10.731
609.41	11.090
609.75	10.815
610.08	11.310
610.41	10.382
610.74	10.454
611.07	10.820
611.41	10.697
611.74	10.960
612.07	10.870
612.40	11.280
612.73	11.632
613.07	11.692
613.40	11.427
613.73	10.488
614.06	10.538
614.39	11.851
614.72	11.158
615.06	11.765
615.39	10.775
615.72	11.094
616.05	10.739
616.38	10.784
616.71	11.401
617.05	11.249
617.38	10.704
617.71	10.871
618.04	10.998
618.37	10.999
618.70	11.077
619.03	12.237
619.36	11.948
619.69	12.606
620.03	12.294
620.36	11.832
620.69	12.671
621.02	13.053
621.35	12.138
621.68	12.383
622.01	12.152
622.34	12.784
622.67	12.015
623.00	11.665
623.33	11.508
623.66	11.365
623.99	12.003
624.32	11.484
624.65	12.288
624.99	11.119
625.32	11.875
625.65	11.871
625.98	12.375
626.31	12.597
626.64	13.388
626.97	12.219
627.30	13.549
627.63	13.372
627.96	13.625
628.29	13.736
628.62	13.175
628.95	15.377
629.28	13.412
629.61	14.115
629.94	13.714
630.26	13.727
630.59	13.632
630.92	12.165
631.25	12.833
631.58	13.814
631.91	13.590
632.24	13.713
632.57	14.166
632.90	13.596
633.23	14.541
633.56	15.254
633.89	15.062
634.22	13.734
634.55	15.740
634.88	14.850
635.20	15.890
635.53	15.060
635.86	14.604
636.19	14.353
636.52	15.110
636.85	15.349
637.18	13.710
637.51	15.485
637.83	12.947
638.16	14.450
638.49	14.736
638.82	15.929
639.15	15.375
639.48	16.334
639.81	15.952
640.13	17.057
640.46	15.034
640.79	16.777
641.12	13.755
641.45	16.620
641.77	16.789
642.10	16.228
642.43	15.916
642.76	16.563
643.09	16.564
643.41	15.478
643.74	18.981
644.07	15.549
644.40	19.018
644.73	18.583
645.05	18.700
645.38	16.588
645.71	16.425
646.04	17.110
646.36	18.197
646.69	18.395
647.02	16.837
647.35	16.323
647.67	16.460
648.00	17.073
648.33	16.997
648.66	15.606
648.98	18.141
649.31	16.891
649.64	16.442
649.96	17.288
650.29	18.009
650.62	19.256
650.94	17.180
651.27	16.723
651.60	16.972
651.92	19.169
652.25	16.287
652.58	17.445
652.90	17.378
653.23	15.562
653.56	17.008
653.88	16.957
654.21	17.220
654.54	15.842
654.86	17.445
655.19	14.865
655.52	9.145
655.84	6.435
656.17	8.101
656.49	11.192
656.82	11.908
657.15	9.617
657.47	7.307
657.80	5.895
658.13	6.338
658.45	9.726
658.78	9.928
659.10	10.703
659.43	11.368
659.75	12.014
660.08	13.861
660.41	14.898
660.73	17.027
661.06	15.764
661.38	21.273
661.71	17.885
662.03	18.935
662.36	18.688
662.68	19.277
663.01	18.182
663.33	17.197
663.66	18.908
663.98	20.302
664.31	16.387
664.63	19.838
664.96	17.706
665.28	20.697
665.61	20.078
665.93	19.316
666.26	17.647
666.58	17.782
666.91	21.564
667.23	22.247
667.56	18.575
667.88	21.795
668.21	20.469
668.53	18.438
668.86	17.100
669.18	21.322
669.50	17.826
669.83	22.004
670.15	23.556
670.48	17.211
670.80	16.595
671.13	19.533
671.45	17.447
671.77	20.367
672.10	19.224
672.42	20.318
672.75	18.408
673.07	16.021
673.39	16.637
673.72	17.383
674.04	18.235
674.37	17.670
674.69	17.178
675.01	18.201
675.34	22.587
675.66	21.684
675.98	18.534
676.31	20.168
676.63	20.594
676.95	20.545
677.28	16.589
677.60	20.879
677.92	24.051
678.25	18.686
678.57	18.725
678.89	18.637
679.22	18.075
679.54	18.511
679.86	19.083
680.18	17.174
680.51	18.262
680.83	19.039
681.15	18.113
681.48	19.471
681.80	17.795
682.12	15.709
682.44	17.021
682.77	19.145
683.09	20.815
683.41	22.173
683.73	20.088
684.06	19.835
684.38	18.200
684.70	15.698
685.02	18.386
685.34	17.949
685.67	15.909
685.99	16.495
686.31	16.553
686.63	15.901
686.96	17.321
687.28	17.329
687.60	18.478
687.92	18.464
688.24	18.251
688.56	19.076
688.89	17.842
689.21	18.996
689.53	18.580
689.85	19.956
690.17	18.219
690.49	18.684
690.82	20.327
691.14	17.187
691.46	16.667
691.78	18.474
692.10	19.008
692.42	18.962
692.74	16.390
693.06	17.660
693.39	19.097
693.71	19.651
694.03	21.474
694.35	17.316
694.67	18.993
694.99	21.220
695.31	19.853
695.63	17.464
695.95	20.049
696.27	17.513
696.59	21.503
696.91	20.725
697.23	17.840
697.56	19.616
697.88	17.382
698.20	19.167
698.52	17.419
698.84	19.822
699.16	15.438
699.48	20.428
699.80	16.908
700.12	23.377
700.44	22.016
700.76	22.099
701.08	23.276
701.40	20.670
701.72	21.574
702.04	25.852
702.36	18.980
702.68	22.380
703.00	20.222
703.32	20.479
703.64	19.839
703.96	20.334
704.28	23.547
704.60	26.393
704.91	23.739
705.23	21.994
705.55	25.581
705.87	25.249
706.19	23.675
706.51	27.103
706.83	23.939
707.15	25.210
707.47	19.697
707.79	18.919
708.11	20.320
708.43	19.048
708.74	17.602
709.06	21.818
709.38	22.310
709.70	21.512
710.02	25.816
710.34	20.303
710.66	22.090
710.98	24.432
711.29	21.802
711.61	27.139
711.93	23.077
712.25	24.759
712.57	22.059
712.89	23.529
713.20	25.532
713.52	24.013
713.84	23.418
714.16	27.439
714.48	21.264
714.80	26.748
715.11	21.326
715.43	23.442
715.75	24.348
716.07	22.684
716.39	22.257
716.70	26.910
717.02	24.101
717.34	21.555
717.66	28.731
717.97	26.693
718.29	27.407
718.61	24.088
718.93	29.412
719.24	25.606
719.56	26.780
719.88	25.763
720.20	24.324
720.51	27.875
720.83	26.766
721.15	26.119
721.46	25.177
721.78	25.806
722.10	27.925
722.42	27.444
722.73	28.090
723.05	29.098
723.37	27.126
723.68	27.413
724.00	27.236
724.32	24.597
724.63	23.984
724.95	25.105
725.27	29.150
725.58	26.953
725.90	25.547
726.22	30.566
726.53	25.694
726.85	26.280
727.16	28.470
727.48	27.305
727.80	28.030
728.11	27.536
728.43	26.923
728.74	24.731
729.06	31.022
729.38	30.882
729.69	26.335
730.01	25.597
730.32	23.958
730.64	27.759
730.96	20.132
731.27	26.821
731.59	25.994
731.90	24.490
732.22	24.534
732.53	21.362
732.85	25.000
733.16	22.186
733.48	24.917
733.80	23.701
734.11	23.567
734.43	26.923
734.74	21.429
735.06	18.052
735.37	25.723
735.69	21.975
736.00	23.529
736.32	26.168
736.63	23.323
736.95	23.003
737.26	20.068
737.58	20.323
737.89	25.084
738.21	25.597
738.52	25.357
738.83	23.774
739.15	27.308
739.46	26.642
739.78	24.653
740.09	24.615
740.41	21.613
740.72	24.042
741.04	25.556
741.35	25.833
741.66	31.556
741.98	27.358
742.29	33.971
742.61	31.034
742.92	29.864
743.23	27.778
743.55	32.000
743.86	32.018
744.18	35.398
744.49	28.230
744.80	29.577
745.12	31.818
745.43	25.110
745.74	34.234
746.06	30.734
746.37	31.839
746.68	28.959
747.00	32.407
747.31	30.476
747.62	23.894
747.94	28.634
748.25	25.532
748.56	33.480
748.88	27.723
749.19	32.500
749.50	32.093
749.82	28.455
750.13	25.306
750.44	21.533
750.75	27.018
751.07	28.296
751.38	26.481
751.69	24.910
752.01	21.805
752.32	26.715
752.63	25.177
752.94	26.230
753.26	29.200
753.57	24.390
753.88	28.516
754.19	22.857
754.51	28.125
754.82	21.300
755.13	24.528
755.44	27.820
755.75	25.912
756.07	26.950
756.38	22.628
756.69	23.826
757.00	23.653
757.31	21.365
757.63	21.637
757.94	20.912
758.25	19.608
758.56	19.506
758.87	17.742
759.18	24.545
759.50	24.451
759.81	21.495
760.12	19.687
760.43	22.350
760.74	23.098
761.05	19.492
761.36	20.321
761.67	21.307
761.99	22.360
762.30	23.611
762.61	25.573
762.92	32.422
763.23	28.571
763.54	30.800
763.85	24.609
764.16	30.385
764.47	29.658
764.78	24.382
765.10	19.620
765.41	22.714
765.72	27.246
766.03	21.630
766.34	26.333
766.65	33.617
766.96	27.778
767.27	35.533
767.58	31.771
767.89	33.158
768.20	39.655
768.51	31.980
768.82	29.817
769.13	26.829
769.44	25.101
769.75	28.755
770.06	21.101
770.37	35.294
770.68	30.093
770.99	25.333
771.30	24.180
771.61	27.803
771.92	26.639
772.23	35.714
772.54	32.821
772.85	31.937
773.16	35.106
773.47	38.587
773.78	41.117
774.09	30.952
774.39	35.673
774.70	37.037
775.01	40.580
775.32	38.562
775.63	41.447
775.94	41.727
776.25	55.906
776.56	47.015
776.87	45.902
777.18	45.313
777.48	48.092
777.79	46.970
778.10	43.704
778.41	44.643
778.72	40.876
779.03	42.953
779.34	36.242
779.65	34.459
779.95	39.877
780.26	43.137
780.57	46.207
780.88	56.250
781.19	41.353
781.50	48.649
781.80	40.252
782.11	32.768
782.42	37.975
782.73	39.264
783.04	42.568
783.34	43.662
783.65	47.260
783.96	53.731
784.27	41.958
784.57	42.446
784.88	35.185
785.19	50.000
785.50	49.057
785.81	48.507
786.11	50.000
786.42	52.713
786.73	42.478
787.04	60.377
787.34	51.786
787.65	49.000
787.96	53.153
788.26	52.893
788.57	45.763
788.88	42.975
789.19	45.833
789.49	46.212
789.80	45.038
790.11	60.000
790.41	61.386
790.72	55.422
791.03	58.696
791.33	66.279
791.64	64.948
791.95	59.406
792.25	72.222
792.56	63.636
792.87	75.641
793.17	77.215
793.48	66.667
793.79	55.172
794.09	71.591
794.40	46.218
794.70	46.324
795.01	42.222
795.32	41.007
795.62	45.669
795.93	49.138
796.23	53.982
796.54	60.000
796.85	66.216
797.15	98.592
797.46	68.182
797.76	74.699
798.07	56.962
798.37	66.154
798.68	75.758
798.99	74.648
799.29	57.143
799.60	56.818
799.90	76.712
800.21	85.075
800.51	93.103
800.82	94.737
801.12	80.328
801.43	75.758
801.73	66.216
802.04	103.175
802.34	82.716
802.65	82.813
802.95	108.475
803.26	81.250
803.56	68.571
803.87	89.231
804.17	79.412
804.48	114.815
804.78	81.034
805.09	75.000
805.39	86.538
805.70	78.571
806.00	96.721
806.30	71.212
806.61	76.829
806.91	69.620
807.22	76.316
807.52	68.657
807.83	80.282
808.13	79.687
808.43	86.667
808.74	68.421
809.04	76.812
809.35	79.104
809.65	81.579
809.95	101.613
810.26	84.746
810.56	96.825
810.86	122.727
811.17	135.714
811.47	101.667
811.77	85.185
812.08	101.818
812.38	122.000
812.69	138.889
812.99	134.091
813.29	124.490
813.59	95.238
813.90	114.286
814.20	92.727
814.50	80.000
814.81	80.882
815.11	116.327
815.41	100.000
815.72	104.762
816.02	114.545
816.32	104.762
816.62	127.500
816.93	129.268
817.23	119.048
817.53	129.545
817.84	142.424
818.14	115.217
818.44	111.111
818.74	170.588
819.04	135.000
819.35	148.571
819.65	167.647
819.95	182.143
820.25	210.000
820.56	123.077
820.86	93.182
821.16	141.860
821.46	87.179
821.76	120.000
822.07	151.429
822.37	135.000
822.67	157.576
822.97	101.961
823.27	203.571
823.57	162.162
823.88	167.500
824.18	143.333
824.48	138.095
824.78	204.000
825.08	187.500
825.38	118.919
825.69	114.634
825.99	208.333
826.29	162.069
826.59	150.000
826.89	118.421
827.19	161.765
827.49	180.645
827.79	111.364
828.09	97.727
828.39	104.255
828.70	102.041
829.00	140.741
829.30	125.806
829.60	125.000
829.90	253.333
830.20	178.571
830.50	208.696
830.80	243.478
831.10	186.667
831.40	180.000
831.70	200.000
832.00	223.077
832.30	188.889
832.60	300.000
832.90	190.000
833.20	371.429
833.50	225.806
833.80	151.724
834.10	187.500
834.40	234.615
834.70	255.556
835.00	290.476
835.30	171.429
835.60	276.923
835.90	182.759
836.20	342.857
836.50	168.966
836.80	184.000
837.10	169.444
837.40	266.667
837.70	352.941
838.00	229.630
838.30	228.571
838.60	266.667
838.90	215.385
839.19	260.000
839.49	371.429
839.79	270.000
840.09	215.000
840.39	285.714
840.69	256.522
840.99	288.889
841.29	450.000
841.59	283.333
841.88	337.500
842.18	127.586
842.48	300.000
842.78	193.333
843.08	247.826
843.38	203.125
843.68	783.333
843.97	226.923
844.27	193.103
844.57	300.000
844.87	331.250
845.17	192.593
845.47	1666.667
845.76	466.667
846.06	294.118
846.36	550.000
846.66	385.714
846.96	250.000
847.25	390.909
847.55	345.455
847.85	239.130
848.15	510.000
848.44	307.143
848.74	300.000
849.04	288.235
849.34	460.000
849.63	205.263
849.93	390.909
850.23	1060.000
850.53	414.286
850.82	2400.000
851.12	-4300.000
851.42	4000.000
851.71	250.000
852.01	-1133.333
852.31	208.333
852.61	1533.333
852.90	261.905
853.20	208.000
853.50	364.706
853.79	261.905
854.09	216.667
854.39	293.750
854.68	167.568
854.98	151.613
855.28	166.667
855.57	200.000
855.87	203.704
856.17	221.053
856.46	206.667
856.76	311.765
857.05	186.207
857.35	195.833
857.65	360.000
857.94	226.087
858.24	234.615
858.53	270.000
858.83	263.636
859.13	320.000
859.42	0.000
859.72	455.556
860.01	445.455
860.31	268.182
860.60	305.263
860.90	239.130
861.20	577.778
861.49	500.000
861.79	-4200.000
862.08	587.500
862.38	276.190
862.67	315.385
862.97	288.235
863.26	477.778
863.56	272.222
863.85	375.000
864.15	450.000
864.44	420.000
864.74	900.000
865.03	737.500
865.33	310.526
865.62	500.000
865.92	446.154
866.21	433.333
866.51	0.000
866.80	500.000
867.10	1080.000
867.39	384.615
867.69	418.182
867.98	273.684
868.27	427.273
868.57	273.684
868.86	-4900.000
869.16	375.000
869.45	2300.000
869.75	-4600.000
870.04	466.667
870.33	471.429
870.63	900.000
870.92	2300.000
871.22	814.286
871.51	311.765
871.80	228.571
872.10	371.429
>>>>>End Processed Spectral Data<<<<<
