SpectraSuite Data File
++++++++++++++++++++++++++++++++++++
Date: Wed May 13 19:44:53 PDT 2015
User: schluterlab
Dark Spectrum Present: Yes
Reference Spectrum Present: Yes
Number of Sampled Component Spectra: 1
Spectrometers: USB2E3373
Integration Time (usec): 3000 (USB2E3373)
Spectra Averaged: 3 (USB2E3373)
Boxcar Smoothing: 0 (USB2E3373)
Correct for Electrical Dark: No (USB2E3373)
Strobe/Lamp Enabled: No (USB2E3373)
Correct for Detector Non-linearity: No (USB2E3373)
Correct for Stray Light: No (USB2E3373)
Number of Pixels in Processed Spectrum: 2048
>>>>>Begin Processed Spectral Data<<<<<
178.53	0.000
178.91	-1325.000
179.29	-1250.000
179.67	-188.889
180.04	-1400.000
180.42	2550.000
180.80	960.000
181.18	-1175.000
181.56	771.429
181.94	0.000
182.31	-700.000
182.69	2033.333
183.07	-562.500
183.45	-555.556
183.83	600.000
184.20	-440.000
184.58	2100.000
184.96	5200.000
185.34	-780.000
185.72	-812.500
186.09	-2300.000
186.47	2250.000
186.85	2550.000
187.23	5100.000
187.61	-1866.667
187.98	1375.000
188.36	518.182
188.74	472.727
189.12	-820.000
189.49	580.000
189.87	-5600.000
190.25	-1000.000
190.63	421.429
191.00	423.077
191.38	866.667
191.76	-1000.000
192.14	1325.000
192.51	762.500
192.89	966.667
193.27	675.000
193.65	-1050.000
194.02	510.000
194.40	1020.000
194.78	500.000
195.15	466.667
195.53	720.000
195.91	-1850.000
196.29	400.000
196.66	305.263
197.04	-290.000
197.42	0.000
197.79	540.000
198.17	-4600.000
198.55	628.571
198.92	725.000
199.30	820.000
199.68	0.000
200.05	338.889
200.43	742.857
200.81	4300.000
201.18	1466.667
201.56	-1466.667
201.94	622.222
202.31	577.778
202.69	400.000
203.07	460.000
203.44	0.000
203.82	1325.000
204.19	857.143
204.57	500.000
204.95	675.000
205.32	1733.333
205.70	490.909
206.08	392.857
206.45	2900.000
206.83	368.750
207.20	983.333
207.58	640.000
207.96	344.444
208.33	725.000
208.71	-800.000
209.08	742.857
209.46	611.111
209.84	581.818
210.21	-1333.333
210.59	1550.000
210.96	-575.000
211.34	2350.000
211.71	630.000
212.09	850.000
212.46	0.000
212.84	1766.667
213.22	1500.000
213.59	-4700.000
213.97	816.667
214.34	757.143
214.72	627.273
215.09	1100.000
215.47	-2400.000
215.84	-2250.000
216.22	1566.667
216.59	321.429
216.97	1200.000
217.34	527.273
217.72	-916.667
218.09	0.000
218.47	-5600.000
218.84	700.000
219.22	728.571
219.59	1400.000
219.97	-600.000
220.34	920.000
220.72	-1466.667
221.09	378.571
221.47	1325.000
221.84	-850.000
222.22	0.000
222.59	1300.000
222.97	-2400.000
223.34	1220.000
223.72	415.385
224.09	1020.000
224.46	1850.000
224.84	-5500.000
225.21	-940.000
225.59	-3900.000
225.96	640.000
226.34	315.000
226.71	2100.000
227.08	762.500
227.46	520.000
227.83	-1050.000
228.21	-2050.000
228.58	622.222
228.95	-2750.000
229.33	-1900.000
229.70	1600.000
230.08	685.714
230.45	-780.000
230.82	416.667
231.20	733.333
231.57	542.857
231.95	400.000
232.32	218.182
232.69	445.455
233.07	485.714
233.44	430.769
233.81	-1766.667
234.19	321.053
234.56	466.667
234.93	416.667
235.31	527.273
235.68	307.692
236.05	364.286
236.43	187.879
236.80	284.211
237.17	5200.000
237.55	271.429
237.92	271.429
238.29	280.952
238.67	209.677
239.04	224.138
239.41	188.889
239.79	143.478
240.16	171.429
240.53	147.727
240.91	133.333
241.28	142.000
241.65	132.000
242.02	120.290
242.40	133.871
242.77	110.000
243.14	96.774
243.51	96.629
243.89	85.882
244.26	97.778
244.63	84.946
245.00	91.489
245.38	93.069
245.75	72.897
246.12	81.651
246.49	82.482
246.87	78.400
247.24	79.231
247.61	65.000
247.98	66.667
248.36	68.919
248.73	71.338
249.10	71.975
249.47	66.102
249.84	62.567
250.22	63.636
250.59	68.639
250.96	65.152
251.33	65.877
251.70	62.871
252.08	63.333
252.45	56.054
252.82	61.739
253.19	58.298
253.56	54.902
253.94	60.581
254.31	57.812
254.68	55.769
255.05	58.672
255.42	58.943
255.79	55.515
256.16	55.957
256.54	53.357
256.91	57.295
257.28	51.799
257.65	50.495
258.02	53.727
258.39	51.420
258.76	52.843
259.14	51.786
259.51	49.240
259.88	49.689
260.25	53.172
260.62	50.289
260.99	49.379
261.36	51.351
261.73	48.711
262.10	53.488
262.47	52.394
262.85	49.025
263.22	44.729
263.59	52.991
263.96	49.176
264.33	48.303
264.70	51.579
265.07	48.593
265.44	47.980
265.81	48.905
266.18	50.503
266.55	50.244
266.92	51.843
267.29	46.991
267.66	47.936
268.03	47.045
268.40	42.757
268.77	46.539
269.14	44.595
269.51	46.501
269.88	48.019
270.25	44.695
270.62	45.618
270.99	47.097
271.36	45.708
271.73	48.131
272.10	47.174
272.47	47.312
272.84	49.134
273.21	45.493
273.58	44.760
273.95	44.654
274.32	43.595
274.69	43.897
275.06	43.701
275.43	45.319
275.80	44.289
276.17	46.029
276.54	43.035
276.91	44.071
277.28	42.969
277.65	44.294
278.02	43.271
278.39	46.680
278.76	40.364
279.13	43.208
279.50	42.831
279.87	42.032
280.23	42.315
280.60	43.327
280.97	44.547
281.34	43.009
281.71	42.182
282.08	44.722
282.45	43.091
282.82	42.451
283.19	39.929
283.56	41.053
283.92	43.316
284.29	41.623
284.66	43.557
285.03	42.315
285.40	42.077
285.77	40.909
286.14	41.623
286.51	39.000
286.87	40.684
287.24	41.042
287.61	39.968
287.98	39.123
288.35	38.510
288.72	40.343
289.08	39.750
289.45	39.539
289.82	40.163
290.19	36.421
290.56	35.835
290.93	37.764
291.29	37.577
291.66	37.168
292.03	36.919
292.40	38.767
292.77	35.799
293.13	37.015
293.50	35.860
293.87	36.741
294.24	35.111
294.60	34.643
294.97	36.337
295.34	36.530
295.71	36.790
296.08	33.903
296.44	36.039
296.81	34.610
297.18	36.314
297.55	32.718
297.91	32.586
298.28	37.082
298.65	33.812
299.02	33.465
299.38	34.661
299.75	32.075
300.12	31.801
300.48	31.750
300.85	34.155
301.22	33.631
301.59	32.449
301.95	33.501
302.32	32.991
302.69	31.183
303.05	32.242
303.42	31.235
303.79	31.597
304.15	29.953
304.52	31.866
304.89	30.314
305.25	30.510
305.62	30.691
305.99	31.051
306.35	30.761
306.72	30.493
307.09	29.745
307.45	31.532
307.82	28.460
308.19	31.347
308.55	30.960
308.92	29.860
309.29	30.201
309.65	29.692
310.02	30.338
310.38	29.140
310.75	28.511
311.12	29.683
311.48	27.273
311.85	30.084
312.22	29.136
312.58	27.963
312.95	28.933
313.31	28.641
313.68	30.249
314.05	31.164
314.41	28.442
314.78	28.600
315.14	28.997
315.51	28.939
315.87	28.020
316.24	27.607
316.61	29.045
316.97	28.082
317.34	28.474
317.70	29.924
318.07	28.200
318.43	28.571
318.80	28.960
319.16	29.002
319.53	27.486
319.89	28.571
320.26	27.800
320.62	29.067
320.99	29.091
321.35	29.293
321.72	28.234
322.08	27.937
322.45	29.055
322.81	28.585
323.18	28.324
323.54	26.994
323.91	27.830
324.27	27.342
324.64	27.307
325.00	26.961
325.37	27.843
325.73	29.174
326.10	27.184
326.46	28.047
326.83	27.351
327.19	27.498
327.56	27.091
327.92	27.297
328.29	28.483
328.65	27.072
329.01	26.805
329.38	26.179
329.74	26.593
330.11	27.615
330.47	26.538
330.84	26.746
331.20	25.592
331.56	26.789
331.93	26.667
332.29	26.708
332.66	27.257
333.02	27.422
333.38	27.552
333.75	26.827
334.11	26.246
334.48	26.797
334.84	25.735
335.20	26.727
335.57	25.748
335.93	24.643
336.29	25.733
336.66	26.060
337.02	25.068
337.38	26.944
337.75	25.045
338.11	26.231
338.47	26.059
338.84	26.306
339.20	25.046
339.56	26.825
339.93	25.636
340.29	25.634
340.65	25.312
341.02	26.003
341.38	25.979
341.74	24.298
342.11	25.939
342.47	24.493
342.83	25.000
343.20	25.108
343.56	24.263
343.92	25.088
344.28	24.830
344.65	26.569
345.01	24.663
345.37	24.357
345.73	25.381
346.10	25.575
346.46	25.169
346.82	25.288
347.19	24.561
347.55	25.123
347.91	25.081
348.27	24.240
348.63	25.836
349.00	23.139
349.36	24.466
349.72	24.298
350.08	23.744
350.45	24.573
350.81	24.939
351.17	23.258
351.53	23.833
351.89	23.927
352.26	25.572
352.62	25.180
352.98	23.744
353.34	24.486
353.70	24.223
354.07	22.903
354.43	23.175
354.79	24.537
355.15	22.506
355.51	24.061
355.87	23.429
356.24	23.779
356.60	23.657
356.96	24.055
357.32	23.140
357.68	23.858
358.04	22.724
358.40	24.545
358.77	23.787
359.13	23.047
359.49	22.667
359.85	22.698
360.21	21.691
360.57	22.646
360.93	22.385
361.29	23.356
361.66	23.375
362.02	23.582
362.38	22.586
362.74	22.396
363.10	21.540
363.46	22.010
363.82	23.129
364.18	23.862
364.54	23.774
364.90	23.159
365.26	24.191
365.62	22.863
365.98	22.498
366.35	21.347
366.71	21.981
367.07	21.777
367.43	22.642
367.79	23.269
368.15	23.563
368.51	21.584
368.87	22.198
369.23	21.726
369.59	22.303
369.95	22.059
370.31	22.436
370.67	22.754
371.03	23.446
371.39	22.959
371.75	23.603
372.11	22.902
372.47	22.581
372.83	22.839
373.19	21.749
373.55	22.838
373.91	22.018
374.27	21.924
374.63	21.964
374.99	22.175
375.35	21.563
375.71	22.001
376.07	22.222
376.42	22.146
376.78	22.730
377.14	20.760
377.50	21.921
377.86	21.875
378.22	21.429
378.58	21.241
378.94	20.930
379.30	21.565
379.66	21.637
380.02	21.437
380.38	22.162
380.74	22.149
381.09	21.210
381.45	21.266
381.81	21.990
382.17	22.102
382.53	21.321
382.89	21.111
383.25	22.076
383.61	21.561
383.97	21.451
384.32	20.836
384.68	20.880
385.04	21.143
385.40	21.053
385.76	21.744
386.12	20.142
386.48	22.026
386.83	22.065
387.19	22.016
387.55	22.263
387.91	20.859
388.27	20.785
388.62	20.774
388.98	20.577
389.34	21.026
389.70	21.582
390.06	21.483
390.42	21.466
390.77	22.074
391.13	20.804
391.49	21.320
391.85	21.069
392.20	20.063
392.56	20.833
392.92	19.953
393.28	20.059
393.64	21.403
393.99	21.075
394.35	20.844
394.71	21.644
395.07	20.623
395.42	20.210
395.78	21.310
396.14	20.795
396.50	21.742
396.85	21.170
397.21	20.777
397.57	20.211
397.92	20.132
398.28	20.740
398.64	21.804
399.00	20.481
399.35	19.910
399.71	19.850
400.07	20.166
400.42	21.411
400.78	20.567
401.14	19.939
401.49	20.299
401.85	20.145
402.21	19.760
402.57	19.803
402.92	20.681
403.28	20.300
403.63	20.173
403.99	19.873
404.35	20.242
404.70	20.384
405.06	19.860
405.42	19.464
405.77	20.000
406.13	19.695
406.49	20.284
406.84	20.201
407.20	19.799
407.55	20.868
407.91	21.067
408.27	20.421
408.62	19.386
408.98	20.343
409.34	19.188
409.69	19.677
410.05	19.950
410.40	20.550
410.76	19.713
411.11	20.145
411.47	19.169
411.83	20.037
412.18	20.161
412.54	20.361
412.89	20.120
413.25	19.717
413.60	20.815
413.96	20.097
414.31	20.049
414.67	20.722
415.03	19.934
415.38	20.683
415.74	20.064
416.09	19.922
416.45	20.549
416.80	19.960
417.16	20.912
417.51	20.770
417.87	20.617
418.22	20.757
418.58	19.948
418.93	20.332
419.29	20.687
419.64	19.962
420.00	20.000
420.35	19.246
420.71	20.024
421.06	19.690
421.42	19.883
421.77	19.507
422.12	18.754
422.48	19.644
422.83	19.802
423.19	20.221
423.54	19.211
423.90	20.522
424.25	19.095
424.61	19.464
424.96	20.175
425.31	19.657
425.67	19.157
426.02	19.657
426.38	20.513
426.73	19.836
427.09	19.210
427.44	19.666
427.79	19.321
428.15	20.357
428.50	19.719
428.85	19.666
429.21	19.382
429.56	19.388
429.92	19.678
430.27	19.563
430.62	19.099
430.98	19.305
431.33	19.381
431.68	19.424
432.04	19.382
432.39	19.360
432.74	20.168
433.10	19.751
433.45	20.058
433.80	19.124
434.16	19.124
434.51	20.105
434.86	20.182
435.22	19.733
435.57	19.696
435.92	19.310
436.28	19.751
436.63	20.088
436.98	19.977
437.34	19.917
437.69	19.545
438.04	19.899
438.39	19.522
438.75	20.744
439.10	20.223
439.45	20.366
439.81	20.121
440.16	19.311
440.51	20.094
440.86	19.456
441.22	19.689
441.57	19.904
441.92	19.243
442.27	20.398
442.63	19.484
442.98	20.563
443.33	20.272
443.68	19.153
444.03	18.643
444.39	18.841
444.74	19.968
445.09	19.137
445.44	19.191
445.79	18.902
446.15	20.011
446.50	19.655
446.85	18.911
447.20	19.480
447.55	20.436
447.91	19.967
448.26	19.254
448.61	19.672
448.96	19.878
449.31	19.629
449.66	19.752
450.02	19.220
450.37	19.501
450.72	19.628
451.07	19.744
451.42	19.696
451.77	20.082
452.12	20.323
452.47	19.714
452.83	19.347
453.18	19.254
453.53	19.604
453.88	20.201
454.23	19.904
454.58	19.927
454.93	19.644
455.28	19.701
455.63	19.721
455.98	21.250
456.34	20.603
456.69	20.225
457.04	20.681
457.39	19.638
457.74	19.269
458.09	19.781
458.44	19.612
458.79	19.360
459.14	20.372
459.49	19.440
459.84	19.280
460.19	19.859
460.54	20.023
460.89	19.748
461.24	19.672
461.59	20.569
461.94	19.667
462.29	19.525
462.64	19.974
462.99	19.519
463.34	20.800
463.69	19.575
464.04	19.362
464.39	20.116
464.74	20.380
465.09	20.386
465.44	19.834
465.79	19.855
466.14	19.540
466.49	19.355
466.84	19.790
467.19	19.553
467.54	20.562
467.89	19.748
468.24	19.488
468.59	20.085
468.94	20.342
469.29	19.280
469.64	20.415
469.99	20.839
470.34	19.617
470.68	20.690
471.03	19.116
471.38	20.431
471.73	20.386
472.08	20.855
472.43	19.661
472.78	20.671
473.13	19.320
473.48	21.099
473.83	19.512
474.17	19.477
474.52	19.851
474.87	20.198
475.22	19.675
475.57	19.076
475.92	19.649
476.27	20.237
476.61	20.132
476.96	20.176
477.31	18.524
477.66	19.639
478.01	19.289
478.36	20.095
478.70	19.367
479.05	18.743
479.40	19.550
479.75	19.522
480.10	19.235
480.45	18.420
480.79	19.398
481.14	19.325
481.49	19.601
481.84	19.113
482.19	19.764
482.53	19.220
482.88	19.079
483.23	19.439
483.58	19.791
483.92	19.634
484.27	18.214
484.62	18.793
484.97	18.171
485.31	18.527
485.66	18.854
486.01	18.091
486.36	17.515
486.70	16.856
487.05	17.253
487.40	17.441
487.75	17.087
488.09	17.804
488.44	17.178
488.79	17.794
489.13	18.793
489.48	17.945
489.83	18.256
490.17	18.544
490.52	18.866
490.87	19.222
491.22	18.281
491.56	18.405
491.91	18.799
492.26	19.155
492.60	18.571
492.95	18.148
493.30	18.692
493.64	18.152
493.99	18.756
494.34	19.658
494.68	19.002
495.03	19.220
495.37	18.660
495.72	19.347
496.07	19.211
496.41	18.894
496.76	18.470
497.11	18.685
497.45	19.516
497.80	18.714
498.14	18.502
498.49	18.634
498.84	18.888
499.18	19.000
499.53	19.326
499.87	18.686
500.22	18.888
500.56	18.981
500.91	19.038
501.26	19.488
501.60	20.123
501.95	18.698
502.29	19.260
502.64	19.088
502.98	19.261
503.33	18.967
503.67	19.304
504.02	18.803
504.36	18.858
504.71	19.345
505.06	18.988
505.40	19.689
505.75	17.936
506.09	18.707
506.44	19.290
506.78	18.948
507.13	19.182
507.47	19.596
507.82	19.504
508.16	19.402
508.51	19.787
508.85	19.215
509.19	19.439
509.54	19.643
509.88	19.320
510.23	19.229
510.57	19.556
510.92	18.850
511.26	19.527
511.61	19.917
511.95	19.311
512.30	19.671
512.64	19.398
512.98	20.096
513.33	19.861
513.67	19.851
514.02	19.372
514.36	19.443
514.70	19.923
515.05	19.520
515.39	19.742
515.74	19.144
516.08	20.402
516.42	19.811
516.77	20.624
517.11	19.145
517.46	20.090
517.80	19.628
518.14	20.266
518.49	20.828
518.83	19.773
519.17	19.630
519.52	20.147
519.86	20.536
520.20	20.462
520.55	21.185
520.89	20.134
521.23	20.688
521.58	20.828
521.92	21.249
522.26	19.585
522.61	20.312
522.95	19.890
523.29	20.998
523.64	20.000
523.98	20.456
524.32	20.627
524.66	21.106
525.01	20.466
525.35	20.198
525.69	20.197
526.04	20.436
526.38	20.012
526.72	20.307
527.06	21.092
527.41	19.678
527.75	21.029
528.09	20.681
528.43	21.224
528.78	20.713
529.12	20.970
529.46	20.698
529.80	21.225
530.15	20.997
530.49	19.323
530.83	20.633
531.17	21.671
531.51	21.855
531.86	21.742
532.20	20.795
532.54	21.332
532.88	21.374
533.22	20.675
533.57	20.309
533.91	19.807
534.25	21.628
534.59	20.683
534.93	20.464
535.27	20.398
535.62	21.062
535.96	20.527
536.30	20.089
536.64	20.348
536.98	21.367
537.32	20.342
537.66	20.867
538.01	20.935
538.35	20.814
538.69	21.570
539.03	20.923
539.37	20.511
539.71	19.443
540.05	20.915
540.39	21.595
540.73	19.922
541.07	21.544
541.42	21.135
541.76	20.903
542.10	20.957
542.44	20.662
542.78	21.871
543.12	20.857
543.46	21.180
543.80	21.731
544.14	19.833
544.48	20.762
544.82	19.949
545.16	21.015
545.50	19.923
545.84	20.968
546.18	21.212
546.52	22.092
546.86	20.962
547.20	20.836
547.54	20.908
547.88	22.258
548.22	20.486
548.56	20.818
548.90	20.423
549.24	20.943
549.58	22.033
549.92	21.978
550.26	21.733
550.60	21.508
550.94	20.563
551.28	19.971
551.62	21.495
551.96	21.965
552.30	21.365
552.64	22.312
552.98	21.017
553.32	21.038
553.66	21.609
554.00	21.482
554.34	20.980
554.68	21.674
555.02	20.804
555.36	21.781
555.69	21.583
556.03	20.861
556.37	21.282
556.71	21.214
557.05	20.938
557.39	21.554
557.73	20.819
558.07	22.117
558.41	21.418
558.75	21.308
559.08	21.924
559.42	21.466
559.76	21.618
560.10	21.342
560.44	21.104
560.78	20.958
561.12	19.921
561.45	21.252
561.79	20.897
562.13	21.395
562.47	21.858
562.81	21.060
563.15	20.936
563.48	21.684
563.82	20.678
564.16	21.452
564.50	21.029
564.84	20.354
565.17	20.270
565.51	20.383
565.85	20.876
566.19	21.353
566.52	21.469
566.86	20.374
567.20	21.580
567.54	20.719
567.88	20.043
568.21	20.899
568.55	20.425
568.89	19.942
569.23	20.633
569.56	19.393
569.90	19.396
570.24	19.089
570.57	19.177
570.91	19.005
571.25	19.302
571.59	19.264
571.92	18.750
572.26	18.746
572.60	19.219
572.93	18.741
573.27	18.841
573.61	18.928
573.95	18.837
574.28	18.342
574.62	18.270
574.96	18.351
575.29	18.550
575.63	18.089
575.97	17.730
576.30	18.800
576.64	18.474
576.98	18.182
577.31	17.745
577.65	18.089
577.98	18.275
578.32	17.971
578.66	18.386
578.99	18.466
579.33	17.938
579.67	18.049
580.00	18.053
580.34	18.415
580.67	18.010
581.01	18.664
581.35	18.306
581.68	18.449
582.02	18.086
582.35	18.391
582.69	18.363
583.02	18.288
583.36	18.146
583.70	18.132
584.03	18.208
584.37	18.155
584.70	18.600
585.04	18.297
585.37	18.476
585.71	18.633
586.04	18.434
586.38	18.652
586.72	18.917
587.05	18.365
587.39	18.127
587.72	19.041
588.06	18.356
588.39	18.711
588.73	18.158
589.06	18.604
589.40	18.889
589.73	19.113
590.07	18.968
590.40	18.597
590.73	18.931
591.07	19.495
591.40	19.148
591.74	19.177
592.07	19.546
592.41	19.512
592.74	19.139
593.08	19.587
593.41	19.709
593.75	19.019
594.08	19.142
594.41	19.371
594.75	18.854
595.08	19.148
595.42	20.035
595.75	18.910
596.09	19.001
596.42	20.118
596.75	19.544
597.09	20.433
597.42	19.140
597.75	20.138
598.09	19.174
598.42	19.029
598.76	19.051
599.09	18.738
599.42	19.105
599.76	18.851
600.09	18.798
600.42	19.138
600.76	18.607
601.09	19.344
601.42	19.901
601.76	19.013
602.09	18.814
602.42	19.666
602.76	18.984
603.09	19.473
603.42	19.719
603.76	19.360
604.09	18.496
604.42	19.731
604.76	20.245
605.09	19.703
605.42	19.410
605.75	18.957
606.09	19.276
606.42	19.330
606.75	18.830
607.09	19.339
607.42	19.940
607.75	19.451
608.08	19.192
608.42	19.229
608.75	19.657
609.08	19.704
609.41	19.419
609.75	19.200
610.08	20.170
610.41	19.413
610.74	19.063
611.07	20.405
611.41	19.529
611.74	19.809
612.07	20.083
612.40	19.832
612.73	19.789
613.07	19.935
613.40	20.221
613.73	18.773
614.06	20.376
614.39	20.084
614.72	20.158
615.06	19.905
615.39	20.382
615.72	20.041
616.05	19.564
616.38	19.455
616.71	21.081
617.05	20.024
617.38	20.625
617.71	20.781
618.04	21.094
618.37	19.219
618.70	21.780
619.03	21.316
619.36	21.113
619.69	20.845
620.03	20.673
620.36	20.655
620.69	21.507
621.02	21.313
621.35	20.908
621.68	21.651
622.01	21.440
622.34	21.785
622.67	21.673
623.00	20.103
623.33	19.943
623.66	21.515
623.99	21.355
624.32	21.113
624.65	20.480
624.99	20.113
625.32	21.796
625.65	20.586
625.98	22.137
626.31	21.773
626.64	21.714
626.97	21.031
627.30	21.613
627.63	22.313
627.96	22.288
628.29	21.697
628.62	22.690
628.95	22.925
629.28	22.993
629.61	23.373
629.94	21.905
630.26	21.926
630.59	23.070
630.92	22.318
631.25	21.619
631.58	21.421
631.91	23.022
632.24	22.679
632.57	22.246
632.90	23.465
633.23	22.371
633.56	23.503
633.89	23.896
634.22	23.723
634.55	24.852
634.88	23.353
635.20	24.492
635.53	22.651
635.86	22.649
636.19	24.235
636.52	24.798
636.85	23.597
637.18	22.581
637.51	23.759
637.83	22.318
638.16	22.634
638.49	25.315
638.82	24.399
639.15	24.750
639.48	24.564
639.81	25.469
640.13	24.219
640.46	24.698
640.79	25.099
641.12	23.796
641.45	23.743
641.77	24.890
642.10	25.000
642.43	24.925
642.76	24.613
643.09	25.613
643.41	24.279
643.74	25.154
644.07	25.762
644.40	26.380
644.73	26.614
645.05	24.723
645.38	23.539
645.71	24.960
646.04	25.249
646.36	26.544
646.69	28.261
647.02	26.701
647.35	23.711
647.67	26.726
648.00	26.016
648.33	24.092
648.66	25.000
648.98	26.837
649.31	26.158
649.64	23.916
649.96	25.484
650.29	24.645
650.62	22.654
650.94	25.284
651.27	27.365
651.60	26.456
651.92	27.157
652.25	23.616
652.58	26.480
652.90	25.118
653.23	24.653
653.56	23.622
653.88	26.941
654.21	26.382
654.54	26.733
654.86	25.701
655.19	22.162
655.52	17.932
655.84	17.124
656.17	22.434
656.49	29.249
656.82	28.925
657.15	20.633
657.47	14.978
657.80	11.417
658.13	11.425
658.45	16.527
658.78	16.495
659.10	17.178
659.43	17.461
659.75	18.937
660.08	20.063
660.41	22.160
660.73	25.540
661.06	24.045
661.38	28.182
661.71	28.654
662.03	29.783
662.36	23.857
662.68	27.510
663.01	27.071
663.33	27.389
663.66	27.101
663.98	31.533
664.31	26.681
664.63	25.101
664.96	27.565
665.28	29.508
665.61	26.901
665.93	24.547
666.26	26.572
666.58	28.033
666.91	28.541
667.23	30.337
667.56	27.862
667.88	30.128
668.21	29.424
668.53	29.284
668.86	29.004
669.18	28.785
669.50	28.696
669.83	28.322
670.15	28.222
670.48	28.540
670.80	28.448
671.13	29.087
671.45	28.298
671.77	26.069
672.10	28.096
672.42	25.795
672.75	25.207
673.07	27.993
673.39	27.125
673.72	25.586
674.04	26.667
674.37	28.738
674.69	27.403
675.01	26.569
675.34	29.774
675.66	27.368
675.98	30.143
676.31	28.571
676.63	29.512
676.95	29.560
677.28	26.402
677.60	27.912
677.92	30.591
678.25	28.747
678.57	28.486
678.89	26.854
679.22	25.737
679.54	26.145
679.86	30.275
680.18	25.045
680.51	25.355
680.83	27.046
681.15	26.981
681.48	30.057
681.80	26.692
682.12	24.521
682.44	27.079
682.77	25.255
683.09	29.185
683.41	29.490
683.73	27.594
684.06	30.165
684.38	27.593
684.70	27.326
685.02	28.518
685.34	27.106
685.67	23.601
685.99	25.601
686.31	24.232
686.63	23.498
686.96	25.714
687.28	26.173
687.60	26.268
687.92	26.508
688.24	25.665
688.56	27.912
688.89	27.593
689.21	29.913
689.53	27.557
689.85	28.160
690.17	27.536
690.49	28.662
690.82	25.935
691.14	28.125
691.46	27.215
691.78	25.904
692.10	28.306
692.42	27.146
692.74	24.896
693.06	30.213
693.39	31.211
693.71	28.603
694.03	27.579
694.35	28.139
694.67	24.943
694.99	27.073
695.31	31.127
695.63	30.383
695.95	31.296
696.27	26.396
696.59	31.606
696.91	29.275
697.23	26.526
697.56	30.490
697.88	28.630
698.20	25.625
698.52	29.032
698.84	28.508
699.16	26.267
699.48	27.316
699.80	27.053
700.12	33.506
700.44	28.647
700.76	33.149
701.08	29.885
701.40	26.816
701.72	32.362
702.04	35.795
702.36	29.178
702.68	28.612
703.00	31.302
703.32	26.596
703.64	31.635
703.96	32.869
704.28	28.779
704.60	32.845
704.91	30.564
705.23	34.604
705.55	34.551
705.87	34.884
706.19	32.862
706.51	31.776
706.83	32.727
707.15	33.333
707.47	29.798
707.79	31.695
708.11	28.082
708.43	28.810
708.74	29.592
709.06	31.688
709.38	28.346
709.70	34.012
710.02	32.938
710.34	30.606
710.66	33.433
710.98	31.534
711.29	32.558
711.61	32.448
711.93	30.449
712.25	35.048
712.57	32.353
712.89	34.948
713.20	31.003
713.52	34.211
713.84	31.329
714.16	32.317
714.48	30.747
714.80	34.043
715.11	33.718
715.43	34.718
715.75	32.464
716.07	30.990
716.39	33.229
716.70	35.216
717.02	32.374
717.34	32.509
717.66	37.313
717.97	35.060
718.29	31.481
718.61	33.577
718.93	33.088
719.24	35.294
719.56	36.610
719.88	31.864
720.20	34.797
720.51	34.495
720.83	36.431
721.15	31.343
721.46	36.525
721.78	35.484
722.10	35.849
722.42	36.090
722.73	35.955
723.05	36.475
723.37	36.842
723.68	36.680
724.00	34.959
724.32	38.306
724.63	36.179
724.95	36.820
725.27	42.915
725.58	35.156
725.90	35.766
726.22	37.736
726.53	35.417
726.85	34.812
727.16	37.011
727.48	33.688
727.80	35.227
728.11	35.145
728.43	35.000
728.74	36.918
729.06	33.942
729.38	36.765
729.69	35.943
730.01	32.082
730.32	34.375
730.64	36.455
730.96	31.023
731.27	33.775
731.59	31.193
731.90	32.070
732.22	34.161
732.53	25.697
732.85	31.090
733.16	30.868
733.48	32.226
733.80	34.416
734.11	33.758
734.43	33.136
734.74	28.000
735.06	31.805
735.37	34.393
735.69	29.299
736.00	38.235
736.32	33.956
736.63	29.712
736.95	36.741
737.26	26.190
737.58	31.290
737.89	36.455
738.21	35.154
738.52	35.000
738.83	35.849
739.15	36.538
739.46	35.401
739.78	38.194
740.09	35.692
740.41	37.742
740.72	32.404
741.04	35.926
741.35	34.167
741.66	41.333
741.98	32.075
742.29	43.541
742.61	43.966
742.92	38.009
743.23	37.179
743.55	40.000
743.86	37.281
744.18	39.381
744.49	45.933
744.80	44.601
745.12	40.455
745.43	40.529
745.74	43.694
746.06	41.284
746.37	38.117
746.68	38.009
747.00	41.204
747.31	38.571
747.62	39.823
747.94	40.529
748.25	32.766
748.56	38.767
748.88	41.584
749.19	46.000
749.50	37.209
749.82	37.398
750.13	33.878
750.44	40.876
750.75	36.842
751.07	35.370
751.38	34.146
751.69	35.018
752.01	32.331
752.32	34.296
752.63	32.979
752.94	33.607
753.26	37.600
753.57	34.959
753.88	37.500
754.19	32.143
754.51	34.375
754.82	33.935
755.13	37.736
755.44	33.459
755.75	31.022
756.07	32.624
756.38	28.467
756.69	33.893
757.00	32.036
757.31	33.828
757.63	31.287
757.94	30.295
758.25	29.657
758.56	30.123
758.87	29.570
759.18	35.152
759.50	34.169
759.81	34.891
760.12	32.812
760.43	35.244
760.74	30.978
761.05	33.333
761.36	29.412
761.67	30.966
761.99	31.988
762.30	34.375
762.61	36.260
762.92	36.719
763.23	36.134
763.54	42.000
763.85	33.984
764.16	38.077
764.47	38.783
764.78	30.742
765.10	30.696
765.41	30.973
765.72	32.335
766.03	31.348
766.34	35.000
766.65	38.723
766.96	38.889
767.27	44.162
767.58	42.708
767.89	46.316
768.20	48.851
768.51	38.071
768.82	44.037
769.13	39.837
769.44	35.628
769.75	39.485
770.06	34.862
770.37	42.986
770.68	36.111
770.99	39.111
771.30	33.197
771.61	44.395
771.92	40.164
772.23	43.697
772.54	44.103
772.85	44.503
773.16	42.553
773.47	46.739
773.78	44.670
774.09	48.810
774.39	50.292
774.70	45.062
775.01	50.000
775.32	56.863
775.63	42.763
775.94	45.324
776.25	48.031
776.56	59.701
776.87	51.639
777.18	46.875
777.48	61.069
777.79	53.788
778.10	59.259
778.41	63.393
778.72	54.745
779.03	48.993
779.34	46.980
779.65	41.216
779.95	52.761
780.26	54.902
780.57	55.172
780.88	64.844
781.19	51.880
781.50	56.081
781.80	50.314
782.11	41.808
782.42	46.835
782.73	50.920
783.04	50.676
783.34	50.704
783.65	60.959
783.96	63.433
784.27	49.650
784.57	45.324
784.88	55.556
785.19	61.111
785.50	65.094
785.81	64.925
786.11	62.295
786.42	68.217
786.73	55.752
787.04	69.811
787.34	63.393
787.65	66.000
787.96	55.856
788.26	58.678
788.57	66.102
788.88	61.157
789.19	59.028
789.49	57.576
789.80	55.725
790.11	64.762
790.41	72.277
790.72	83.133
791.03	80.435
791.33	74.419
791.64	70.103
791.95	63.366
792.25	71.111
792.56	77.922
792.87	73.077
793.17	83.544
793.48	77.011
793.79	81.609
794.09	76.136
794.40	68.067
794.70	63.235
795.01	60.000
795.32	48.201
795.62	60.630
795.93	64.655
796.23	61.062
796.54	78.824
796.85	77.027
797.15	101.408
797.46	83.333
797.76	83.133
798.07	84.810
798.37	92.308
798.68	89.394
798.99	76.056
799.29	83.117
799.60	79.545
799.90	90.411
800.21	98.507
800.51	81.034
800.82	115.789
801.12	93.443
801.43	98.485
801.73	91.892
802.04	104.762
802.34	82.716
802.65	98.437
802.95	120.339
803.26	106.250
803.56	87.143
803.87	73.846
804.17	85.294
804.48	112.963
804.78	87.931
805.09	94.118
805.39	94.231
805.70	96.429
806.00	106.557
806.30	81.818
806.61	89.024
806.91	68.354
807.22	69.737
807.52	68.657
807.83	94.366
808.13	82.813
808.43	108.333
808.74	86.842
809.04	95.652
809.35	85.075
809.65	92.105
809.95	120.968
810.26	110.169
810.56	111.111
810.86	125.000
811.17	128.571
811.47	111.667
811.77	103.704
812.08	118.182
812.38	110.000
812.69	141.667
812.99	159.091
813.29	130.612
813.59	114.286
813.90	112.245
814.20	123.636
814.50	93.846
814.81	98.529
815.11	128.571
815.41	91.803
815.72	142.857
816.02	141.818
816.32	133.333
816.62	120.000
816.93	129.268
817.23	154.762
817.53	113.636
817.84	178.788
818.14	152.174
818.44	151.111
818.74	179.412
819.04	135.000
819.35	162.857
819.65	147.059
819.95	182.143
820.25	195.000
820.56	174.359
820.86	127.273
821.16	151.163
821.46	135.897
821.76	130.000
822.07	151.429
822.37	152.500
822.67	172.727
822.97	129.412
823.27	182.143
823.57	172.973
823.88	160.000
824.18	206.667
824.48	161.905
824.78	200.000
825.08	208.333
825.38	140.541
825.69	129.268
825.99	200.000
826.29	168.966
826.59	136.842
826.89	139.474
827.19	173.529
827.49	177.419
827.79	138.636
828.09	140.909
828.39	146.809
828.70	118.367
829.00	181.481
829.30	145.161
829.60	135.000
829.90	266.667
830.20	221.429
830.50	226.087
830.80	213.043
831.10	173.333
831.40	186.667
831.70	247.826
832.00	226.923
832.30	214.815
832.60	262.500
832.90	203.333
833.20	478.571
833.50	183.871
833.80	186.207
834.10	221.875
834.40	203.846
834.70	266.667
835.00	280.952
835.30	168.571
835.60	323.077
835.90	186.207
836.20	335.714
836.50	203.448
836.80	184.000
837.10	177.778
837.40	257.143
837.70	317.647
838.00	222.222
838.30	214.286
838.60	266.667
838.90	223.077
839.19	275.000
839.49	378.571
839.79	285.000
840.09	285.000
840.39	257.143
840.69	286.957
840.99	261.111
841.29	430.000
841.59	316.667
841.88	362.500
842.18	182.759
842.48	242.857
842.78	176.667
843.08	221.739
843.38	178.125
843.68	916.667
843.97	246.154
844.27	234.483
844.57	295.238
844.87	368.750
845.17	185.185
845.47	1533.333
845.76	477.778
846.06	329.412
846.36	500.000
846.66	342.857
846.96	362.500
847.25	390.909
847.55	345.455
847.85	234.783
848.15	430.000
848.44	428.571
848.74	244.444
849.04	323.529
849.34	590.000
849.63	226.316
849.93	400.000
850.23	840.000
850.53	364.286
850.82	2400.000
851.12	-5000.000
851.42	4400.000
851.71	290.000
852.01	-1300.000
852.31	245.833
852.61	1666.667
852.90	280.952
853.20	232.000
853.50	341.176
853.79	314.286
854.09	216.667
854.39	362.500
854.68	178.378
854.98	193.548
855.28	193.333
855.57	206.897
855.87	225.926
856.17	257.895
856.46	233.333
856.76	311.765
857.05	172.414
857.35	195.833
857.65	320.000
857.94	265.217
858.24	230.769
858.53	260.000
858.83	250.000
859.13	313.333
859.42	0.000
859.72	533.333
860.01	436.364
860.31	227.273
860.60	242.105
860.90	217.391
861.20	555.556
861.49	533.333
861.79	-4000.000
862.08	525.000
862.38	309.524
862.67	384.615
862.97	352.941
863.26	588.889
863.56	233.333
863.85	366.667
864.15	700.000
864.44	366.667
864.74	1050.000
865.03	725.000
865.33	263.158
865.62	418.182
865.92	430.769
866.21	358.333
866.51	0.000
866.80	454.545
867.10	1240.000
867.39	461.538
867.69	418.182
867.98	226.316
868.27	445.455
868.57	278.947
868.86	-4800.000
869.16	306.250
869.45	2200.000
869.75	-4300.000
870.04	433.333
870.33	728.571
870.63	975.000
870.92	2550.000
871.22	800.000
871.51	370.588
871.80	252.381
872.10	407.143
>>>>>End Processed Spectral Data<<<<<
