SpectraSuite Data File
++++++++++++++++++++++++++++++++++++
Date: Wed May 13 19:23:07 PDT 2015
User: schluterlab
Dark Spectrum Present: Yes
Reference Spectrum Present: Yes
Number of Sampled Component Spectra: 1
Spectrometers: USB2E3373
Integration Time (usec): 3000 (USB2E3373)
Spectra Averaged: 3 (USB2E3373)
Boxcar Smoothing: 0 (USB2E3373)
Correct for Electrical Dark: No (USB2E3373)
Strobe/Lamp Enabled: No (USB2E3373)
Correct for Detector Non-linearity: No (USB2E3373)
Correct for Stray Light: No (USB2E3373)
Number of Pixels in Processed Spectrum: 2048
>>>>>Begin Processed Spectral Data<<<<<
178.53	0.000
178.91	-1350.000
179.29	-1450.000
179.67	-305.556
180.04	-1575.000
180.42	2950.000
180.80	1180.000
181.18	-1150.000
181.56	842.857
181.94	0.000
182.31	-771.429
182.69	1800.000
183.07	-475.000
183.45	-633.333
183.83	554.545
184.20	-390.000
184.58	2600.000
184.96	5700.000
185.34	-760.000
185.72	-762.500
186.09	-2700.000
186.47	3100.000
186.85	2950.000
187.23	5600.000
187.61	-2033.333
187.98	1500.000
188.36	654.545
188.74	500.000
189.12	-940.000
189.49	690.000
189.87	-5700.000
190.25	-1450.000
190.63	471.429
191.00	492.308
191.38	1000.000
191.76	-1600.000
192.14	1400.000
192.51	687.500
192.89	1050.000
193.27	750.000
193.65	-1450.000
194.02	580.000
194.40	1120.000
194.78	610.000
195.15	575.000
195.53	700.000
195.91	-2500.000
196.29	368.750
196.66	352.632
197.04	-400.000
197.42	0.000
197.79	610.000
198.17	-5200.000
198.55	714.286
198.92	862.500
199.30	1120.000
199.68	0.000
200.05	361.111
200.43	814.286
200.81	5300.000
201.18	1700.000
201.56	-1766.667
201.94	555.556
202.31	644.444
202.69	491.667
203.07	620.000
203.44	0.000
203.82	1275.000
204.19	1014.286
204.57	421.429
204.95	737.500
205.32	2066.667
205.70	554.545
206.08	414.286
206.45	3000.000
206.83	393.750
207.20	983.333
207.58	820.000
207.96	327.778
208.33	750.000
208.71	-933.333
209.08	814.286
209.46	711.111
209.84	590.909
210.21	-1866.667
210.59	1325.000
210.96	-487.500
211.34	3350.000
211.71	670.000
212.09	900.000
212.46	0.000
212.84	2100.000
213.22	1350.000
213.59	-5200.000
213.97	966.667
214.34	857.143
214.72	754.545
215.09	1220.000
215.47	-2900.000
215.84	-2850.000
216.22	1966.667
216.59	421.429
216.97	1650.000
217.34	527.273
217.72	-850.000
218.09	0.000
218.47	-5800.000
218.84	711.111
219.22	914.286
219.59	2000.000
219.97	-771.429
220.34	1000.000
220.72	-1800.000
221.09	485.714
221.47	1925.000
221.84	-1133.333
222.22	0.000
222.59	1375.000
222.97	-2550.000
223.34	1240.000
223.72	469.231
224.09	1180.000
224.46	2900.000
224.84	-4900.000
225.21	-1240.000
225.59	-5600.000
225.96	650.000
226.34	365.000
226.71	3300.000
227.08	725.000
227.46	660.000
227.83	-1250.000
228.21	-2600.000
228.58	644.444
228.95	-2700.000
229.33	-2350.000
229.70	2000.000
230.08	842.857
230.45	-1100.000
230.82	483.333
231.20	983.333
231.57	914.286
231.95	483.333
232.32	313.636
232.69	572.727
233.07	914.286
233.44	369.231
233.81	-1700.000
234.19	410.526
234.56	550.000
234.93	500.000
235.31	572.727
235.68	384.615
236.05	428.571
236.43	169.697
236.80	310.526
237.17	5500.000
237.55	266.667
237.92	228.571
238.29	319.048
238.67	241.935
239.04	231.034
239.41	194.444
239.79	139.130
240.16	171.429
240.53	163.636
240.91	131.373
241.28	140.000
241.65	122.000
242.02	107.246
242.40	117.742
242.77	135.000
243.14	102.151
243.51	100.000
243.89	107.059
244.26	98.889
244.63	95.699
245.00	96.809
245.38	98.020
245.75	84.112
246.12	76.147
246.49	77.372
246.87	92.800
247.24	86.154
247.61	75.000
247.98	77.778
248.36	77.027
248.73	74.522
249.10	70.064
249.47	69.492
249.84	72.727
250.22	66.845
250.59	72.189
250.96	61.616
251.33	63.981
251.70	65.842
252.08	61.429
252.45	59.641
252.82	60.435
253.19	57.872
253.56	60.000
253.94	61.411
254.31	56.250
254.68	62.692
255.05	57.934
255.42	62.195
255.79	58.824
256.16	63.899
256.54	52.297
256.91	56.940
257.28	53.957
257.65	55.116
258.02	56.211
258.39	53.943
258.76	56.856
259.14	54.167
259.51	55.015
259.88	52.795
260.25	51.360
260.62	52.890
260.99	54.348
261.36	53.453
261.73	57.020
262.10	55.233
262.47	54.085
262.85	54.039
263.22	51.282
263.59	52.707
263.96	53.022
264.33	49.347
264.70	49.474
265.07	53.197
265.44	50.000
265.81	48.175
266.18	51.759
266.55	47.561
266.92	51.843
267.29	47.917
267.66	50.229
268.03	50.000
268.40	49.299
268.77	46.778
269.14	51.351
269.51	48.984
269.88	49.883
270.25	46.501
270.62	46.292
270.99	49.462
271.36	46.352
271.73	49.065
272.10	49.565
272.47	45.376
272.84	45.238
273.21	47.379
273.58	46.070
273.95	46.541
274.32	45.868
274.69	49.251
275.06	45.866
275.43	47.872
275.80	47.695
276.17	47.251
276.54	48.649
276.91	45.652
277.28	45.313
277.65	43.907
278.02	44.928
278.39	46.680
278.76	42.909
279.13	43.585
279.50	46.182
279.87	44.821
280.23	45.709
280.60	45.455
280.97	44.732
281.34	44.956
281.71	45.273
282.08	46.449
282.45	44.000
282.82	43.517
283.19	44.207
283.56	42.105
283.92	45.008
284.29	43.915
284.66	45.009
285.03	43.038
285.40	43.310
285.77	42.929
286.14	42.660
286.51	42.333
286.87	42.051
287.24	43.160
287.61	42.376
287.98	40.747
288.35	39.937
288.72	40.966
289.08	40.689
289.45	41.680
289.82	41.626
290.19	39.246
290.56	39.204
290.93	36.556
291.29	39.417
291.66	39.676
292.03	40.116
292.40	41.116
292.77	38.018
293.13	40.000
293.50	37.172
293.87	38.519
294.24	37.778
294.60	35.953
294.97	36.628
295.34	37.236
295.71	37.358
296.08	35.328
296.44	37.414
296.81	35.139
297.18	38.482
297.55	31.926
297.91	34.433
298.28	37.617
298.65	34.595
299.02	33.333
299.38	36.388
299.75	33.288
300.12	33.844
300.48	34.750
300.85	34.155
301.22	34.650
301.59	33.081
301.95	35.013
302.32	34.146
302.69	32.736
303.05	33.697
303.42	33.457
303.79	33.182
304.15	32.984
304.52	32.677
304.89	33.101
305.25	32.367
305.62	31.823
305.99	34.002
306.35	33.557
306.72	33.072
307.09	32.408
307.45	32.432
307.82	31.920
308.19	31.678
308.55	33.441
308.92	32.331
309.29	32.524
309.65	32.768
310.02	32.241
310.38	31.828
310.75	32.841
311.12	31.116
311.48	31.139
311.85	33.962
312.22	32.050
312.58	32.225
312.95	34.213
313.31	32.233
313.68	33.056
314.05	33.333
314.41	33.367
314.78	31.621
315.14	33.069
315.51	33.059
315.87	33.564
316.24	31.976
316.61	33.821
316.97	33.757
317.34	33.855
317.70	34.512
318.07	33.975
318.43	34.247
318.80	35.145
319.16	34.369
319.53	32.645
319.89	35.714
320.26	35.300
320.62	34.921
320.99	36.364
321.35	35.960
321.72	36.756
322.08	35.439
322.45	36.020
322.81	36.822
323.18	37.765
323.54	35.714
323.91	36.981
324.27	37.954
324.64	35.694
325.00	35.437
325.37	39.490
325.73	38.510
326.10	38.041
326.46	38.620
326.83	40.035
327.19	38.087
327.56	38.328
327.92	39.108
328.29	39.752
328.65	40.516
329.01	39.350
329.38	39.963
329.74	39.428
330.11	40.245
330.47	40.037
330.84	40.165
331.20	38.798
331.56	38.991
331.93	39.630
332.29	38.421
332.66	39.735
333.02	38.848
333.38	38.844
333.75	39.394
334.11	39.502
334.48	38.066
334.84	39.890
335.20	39.455
335.57	38.622
335.93	39.464
336.29	38.919
336.66	39.766
337.02	38.552
337.38	39.722
337.75	39.305
338.11	39.660
338.47	39.963
338.84	39.413
339.20	38.899
339.56	40.602
339.93	38.909
340.29	37.953
340.65	39.483
341.02	38.220
341.38	39.057
341.74	38.772
342.11	39.651
342.47	40.088
342.83	39.298
343.20	40.000
343.56	39.680
343.92	38.684
344.28	38.861
344.65	39.811
345.01	38.636
345.37	38.079
345.73	39.425
346.10	39.642
346.46	39.831
346.82	39.044
347.19	38.095
347.55	39.245
347.91	38.835
348.27	39.852
348.63	40.134
349.00	38.835
349.36	38.998
349.72	39.134
350.08	38.979
350.45	38.975
350.81	39.399
351.17	39.789
351.53	39.640
351.89	38.779
352.26	39.700
352.62	39.695
352.98	39.465
353.34	40.263
353.70	39.607
354.07	39.435
354.43	37.063
354.79	38.134
355.15	39.186
355.51	40.288
355.87	39.673
356.24	39.169
356.60	38.733
356.96	40.467
357.32	39.657
357.68	40.236
358.04	38.955
358.40	40.618
358.77	39.358
359.13	38.595
359.49	39.608
359.85	38.333
360.21	39.234
360.57	39.222
360.93	40.538
361.29	40.514
361.66	39.319
362.02	41.045
362.38	40.989
362.74	38.765
363.10	38.490
363.46	38.004
363.82	39.683
364.18	38.693
364.54	40.490
364.90	39.235
365.26	39.926
365.62	40.614
365.98	39.445
366.35	38.324
366.71	40.202
367.07	39.257
367.43	40.711
367.79	41.185
368.15	41.092
368.51	40.770
368.87	39.543
369.23	40.380
369.59	40.912
369.95	41.324
370.31	40.527
370.67	39.493
371.03	42.097
371.39	40.889
371.75	41.176
372.11	40.612
372.47	42.302
372.83	42.003
373.19	41.113
373.55	41.907
373.91	43.373
374.27	40.000
374.63	41.964
374.99	42.585
375.35	41.521
375.71	41.672
376.07	41.358
376.42	43.191
376.78	42.677
377.14	42.334
377.50	42.715
377.86	42.620
378.22	41.783
378.58	42.544
378.94	42.426
379.30	42.939
379.66	43.972
380.02	44.042
380.38	43.473
380.74	44.238
381.09	44.804
381.45	44.622
381.81	44.533
382.17	44.968
382.53	45.031
382.89	45.556
383.25	44.590
383.61	46.035
383.97	45.028
384.32	45.976
384.68	45.787
385.04	45.114
385.40	46.749
385.76	45.086
386.12	46.891
386.48	46.193
386.83	47.466
387.19	47.866
387.55	46.939
387.91	46.372
388.27	47.578
388.62	47.572
388.98	47.727
389.34	47.810
389.70	48.498
390.06	48.859
390.42	49.027
390.77	49.173
391.13	48.309
391.49	49.365
391.85	49.777
392.20	48.202
392.56	49.937
392.92	49.853
393.28	49.112
393.64	50.420
393.99	50.397
394.35	51.179
394.71	50.063
395.07	49.844
395.42	51.669
395.78	51.718
396.14	51.769
396.50	53.947
396.85	53.210
397.21	51.233
397.57	52.883
397.92	53.305
398.28	51.962
398.64	52.091
399.00	54.169
399.35	52.453
399.71	53.183
400.07	53.933
400.42	54.785
400.78	54.825
401.14	55.000
401.49	55.343
401.85	55.596
402.21	55.210
402.57	55.953
402.92	56.873
403.28	57.339
403.63	56.621
403.99	58.599
404.35	56.788
404.70	58.813
405.06	58.416
405.42	58.827
405.77	58.171
406.13	56.716
406.49	59.255
406.84	58.712
407.20	58.097
407.55	60.306
407.91	61.667
408.27	60.944
408.62	60.144
408.98	60.417
409.34	62.116
409.69	61.742
410.05	61.772
410.40	62.813
410.76	62.545
411.11	62.304
411.47	62.109
411.83	62.676
412.18	64.069
412.54	65.380
412.89	62.831
413.25	63.813
413.60	64.484
413.96	64.602
414.31	66.282
414.67	65.082
415.03	66.026
415.38	65.979
415.74	66.881
416.09	67.472
416.45	68.809
416.80	67.482
417.16	68.231
417.51	69.343
417.87	67.245
418.22	69.527
418.58	68.689
418.93	69.103
419.29	68.364
419.64	69.332
420.00	70.122
420.35	69.565
420.71	70.771
421.06	69.749
421.42	70.058
421.77	70.684
422.12	70.354
422.48	70.480
422.83	71.462
423.19	71.160
423.54	71.851
423.90	71.710
424.25	72.027
424.61	72.321
424.96	74.286
425.31	73.477
425.67	72.191
426.02	72.114
426.38	75.214
426.73	73.025
427.09	73.435
427.44	74.928
427.79	74.756
428.15	76.131
428.50	74.839
428.85	74.613
429.21	74.821
429.56	76.361
429.92	75.893
430.27	74.280
430.62	74.962
430.98	76.181
431.33	75.052
431.68	76.126
432.04	75.666
432.39	76.813
432.74	79.473
433.10	78.834
433.45	79.300
433.80	78.049
434.16	77.671
434.51	77.684
434.86	79.532
435.22	78.933
435.57	79.757
435.92	80.105
436.28	79.597
436.63	78.035
436.98	78.706
437.34	80.739
437.69	81.272
438.04	80.495
438.39	79.881
438.75	80.999
439.10	80.615
439.45	82.409
439.81	82.296
440.16	81.649
440.51	83.187
440.86	81.934
441.22	82.202
441.57	79.883
441.92	81.832
442.27	81.378
442.63	80.095
442.98	82.254
443.33	82.065
443.68	80.950
444.03	81.650
444.39	82.035
444.74	81.494
445.09	81.671
445.44	82.613
445.79	80.703
446.15	81.789
446.50	82.014
446.85	82.477
447.20	82.815
447.55	85.148
447.91	84.060
448.26	83.139
448.61	83.493
448.96	84.551
449.31	83.858
449.66	84.074
450.02	82.953
450.37	82.540
450.72	83.756
451.07	84.400
451.42	83.769
451.77	84.674
452.12	83.372
452.47	83.520
452.83	84.324
453.18	82.702
453.53	85.034
453.88	84.879
454.23	83.802
454.58	84.191
454.93	86.459
455.28	83.603
455.63	85.801
455.98	86.012
456.34	85.302
456.69	86.475
457.04	86.254
457.39	83.402
457.74	85.026
458.09	86.141
458.44	84.265
458.79	82.592
459.14	85.158
459.49	84.297
459.84	83.767
460.19	83.088
460.54	82.118
460.89	84.257
461.24	84.639
461.59	84.137
461.94	84.772
462.29	85.163
462.64	83.408
462.99	83.604
463.34	85.867
463.69	85.866
464.04	84.928
464.39	82.957
464.74	82.650
465.09	85.042
465.44	82.548
465.79	83.557
466.14	82.211
466.49	82.369
466.84	84.530
467.19	83.404
467.54	84.250
467.89	82.833
468.24	81.617
468.59	84.554
468.94	83.018
469.29	85.861
469.64	83.400
469.99	85.995
470.34	86.790
470.68	86.063
471.03	85.102
471.38	87.283
471.73	83.877
472.08	85.592
472.43	83.920
472.78	85.451
473.13	84.339
473.48	84.519
473.83	85.976
474.17	84.007
474.52	85.236
474.87	85.347
475.22	84.562
475.57	82.214
475.92	82.740
476.27	83.822
476.61	84.280
476.96	83.397
477.31	83.464
477.66	83.917
478.01	82.122
478.36	84.030
478.70	83.541
479.05	84.878
479.40	83.521
479.75	83.935
480.10	84.592
480.45	82.151
480.79	82.848
481.14	84.442
481.49	83.341
481.84	82.350
482.19	83.871
482.53	83.257
482.88	82.829
483.23	82.710
483.58	83.258
483.92	83.693
484.27	80.566
484.62	81.034
484.97	82.381
485.31	82.945
485.66	82.276
486.01	78.758
486.36	76.474
486.70	75.586
487.05	75.959
487.40	77.886
487.75	78.943
488.09	78.890
488.44	80.087
488.79	81.591
489.13	82.659
489.48	81.444
489.83	81.528
490.17	82.683
490.52	80.514
490.87	82.768
491.22	81.810
491.56	80.547
491.91	80.968
492.26	81.534
492.60	81.014
492.95	81.057
493.30	80.981
493.64	83.154
493.99	80.455
494.34	81.591
494.68	81.502
495.03	82.096
495.37	81.480
495.72	82.505
496.07	82.645
496.41	79.823
496.76	80.607
497.11	80.774
497.45	81.090
497.80	81.574
498.14	81.063
498.49	81.902
498.84	82.167
499.18	81.810
499.53	80.532
499.87	80.382
500.22	80.311
500.56	83.398
500.91	80.962
501.26	81.460
501.60	81.538
501.95	79.285
502.29	81.162
502.64	82.123
502.98	80.505
503.33	80.256
503.67	79.907
504.02	80.122
504.36	79.972
504.71	80.752
505.06	81.205
505.40	81.186
505.75	79.797
506.09	79.689
506.44	82.190
506.78	80.662
507.13	81.979
507.47	81.616
507.82	80.648
508.16	81.307
508.51	83.004
508.85	80.983
509.19	81.735
509.54	80.459
509.88	80.835
510.23	81.028
510.57	81.269
510.92	81.098
511.26	81.552
511.61	81.224
511.95	80.585
512.30	80.329
512.64	80.924
512.98	82.529
513.33	80.460
513.67	81.163
514.02	81.926
514.36	82.086
514.70	82.236
515.05	82.487
515.39	81.492
515.74	81.644
516.08	82.113
516.42	81.687
516.77	83.556
517.11	81.188
517.46	82.562
517.80	83.217
518.14	81.760
518.49	83.197
518.83	79.830
519.17	81.986
519.52	81.494
519.86	81.974
520.20	81.561
520.55	82.645
520.89	82.360
521.23	82.690
521.58	82.833
521.92	83.588
522.26	80.842
522.61	83.863
522.95	81.707
523.29	83.019
523.64	82.134
523.98	81.269
524.32	80.760
524.66	81.660
525.01	80.882
525.35	81.908
525.69	81.466
526.04	81.994
526.38	81.574
526.72	80.307
527.06	81.921
527.41	79.270
527.75	83.859
528.09	82.852
528.43	81.772
528.78	81.991
529.12	79.636
529.46	82.364
529.80	82.797
530.15	81.495
530.49	80.123
530.83	81.203
531.17	83.877
531.51	82.685
531.86	80.774
532.20	80.834
532.54	80.397
532.88	82.670
533.22	80.200
533.57	79.444
533.91	79.049
534.25	80.680
534.59	80.781
534.93	78.049
535.27	79.783
535.62	79.060
535.96	80.289
536.30	81.691
536.64	78.558
536.98	79.960
537.32	78.999
537.66	80.667
538.01	81.501
538.35	80.220
538.69	78.877
539.03	79.857
539.37	78.594
539.71	77.187
540.05	79.739
540.39	80.133
540.73	78.525
541.07	79.559
541.42	79.974
541.76	79.226
542.10	78.331
542.44	80.331
542.78	80.105
543.12	76.775
543.46	78.295
543.80	79.440
544.14	77.022
544.48	77.587
544.82	78.191
545.16	78.595
545.50	77.699
545.84	78.427
546.18	78.519
546.52	79.215
546.86	79.244
547.20	77.546
547.54	77.488
547.88	76.849
548.22	75.903
548.56	75.283
548.90	75.032
549.24	76.970
549.58	77.558
549.92	77.060
550.26	78.267
550.60	75.934
550.94	76.831
551.28	77.981
551.62	78.720
551.96	76.982
552.30	77.065
552.64	76.876
552.98	76.881
553.32	75.523
553.66	75.733
554.00	77.008
554.34	75.155
554.68	77.182
555.02	76.587
555.36	74.043
555.69	75.575
556.03	74.697
556.37	76.194
556.71	74.625
557.05	75.350
557.39	74.598
557.73	74.806
558.07	77.520
558.41	75.326
558.75	75.459
559.08	75.913
559.42	76.568
559.76	74.632
560.10	73.947
560.44	74.563
560.78	73.719
561.12	72.691
561.45	74.576
561.79	73.171
562.13	74.447
562.47	73.770
562.81	74.477
563.15	73.043
563.48	73.342
563.82	73.777
564.16	71.877
564.50	72.852
564.84	72.061
565.17	72.329
565.51	72.652
565.85	72.779
566.19	71.133
566.52	72.831
566.86	71.730
567.20	71.285
567.54	71.119
567.88	70.668
568.21	69.683
568.55	69.060
568.89	68.920
569.23	67.068
569.56	67.490
569.90	66.717
570.24	66.631
570.57	64.910
570.91	64.674
571.25	64.577
571.59	64.094
571.92	64.343
572.26	63.980
572.60	64.835
572.93	63.718
573.27	62.970
573.61	63.959
573.95	63.256
574.28	63.040
574.62	62.877
574.96	62.079
575.29	62.051
575.63	62.907
575.97	62.119
576.30	61.922
576.64	61.360
576.98	62.202
577.31	61.714
577.65	61.759
577.98	62.083
578.32	61.120
578.66	60.566
578.99	60.922
579.33	61.196
579.67	60.277
580.00	60.921
580.34	61.248
580.67	60.813
581.01	60.670
581.35	60.953
581.68	60.350
582.02	59.699
582.35	60.000
582.69	59.390
583.02	59.929
583.36	60.272
583.70	60.714
584.03	61.129
584.37	60.264
584.70	61.050
585.04	60.421
585.37	59.762
585.71	60.268
586.04	59.338
586.38	60.606
586.72	60.204
587.05	59.794
587.39	59.235
587.72	59.881
588.06	59.925
588.39	59.753
588.73	59.460
589.06	60.455
589.40	61.178
589.73	59.908
590.07	61.281
590.40	59.993
590.73	61.085
591.07	62.149
591.40	61.198
591.74	61.818
592.07	60.253
592.41	60.852
592.74	59.813
593.08	58.794
593.41	59.696
593.75	57.714
594.08	58.934
594.41	59.138
594.75	59.445
595.08	58.661
595.42	60.140
595.75	59.117
596.09	58.881
596.42	59.686
596.75	60.701
597.09	60.346
597.42	58.474
597.75	60.845
598.09	58.870
598.42	58.634
598.76	58.776
599.09	58.495
599.42	57.205
599.76	57.833
600.09	57.596
600.42	57.524
600.76	57.000
601.09	57.632
601.42	58.371
601.76	57.875
602.09	58.261
602.42	57.524
602.76	58.646
603.09	57.356
603.42	58.298
603.76	57.812
604.09	57.387
604.42	58.785
604.76	58.035
605.09	57.929
605.42	57.973
605.75	57.657
606.09	56.934
606.42	58.194
606.75	56.823
607.09	56.969
607.42	57.253
607.75	56.118
608.08	56.057
608.42	57.239
608.75	55.320
609.08	57.262
609.41	56.640
609.75	56.408
610.08	58.247
610.41	56.285
610.74	57.663
611.07	57.856
611.41	56.919
611.74	56.913
612.07	58.592
612.40	58.185
612.73	57.526
613.07	57.974
613.40	57.135
613.73	56.319
614.06	57.634
614.39	56.319
614.72	55.316
615.06	56.460
615.39	56.900
615.72	55.675
616.05	56.406
616.38	57.198
616.71	57.542
617.05	58.009
617.38	56.885
617.71	57.357
618.04	58.293
618.37	56.594
618.70	56.689
619.03	59.013
619.36	58.520
619.69	58.028
620.03	58.104
620.36	58.155
620.69	58.288
621.02	58.776
621.35	57.009
621.68	58.723
622.01	58.437
622.34	58.926
622.67	59.011
623.00	58.107
623.33	57.613
623.66	58.041
623.99	58.321
624.32	56.776
624.65	57.415
624.99	56.161
625.32	57.133
625.65	57.400
625.98	58.878
626.31	58.087
626.64	58.857
626.97	57.772
627.30	58.853
627.63	58.162
627.96	59.125
628.29	59.318
628.62	58.829
628.95	61.887
629.28	59.763
629.61	58.662
629.94	61.333
630.26	59.676
630.59	59.295
630.92	59.100
631.25	59.822
631.58	58.258
631.91	60.649
632.24	58.439
632.57	61.175
632.90	61.623
633.23	61.074
633.56	62.373
633.89	60.023
634.22	59.705
634.55	62.840
634.88	58.922
635.20	60.932
635.53	62.892
635.86	63.490
636.19	58.000
636.52	60.669
636.85	58.419
637.18	59.677
637.51	59.929
637.83	58.323
638.16	62.404
638.49	62.343
638.82	62.579
639.15	60.250
639.48	60.224
639.81	62.869
640.13	61.458
640.46	61.074
640.79	59.974
641.12	61.623
641.45	60.475
641.77	63.770
642.10	60.234
642.43	60.811
642.76	63.777
643.09	62.270
643.41	62.822
643.74	63.889
644.07	60.823
644.40	63.190
644.73	61.575
645.05	63.867
645.38	61.295
645.71	62.641
646.04	66.777
646.36	65.442
646.69	64.214
647.02	63.435
647.35	62.715
647.67	66.549
648.00	63.252
648.33	60.396
648.66	57.727
648.98	61.019
649.31	59.492
649.64	62.780
649.96	59.911
650.29	61.611
650.62	60.680
650.94	61.588
651.27	63.176
651.60	62.729
651.92	58.147
652.25	59.772
652.58	60.592
652.90	61.769
653.23	58.860
653.56	59.370
653.88	61.490
654.21	59.084
654.54	60.396
654.86	57.477
655.19	56.351
655.52	42.020
655.84	38.453
656.17	49.639
656.49	67.068
656.82	67.663
657.15	50.890
657.47	37.424
657.80	28.637
658.13	29.683
658.45	43.427
658.78	43.136
659.10	44.292
659.43	45.950
659.75	47.700
660.08	51.266
660.41	56.797
660.73	59.466
661.06	60.191
661.38	64.000
661.71	62.500
662.03	62.722
662.36	59.841
662.68	62.048
663.01	60.606
663.33	64.331
663.66	60.924
663.98	63.067
664.31	64.076
664.63	59.109
664.96	58.753
665.28	63.730
665.61	59.454
665.93	59.356
666.26	61.866
666.58	64.435
666.91	62.368
667.23	64.270
667.56	62.203
667.88	62.179
668.21	62.900
668.53	62.039
668.86	61.039
669.18	62.473
669.50	60.000
669.83	61.438
670.15	63.778
670.48	62.309
670.80	59.914
671.13	62.208
671.45	61.915
671.77	60.489
672.10	56.747
672.42	57.244
672.75	56.716
673.07	58.099
673.39	58.047
673.72	57.617
674.04	59.020
674.37	59.806
674.69	58.078
675.01	58.787
675.34	60.780
675.66	61.895
675.98	57.841
676.31	60.714
676.63	61.359
676.95	59.539
677.28	61.682
677.60	58.242
677.92	61.181
678.25	58.111
678.57	57.171
678.89	56.914
679.22	58.153
679.54	58.015
679.86	55.596
680.18	54.025
680.51	54.787
680.83	55.338
681.15	57.736
681.48	57.089
681.80	54.545
682.12	56.897
682.44	53.772
682.77	57.026
683.09	60.730
683.41	61.641
683.73	61.148
684.06	57.025
684.38	55.186
684.70	57.946
685.02	55.535
685.34	55.311
685.67	51.049
685.99	53.952
686.31	55.119
686.63	51.413
686.96	52.679
687.28	55.235
687.60	54.529
687.92	54.479
688.24	54.563
688.56	58.434
688.89	56.846
689.21	59.389
689.53	55.950
689.85	57.871
690.17	54.244
690.49	58.174
690.82	60.514
691.14	57.143
691.46	54.008
691.78	53.012
692.10	55.165
692.42	55.489
692.74	55.602
693.06	53.404
693.39	56.674
693.71	56.769
694.03	57.263
694.35	55.411
694.67	54.462
694.99	59.512
695.31	59.069
695.63	59.809
695.95	57.702
696.27	56.091
696.59	58.031
696.91	61.658
697.23	53.991
697.56	54.371
697.88	50.102
698.20	53.750
698.52	55.484
698.84	57.906
699.16	57.834
699.48	55.819
699.80	59.903
700.12	61.818
700.44	61.538
700.76	60.497
701.08	56.897
701.40	57.263
701.72	60.350
702.04	59.659
702.36	57.224
702.68	62.606
703.00	56.510
703.32	57.447
703.64	59.517
703.96	56.267
704.28	61.337
704.60	61.877
704.91	59.644
705.23	63.343
705.55	62.126
705.87	65.781
706.19	63.604
706.51	59.502
706.83	62.727
707.15	56.863
707.47	55.051
707.79	57.985
708.11	53.653
708.43	53.333
708.74	56.888
709.06	57.662
709.38	57.743
709.70	60.756
710.02	59.941
710.34	55.758
710.66	61.791
710.98	61.932
711.29	59.012
711.61	62.242
711.93	59.936
712.25	66.238
712.57	61.397
712.89	58.478
713.20	59.271
713.52	63.158
713.84	55.380
714.16	55.183
714.48	57.759
714.80	64.438
715.11	59.078
715.43	55.490
715.75	55.362
716.07	58.466
716.39	58.307
716.70	59.468
717.02	61.151
717.34	59.011
717.66	67.910
717.97	65.339
718.29	58.519
718.61	59.854
718.93	60.662
719.24	64.706
719.56	55.254
719.88	58.305
720.20	62.838
720.51	63.763
720.83	62.825
721.15	59.701
721.46	57.801
721.78	63.082
722.10	63.396
722.42	62.030
722.73	64.045
723.05	62.705
723.37	66.397
723.68	62.548
724.00	63.821
724.32	65.323
724.63	57.724
724.95	61.088
725.27	65.992
725.58	64.062
725.90	66.058
726.22	60.755
726.53	58.681
726.85	59.386
727.16	56.940
727.48	57.092
727.80	57.576
728.11	63.406
728.43	62.308
728.74	57.348
729.06	60.949
729.38	62.132
729.69	59.786
730.01	56.655
730.32	55.903
730.64	56.187
730.96	56.106
731.27	55.629
731.59	54.434
731.90	52.187
732.22	53.106
732.53	53.870
732.85	55.449
733.16	56.592
733.48	57.475
733.80	56.169
734.11	57.962
734.43	52.959
734.74	52.000
735.06	51.576
735.37	55.491
735.69	55.732
736.00	58.170
736.32	57.009
736.63	54.952
736.95	50.479
737.26	52.381
737.58	52.903
737.89	53.846
738.21	62.116
738.52	61.429
738.83	54.717
739.15	55.769
739.46	62.044
739.78	55.208
740.09	50.462
740.41	55.806
740.72	52.613
741.04	57.407
741.35	57.500
741.66	66.222
741.98	61.792
742.29	66.986
742.61	64.655
742.92	66.063
743.23	58.974
743.55	63.200
743.86	63.158
744.18	66.814
744.49	65.550
744.80	65.728
745.12	66.818
745.43	60.793
745.74	61.712
746.06	62.385
746.37	63.229
746.68	62.896
747.00	67.130
747.31	65.714
747.62	63.274
747.94	63.436
748.25	62.128
748.56	67.841
748.88	61.881
749.19	70.000
749.50	65.581
749.82	60.163
750.13	57.959
750.44	56.934
750.75	59.649
751.07	58.842
751.38	58.537
751.69	57.040
752.01	60.902
752.32	53.430
752.63	58.511
752.94	61.885
753.26	64.400
753.57	57.317
753.88	65.625
754.19	56.071
754.51	56.250
754.82	50.903
755.13	60.377
755.44	57.895
755.75	54.380
756.07	52.482
756.38	51.460
756.69	58.725
757.00	52.994
757.31	51.929
757.63	56.433
757.94	48.257
758.25	46.814
758.56	48.148
758.87	48.656
759.18	51.818
759.50	51.097
759.81	54.517
760.12	50.625
760.43	47.278
760.74	47.826
761.05	49.153
761.36	48.930
761.67	50.852
761.99	50.000
762.30	60.417
762.61	55.344
762.92	55.078
763.23	59.244
763.54	62.400
763.85	57.031
764.16	56.154
764.47	62.357
764.78	53.004
765.10	51.899
765.41	54.572
765.72	47.605
766.03	53.918
766.34	54.333
766.65	61.702
766.96	55.128
767.27	65.990
767.58	65.104
767.89	69.474
768.20	70.690
768.51	66.497
768.82	64.220
769.13	58.130
769.44	57.490
769.75	58.798
770.06	56.422
770.37	58.824
770.68	58.796
770.99	59.556
771.30	50.000
771.61	65.471
771.92	56.148
772.23	57.983
772.54	63.590
772.85	64.398
773.16	59.574
773.47	76.630
773.78	70.558
774.09	63.095
774.39	63.158
774.70	68.519
775.01	81.159
775.32	72.549
775.63	78.947
775.94	71.942
776.25	75.591
776.56	81.343
776.87	77.049
777.18	83.594
777.48	89.313
777.79	76.515
778.10	80.741
778.41	88.393
778.72	67.153
779.03	75.839
779.34	69.799
779.65	69.595
779.95	68.098
780.26	74.510
780.57	82.069
780.88	83.594
781.19	80.451
781.50	71.622
781.80	67.925
782.11	63.842
782.42	63.924
782.73	71.166
783.04	72.297
783.34	80.282
783.65	69.178
783.96	79.851
784.27	74.126
784.57	69.065
784.88	74.074
785.19	76.984
785.50	88.679
785.81	82.090
786.11	75.410
786.42	78.295
786.73	78.761
787.04	96.226
787.34	75.000
787.65	99.000
787.96	79.279
788.26	79.339
788.57	89.831
788.88	84.298
789.19	76.389
789.49	75.000
789.80	77.863
790.11	107.619
790.41	95.050
790.72	95.181
791.03	104.348
791.33	94.186
791.64	89.691
791.95	91.089
792.25	96.667
792.56	98.701
792.87	114.103
793.17	115.190
793.48	101.149
793.79	88.506
794.09	97.727
794.40	78.992
794.70	69.118
795.01	60.741
795.32	77.698
795.62	77.165
795.93	85.345
796.23	77.876
796.54	90.588
796.85	108.108
797.15	119.718
797.46	119.697
797.76	112.048
798.07	97.468
798.37	126.154
798.68	101.515
798.99	100.000
799.29	97.403
799.60	85.227
799.90	104.110
800.21	125.373
800.51	105.172
800.82	138.596
801.12	113.115
801.43	124.242
801.73	98.649
802.04	122.222
802.34	98.765
802.65	145.312
802.95	128.814
803.26	118.750
803.56	101.429
803.87	113.846
804.17	114.706
804.48	153.704
804.78	113.793
805.09	122.059
805.39	121.154
805.70	133.929
806.00	144.262
806.30	115.152
806.61	106.098
806.91	92.405
807.22	113.158
807.52	94.030
807.83	108.451
808.13	117.187
808.43	145.000
808.74	101.316
809.04	123.188
809.35	123.881
809.65	121.053
809.95	130.645
810.26	128.814
810.56	125.397
810.86	154.545
811.17	164.286
811.47	125.000
811.77	138.889
812.08	141.818
812.38	142.000
812.69	186.111
812.99	195.455
813.29	171.429
813.59	121.429
813.90	144.898
814.20	152.727
814.50	106.154
814.81	127.941
815.11	140.816
815.41	126.230
815.72	183.333
816.02	149.091
816.32	161.905
816.62	155.000
816.93	158.537
817.23	161.905
817.53	156.818
817.84	224.242
818.14	163.043
818.44	157.778
818.74	205.882
819.04	180.000
819.35	194.286
819.65	191.176
819.95	242.857
820.25	285.000
820.56	171.795
820.86	168.182
821.16	188.372
821.46	148.718
821.76	168.000
822.07	194.286
822.37	180.000
822.67	172.727
822.97	139.216
823.27	239.286
823.57	178.378
823.88	180.000
824.18	233.333
824.48	197.619
824.78	268.000
825.08	254.167
825.38	151.351
825.69	170.732
825.99	266.667
826.29	227.586
826.59	178.947
826.89	192.105
827.19	211.765
827.49	225.806
827.79	168.182
828.09	163.636
828.39	127.660
828.70	128.571
829.00	203.704
829.30	174.194
829.60	165.000
829.90	360.000
830.20	203.571
830.50	278.261
830.80	252.174
831.10	206.667
831.40	206.667
831.70	269.565
832.00	242.308
832.30	211.111
832.60	400.000
832.90	213.333
833.20	435.714
833.50	238.710
833.80	203.448
834.10	221.875
834.40	219.231
834.70	327.778
835.00	347.619
835.30	180.000
835.60	423.077
835.90	255.172
836.20	407.143
836.50	210.345
836.80	244.000
837.10	211.111
837.40	328.571
837.70	323.529
838.00	237.037
838.30	247.619
838.60	323.810
838.90	288.462
839.19	335.000
839.49	442.857
839.79	345.000
840.09	340.000
840.39	309.524
840.69	282.609
840.99	322.222
841.29	530.000
841.59	458.333
841.88	381.250
842.18	210.345
842.48	309.524
842.78	186.667
843.08	243.478
843.38	190.625
843.68	966.667
843.97	257.692
844.27	200.000
844.57	357.143
844.87	462.500
845.17	259.259
845.47	2000.000
845.76	522.222
846.06	370.588
846.36	562.500
846.66	421.429
846.96	387.500
847.25	472.727
847.55	509.091
847.85	291.304
848.15	650.000
848.44	428.571
848.74	344.444
849.04	405.882
849.34	600.000
849.63	336.842
849.93	500.000
850.23	1240.000
850.53	450.000
850.82	2700.000
851.12	-4800.000
851.42	4900.000
851.71	305.000
852.01	-1500.000
852.31	270.833
852.61	1800.000
852.90	290.476
853.20	292.000
853.50	352.941
853.79	266.667
854.09	279.167
854.39	400.000
854.68	200.000
854.98	193.548
855.28	223.333
855.57	289.655
855.87	222.222
856.17	294.737
856.46	300.000
856.76	347.059
857.05	227.586
857.35	270.833
857.65	360.000
857.94	317.391
858.24	238.462
858.53	315.000
858.83	322.727
859.13	353.333
859.42	0.000
859.72	588.889
860.01	490.909
860.31	281.818
860.60	321.053
860.90	265.217
861.20	677.778
861.49	591.667
861.79	-4100.000
862.08	725.000
862.38	285.714
862.67	415.385
862.97	388.235
863.26	611.111
863.56	322.222
863.85	558.333
864.15	675.000
864.44	460.000
864.74	1166.667
865.03	712.500
865.33	310.526
865.62	509.091
865.92	461.538
866.21	433.333
866.51	0.000
866.80	490.909
867.10	1100.000
867.39	592.308
867.69	527.273
867.98	321.053
868.27	518.182
868.57	336.842
868.86	-5200.000
869.16	331.250
869.45	2650.000
869.75	-5400.000
870.04	500.000
870.33	828.571
870.63	1300.000
870.92	3100.000
871.22	957.143
871.51	423.529
871.80	295.238
872.10	485.714
>>>>>End Processed Spectral Data<<<<<
