SpectraSuite Data File
++++++++++++++++++++++++++++++++++++
Date: Wed May 13 19:52:32 PDT 2015
User: schluterlab
Dark Spectrum Present: Yes
Reference Spectrum Present: Yes
Number of Sampled Component Spectra: 1
Spectrometers: USB2E3373
Integration Time (usec): 3000 (USB2E3373)
Spectra Averaged: 3 (USB2E3373)
Boxcar Smoothing: 0 (USB2E3373)
Correct for Electrical Dark: No (USB2E3373)
Strobe/Lamp Enabled: No (USB2E3373)
Correct for Detector Non-linearity: No (USB2E3373)
Correct for Stray Light: No (USB2E3373)
Number of Pixels in Processed Spectrum: 2048
>>>>>Begin Processed Spectral Data<<<<<
178.53	0.000
178.91	-1400.000
179.29	-1300.000
179.67	-266.667
180.04	-1425.000
180.42	2600.000
180.80	1140.000
181.18	-1050.000
181.56	957.143
181.94	0.000
182.31	-657.143
182.69	1800.000
183.07	-625.000
183.45	-611.111
183.83	545.455
184.20	-450.000
184.58	2300.000
184.96	6300.000
185.34	-1060.000
185.72	-537.500
186.09	-2450.000
186.47	2750.000
186.85	2750.000
187.23	5800.000
187.61	-1633.333
187.98	1425.000
188.36	590.909
188.74	527.273
189.12	-900.000
189.49	660.000
189.87	-5600.000
190.25	-1125.000
190.63	450.000
191.00	492.308
191.38	966.667
191.76	-1200.000
192.14	1575.000
192.51	762.500
192.89	1133.333
193.27	687.500
193.65	-1125.000
194.02	530.000
194.40	1140.000
194.78	510.000
195.15	600.000
195.53	690.000
195.91	-2300.000
196.29	387.500
196.66	310.526
197.04	-390.000
197.42	0.000
197.79	680.000
198.17	-5700.000
198.55	700.000
198.92	787.500
199.30	880.000
199.68	0.000
200.05	366.667
200.43	828.571
200.81	3800.000
201.18	1533.333
201.56	-1766.667
201.94	533.333
202.31	722.222
202.69	508.333
203.07	570.000
203.44	0.000
203.82	1300.000
204.19	985.714
204.57	428.571
204.95	750.000
205.32	1733.333
205.70	509.091
206.08	357.143
206.45	3500.000
206.83	431.250
207.20	900.000
207.58	840.000
207.96	300.000
208.33	725.000
208.71	-750.000
209.08	857.143
209.46	644.444
209.84	490.909
210.21	-1766.667
210.59	1375.000
210.96	-487.500
211.34	2250.000
211.71	530.000
212.09	850.000
212.46	0.000
212.84	1866.667
213.22	1150.000
213.59	-4500.000
213.97	900.000
214.34	857.143
214.72	654.545
215.09	1140.000
215.47	-2350.000
215.84	-2650.000
216.22	1566.667
216.59	421.429
216.97	1525.000
217.34	490.909
217.72	-866.667
218.09	0.000
218.47	-6100.000
218.84	733.333
219.22	771.429
219.59	1433.333
219.97	-714.286
220.34	1240.000
220.72	-1666.667
221.09	371.429
221.47	1750.000
221.84	-933.333
222.22	0.000
222.59	1650.000
222.97	-2450.000
223.34	1080.000
223.72	484.615
224.09	1040.000
224.46	2200.000
224.84	-5100.000
225.21	-980.000
225.59	-5000.000
225.96	670.000
226.34	315.000
226.71	3150.000
227.08	750.000
227.46	620.000
227.83	-1200.000
228.21	-2800.000
228.58	644.444
228.95	-1900.000
229.33	-2600.000
229.70	1833.333
230.08	985.714
230.45	-880.000
230.82	491.667
231.20	866.667
231.57	828.571
231.95	466.667
232.32	259.091
232.69	372.727
233.07	742.857
233.44	376.923
233.81	-1700.000
234.19	336.842
234.56	416.667
234.93	441.667
235.31	463.636
235.68	353.846
236.05	335.714
236.43	187.879
236.80	221.053
237.17	4000.000
237.55	252.381
237.92	182.143
238.29	214.286
238.67	183.871
239.04	165.517
239.41	155.556
239.79	121.739
240.16	116.667
240.53	109.091
240.91	103.922
241.28	108.000
241.65	102.000
242.02	86.957
242.40	91.935
242.77	80.000
243.14	62.366
243.51	74.157
243.89	68.235
244.26	65.556
244.63	52.688
245.00	58.511
245.38	51.485
245.75	56.075
246.12	48.624
246.49	56.934
246.87	52.800
247.24	53.846
247.61	46.429
247.98	37.908
248.36	33.784
248.73	37.580
249.10	38.217
249.47	35.593
249.84	38.503
250.22	31.016
250.59	37.278
250.96	37.879
251.33	30.806
251.70	38.119
252.08	29.048
252.45	27.803
252.82	26.957
253.19	29.362
253.56	29.412
253.94	24.896
254.31	30.078
254.68	30.000
255.05	27.306
255.42	30.488
255.79	25.735
256.16	24.910
256.54	22.615
256.91	22.776
257.28	22.302
257.65	21.122
258.02	23.292
258.39	28.391
258.76	20.067
259.14	24.405
259.51	21.884
259.88	18.012
260.25	20.544
260.62	21.098
260.99	22.981
261.36	21.321
261.73	20.057
262.10	19.767
262.47	18.873
262.85	20.613
263.22	16.809
263.59	23.077
263.96	20.055
264.33	19.321
264.70	19.474
265.07	18.670
265.44	19.697
265.81	16.058
266.18	18.844
266.55	18.780
266.92	19.165
267.29	14.815
267.66	15.826
268.03	17.727
268.40	15.654
268.77	13.842
269.14	18.243
269.51	19.865
269.88	17.716
270.25	15.576
270.62	14.831
270.99	19.570
271.36	17.382
271.73	16.589
272.10	16.304
272.47	19.570
272.84	16.234
273.21	14.465
273.58	15.939
273.95	11.950
274.32	14.876
274.69	16.060
275.06	15.354
275.43	15.745
275.80	15.631
276.17	13.849
276.54	16.632
276.91	15.613
277.28	14.062
277.65	15.280
278.02	13.872
278.39	14.062
278.76	16.182
279.13	15.660
279.50	14.898
279.87	16.534
280.23	15.569
280.60	15.474
280.97	13.309
281.34	15.044
281.71	14.182
282.08	14.203
282.45	13.455
282.82	15.808
283.19	11.586
283.56	14.912
283.92	14.213
284.29	13.404
284.66	14.156
285.03	12.116
285.40	13.908
285.77	13.468
286.14	13.126
286.51	13.167
286.87	13.162
287.24	14.332
287.61	14.767
287.98	14.610
288.35	12.995
288.72	14.174
289.08	12.207
289.45	12.026
289.82	12.033
290.19	12.402
290.56	11.485
290.93	11.782
291.29	11.350
291.66	11.357
292.03	14.826
292.40	14.684
292.77	11.391
293.13	11.194
293.50	11.808
293.87	13.185
294.24	11.704
294.60	12.373
294.97	11.337
295.34	12.271
295.71	13.210
296.08	10.541
296.44	10.316
296.81	9.643
297.18	11.789
297.55	9.367
297.91	10.554
298.28	11.914
298.65	10.705
299.02	10.935
299.38	11.155
299.75	9.569
300.12	9.579
300.48	10.875
300.85	10.974
301.22	10.955
301.59	10.480
301.95	10.076
302.32	9.756
302.69	10.633
303.05	11.394
303.42	8.642
303.79	10.985
304.15	8.159
304.52	9.502
304.89	9.292
305.25	10.209
305.62	10.193
305.99	9.445
306.35	9.284
306.72	10.987
307.09	11.210
307.45	10.923
307.82	8.817
308.19	9.603
308.55	10.787
308.92	8.485
309.29	9.187
309.65	9.544
310.02	10.782
310.38	10.645
310.75	8.025
311.12	10.133
311.48	9.091
311.85	9.958
312.22	10.198
312.58	9.875
312.95	10.348
313.31	8.835
313.68	9.979
314.05	11.341
314.41	11.357
314.78	9.768
315.14	8.838
315.51	8.754
315.87	9.505
316.24	9.732
316.61	8.772
316.97	9.002
317.34	7.828
317.70	9.560
318.07	9.143
318.43	10.078
318.80	9.466
319.16	11.394
319.53	8.630
319.89	9.048
320.26	10.200
320.62	9.921
320.99	9.091
321.35	9.192
321.72	10.370
322.08	9.576
322.45	10.249
322.81	9.012
323.18	10.405
323.54	9.276
323.91	9.434
324.27	8.891
324.64	8.015
325.00	9.017
325.37	9.463
325.73	9.605
326.10	8.650
326.46	8.781
326.83	10.009
327.19	9.394
327.56	8.275
327.92	9.624
328.29	9.583
328.65	10.037
329.01	8.755
329.38	9.158
329.74	9.049
330.11	9.048
330.47	9.826
330.84	9.743
331.20	9.016
331.56	10.000
331.93	8.519
332.29	9.849
332.66	10.177
333.02	9.506
333.38	9.666
333.75	9.180
334.11	8.897
334.48	9.672
334.84	9.559
335.20	9.000
335.57	8.341
335.93	8.304
336.29	8.791
336.66	9.919
337.02	7.783
337.38	9.074
337.75	8.021
338.11	9.400
338.47	7.919
338.84	8.983
339.20	8.899
339.56	10.584
339.93	7.818
340.29	9.149
340.65	8.913
341.02	9.686
341.38	8.986
341.74	7.982
342.11	8.908
342.47	9.604
342.83	9.418
343.20	8.918
343.56	8.425
343.92	8.860
344.28	7.653
344.65	9.372
345.01	8.165
345.37	7.890
345.73	8.883
346.10	8.525
346.46	9.153
346.82	8.814
347.19	9.023
347.55	8.292
347.91	8.495
348.27	9.778
348.63	8.612
349.00	9.142
349.36	8.128
349.72	7.779
350.08	8.752
350.45	8.137
350.81	8.773
351.17	9.157
351.53	7.862
351.89	7.838
352.26	8.603
352.62	9.062
352.98	8.671
353.34	8.628
353.70	7.938
354.07	8.548
354.43	8.016
354.79	7.884
355.15	8.460
355.51	9.432
355.87	8.571
356.24	8.225
356.60	6.576
356.96	8.447
357.32	7.850
357.68	9.134
358.04	8.393
358.40	7.522
358.77	8.216
359.13	6.867
359.49	7.765
359.85	6.667
360.21	7.895
360.57	8.872
360.93	7.615
361.29	7.861
361.66	7.198
362.02	8.657
362.38	8.365
362.74	7.440
363.10	6.958
363.46	7.557
363.82	7.332
364.18	7.930
364.54	8.247
364.90	8.003
365.26	7.500
365.62	7.524
365.98	7.524
366.35	7.163
366.71	8.243
367.07	8.012
367.43	7.475
367.79	7.994
368.15	8.118
368.51	7.340
368.87	7.780
369.23	6.584
369.59	8.689
369.95	6.691
370.31	7.692
370.67	8.116
371.03	7.940
371.39	7.872
371.75	7.500
372.11	7.255
372.47	8.138
372.83	8.213
373.19	7.659
373.55	6.948
373.91	8.616
374.27	6.873
374.63	7.418
374.99	7.062
375.35	7.258
375.71	7.265
376.07	7.750
376.42	7.290
376.78	8.482
377.14	6.920
377.50	7.020
377.86	6.715
378.22	7.522
378.58	5.827
378.94	6.600
379.30	6.807
379.66	6.853
380.02	6.880
380.38	6.861
380.74	6.903
381.09	7.152
381.45	7.068
381.81	7.678
382.17	6.943
382.53	6.541
382.89	7.346
383.25	6.442
383.61	6.815
383.97	6.629
384.32	6.987
384.68	6.568
385.04	6.331
385.40	6.749
385.76	6.941
386.12	6.801
386.48	7.048
386.83	6.543
387.19	7.978
387.55	6.617
387.91	6.892
388.27	7.051
388.62	7.191
388.98	6.757
389.34	7.384
389.70	7.357
390.06	7.224
390.42	7.134
390.77	7.188
391.13	6.445
391.49	7.360
391.85	6.556
392.20	5.804
392.56	6.629
392.92	6.298
393.28	6.095
393.64	6.535
393.99	7.025
394.35	7.072
394.71	7.026
395.07	6.542
395.42	6.057
395.78	7.188
396.14	6.828
396.50	7.206
396.85	7.247
397.21	6.165
397.57	6.262
397.92	6.310
398.28	5.157
398.64	6.631
399.00	5.316
399.35	5.753
399.71	6.076
400.07	6.328
400.42	7.055
400.78	6.936
401.14	6.463
401.49	6.090
401.85	6.171
402.21	7.126
402.57	5.984
402.92	6.116
403.28	7.245
403.63	6.498
403.99	6.752
404.35	6.788
404.70	5.516
405.06	6.174
405.42	6.987
405.77	6.057
406.13	6.151
406.49	6.564
406.84	6.438
407.20	5.024
407.55	6.126
407.91	6.733
408.27	6.063
408.62	6.020
408.98	6.556
409.34	6.888
409.69	6.129
410.05	6.568
410.40	6.422
410.76	6.033
411.11	6.574
411.47	6.390
411.83	6.353
412.18	5.628
412.54	5.915
412.89	6.446
413.25	6.553
413.60	6.918
413.96	6.557
414.31	6.136
414.67	6.844
415.03	6.358
415.38	6.443
415.74	6.752
416.09	6.466
416.45	5.689
416.80	6.477
417.16	6.434
417.51	6.636
417.87	6.358
418.22	7.508
418.58	6.908
418.93	6.327
419.29	6.238
419.64	6.801
420.00	6.463
420.35	7.188
420.71	6.814
421.06	6.683
421.42	6.667
421.77	6.783
422.12	6.064
422.48	5.181
422.83	6.115
423.19	6.796
423.54	6.094
423.90	6.551
424.25	6.086
424.61	6.488
424.96	6.647
425.31	6.589
425.67	6.404
426.02	5.829
426.38	6.288
426.73	6.437
427.09	6.261
427.44	7.016
427.79	5.750
428.15	7.083
428.50	7.022
428.85	7.151
429.21	5.853
429.56	6.013
429.92	6.593
430.27	6.107
430.62	6.093
430.98	5.968
431.33	5.928
431.68	6.073
432.04	6.177
432.39	6.168
432.74	6.583
433.10	6.395
433.45	6.822
433.80	6.208
434.16	6.090
434.51	6.421
434.86	6.556
435.22	6.003
435.57	6.383
435.92	5.383
436.28	6.584
436.63	7.395
436.98	6.583
437.34	6.977
437.69	6.476
438.04	6.464
438.39	7.104
438.75	6.101
439.10	7.039
439.45	6.789
439.81	6.042
440.16	6.324
440.51	6.444
440.86	6.601
441.22	5.562
441.57	6.423
441.92	6.653
442.27	6.889
442.63	6.108
442.98	6.423
443.33	6.630
443.68	6.866
444.03	6.296
444.39	5.842
444.74	6.223
445.09	7.170
445.44	7.053
445.79	6.482
446.15	7.464
446.50	5.977
446.85	6.526
447.20	5.813
447.55	5.807
447.91	6.895
448.26	6.066
448.61	6.218
448.96	6.921
449.31	6.749
449.66	6.866
450.02	5.905
450.37	5.896
450.72	6.430
451.07	6.520
451.42	5.836
451.77	7.634
452.12	6.755
452.47	6.965
452.83	6.760
453.18	7.274
453.53	7.112
453.88	6.793
454.23	6.515
454.58	6.723
454.93	7.756
455.28	6.110
455.63	7.100
455.98	8.036
456.34	6.721
456.69	7.264
457.04	7.554
457.39	7.189
457.74	6.732
458.09	7.073
458.44	6.271
458.79	5.694
459.14	7.223
459.49	7.005
459.84	6.925
460.19	6.836
460.54	7.118
460.89	6.637
461.24	6.861
461.59	7.902
461.94	6.782
462.29	7.181
462.64	6.956
462.99	6.766
463.34	7.133
463.69	6.942
464.04	7.014
464.39	7.826
464.74	6.892
465.09	6.152
465.44	6.870
465.79	6.544
466.14	7.170
466.49	6.785
466.84	7.531
467.19	7.182
467.54	7.438
467.89	6.843
468.24	7.621
468.59	7.570
468.94	7.025
469.29	7.005
469.64	7.831
469.99	7.104
470.34	7.662
470.68	7.471
471.03	7.007
471.38	7.158
471.73	7.795
472.08	8.092
472.43	7.224
472.78	6.978
473.13	7.445
473.48	7.428
473.83	7.317
474.17	6.970
474.52	7.196
474.87	7.414
475.22	7.661
475.57	6.341
475.92	6.001
476.27	6.539
476.61	6.895
476.96	6.707
477.31	6.489
477.66	6.510
478.01	6.377
478.36	6.399
478.70	6.646
479.05	6.390
479.40	6.704
479.75	6.660
480.10	6.113
480.45	6.188
480.79	6.402
481.14	6.409
481.49	6.455
481.84	6.401
482.19	6.361
482.53	6.835
482.88	6.515
483.23	6.776
483.58	6.733
483.92	6.795
484.27	5.577
484.62	6.509
484.97	5.597
485.31	5.959
485.66	4.990
486.01	4.366
486.36	4.302
486.70	4.557
487.05	4.894
487.40	5.133
487.75	5.531
488.09	5.399
488.44	5.470
488.79	6.076
489.13	5.959
489.48	5.750
489.83	6.129
490.17	6.664
490.52	6.510
490.87	6.332
491.22	5.912
491.56	6.105
491.91	6.468
492.26	5.972
492.60	6.406
492.95	6.501
493.30	6.121
493.64	6.673
493.99	6.685
494.34	6.568
494.68	7.234
495.03	7.425
495.37	6.747
495.72	6.725
496.07	6.868
496.41	6.195
496.76	6.596
497.11	5.988
497.45	6.288
497.80	6.478
498.14	5.942
498.49	6.537
498.84	6.472
499.18	6.571
499.53	6.600
499.87	6.477
500.22	6.500
500.56	6.699
500.91	6.731
501.26	6.164
501.60	7.167
501.95	6.462
502.29	5.951
502.64	5.866
502.98	6.452
503.33	6.536
503.67	6.914
504.02	6.548
504.36	6.598
504.71	6.253
505.06	6.940
505.40	6.806
505.75	6.220
506.09	6.997
506.44	7.005
506.78	6.722
507.13	6.916
507.47	7.222
507.82	6.636
508.16	6.940
508.51	6.646
508.85	7.200
509.19	6.327
509.54	6.480
509.88	7.316
510.23	6.735
510.57	7.534
510.92	6.732
511.26	7.400
511.61	7.158
511.95	7.411
512.30	6.522
512.64	6.609
512.98	7.288
513.33	7.869
513.67	6.670
514.02	6.981
514.36	7.537
514.70	7.526
515.05	7.250
515.39	7.740
515.74	6.700
516.08	8.105
516.42	7.381
516.77	7.860
517.11	7.214
517.46	7.788
517.80	8.130
518.14	6.717
518.49	7.993
518.83	8.352
519.17	7.448
519.52	7.810
519.86	8.329
520.20	7.861
520.55	8.139
520.89	7.482
521.23	8.685
521.58	7.923
521.92	8.389
522.26	7.505
522.61	7.850
522.95	7.060
523.29	7.851
523.64	8.110
523.98	8.256
524.32	7.841
524.66	8.839
525.01	8.272
525.35	8.302
525.69	7.697
526.04	7.664
526.38	7.749
526.72	8.834
527.06	8.223
527.41	6.993
527.75	8.103
528.09	7.964
528.43	8.222
528.78	8.482
529.12	7.818
529.46	7.593
529.80	8.478
530.15	8.411
530.49	8.185
530.83	8.101
531.17	8.616
531.51	9.209
531.86	8.645
532.20	8.931
532.54	9.097
532.88	8.665
533.22	8.370
533.57	8.642
533.91	8.730
534.25	7.776
534.59	8.054
534.93	7.674
535.27	8.509
535.62	7.631
535.96	8.286
536.30	7.756
536.64	8.886
536.98	8.162
537.32	8.427
537.66	8.667
538.01	8.756
538.35	9.050
538.69	8.743
539.03	8.512
539.37	8.179
539.71	7.388
540.05	8.366
540.39	8.439
540.73	8.215
541.07	9.085
541.42	8.611
541.76	8.452
542.10	8.797
542.44	7.815
542.78	8.630
543.12	7.869
543.46	8.262
543.80	8.588
544.14	7.959
544.48	8.000
544.82	8.467
545.16	8.393
545.50	8.483
545.84	8.468
546.18	8.418
546.52	8.259
546.86	8.316
547.20	8.833
547.54	8.751
547.88	9.056
548.22	8.593
548.56	7.987
548.90	8.003
549.24	7.811
549.58	9.141
549.92	8.654
550.26	8.310
550.60	8.022
550.94	8.592
551.28	8.339
551.62	8.555
551.96	9.544
552.30	8.669
552.64	8.046
552.98	8.881
553.32	9.103
553.66	9.407
554.00	9.266
554.34	8.972
554.68	9.514
555.02	8.815
555.36	9.116
555.69	9.202
556.03	9.017
556.37	9.004
556.71	7.913
557.05	8.824
557.39	8.957
557.73	9.033
558.07	8.412
558.41	8.394
558.75	8.964
559.08	10.067
559.42	8.692
559.76	9.265
560.10	9.350
560.44	9.015
560.78	7.851
561.12	8.707
561.45	8.931
561.79	8.965
562.13	8.853
562.47	8.607
562.81	9.275
563.15	8.963
563.48	8.820
563.82	8.089
564.16	9.418
564.50	7.422
564.84	8.660
565.17	8.366
565.51	7.923
565.85	8.376
566.19	7.952
566.52	8.550
566.86	8.017
567.20	8.373
567.54	7.877
567.88	7.876
568.21	7.937
568.55	7.937
568.89	7.053
569.23	7.130
569.56	6.923
569.90	6.981
570.24	6.817
570.57	6.358
570.91	6.044
571.25	6.022
571.59	6.510
571.92	5.818
572.26	6.384
572.60	6.517
572.93	5.907
573.27	6.448
573.61	6.198
573.95	6.176
574.28	5.628
574.62	5.709
574.96	5.663
575.29	5.674
575.63	5.691
575.97	5.754
576.30	6.107
576.64	5.812
576.98	5.980
577.31	5.707
577.65	5.668
577.98	5.489
578.32	5.600
578.66	5.535
578.99	5.706
579.33	5.422
579.67	5.595
580.00	5.682
580.34	6.265
580.67	5.412
581.01	6.004
581.35	5.870
581.68	5.635
582.02	5.020
582.35	5.118
582.69	5.458
583.02	5.608
583.36	5.580
583.70	6.119
584.03	5.904
584.37	6.798
584.70	5.930
585.04	6.311
585.37	6.058
585.71	6.133
586.04	5.823
586.38	6.270
586.72	6.241
587.05	6.303
587.39	6.069
587.72	6.210
588.06	6.190
588.39	6.283
588.73	6.571
589.06	6.326
589.40	6.667
589.73	6.758
590.07	6.797
590.40	6.723
590.73	6.792
591.07	7.204
591.40	7.170
591.74	7.792
592.07	7.330
592.41	7.152
592.74	6.779
593.08	6.662
593.41	6.770
593.75	6.777
594.08	6.973
594.41	6.858
594.75	6.654
595.08	6.586
595.42	7.110
595.75	6.481
596.09	6.572
596.42	7.623
596.75	7.387
597.09	7.619
597.42	7.083
597.75	7.417
598.09	7.609
598.42	7.002
598.76	7.134
599.09	6.956
599.42	6.732
599.76	6.918
600.09	6.485
600.42	6.866
600.76	7.000
601.09	6.849
601.42	7.230
601.76	7.249
602.09	7.036
602.42	7.365
602.76	7.336
603.09	7.081
603.42	7.185
603.76	7.088
604.09	7.173
604.42	7.053
604.76	7.760
605.09	7.558
605.42	7.696
605.75	6.954
606.09	6.954
606.42	6.825
606.75	7.092
607.09	7.367
607.42	7.060
607.75	6.414
608.08	7.382
608.42	7.978
608.75	7.259
609.08	8.002
609.41	7.139
609.75	7.718
610.08	7.917
610.41	6.750
610.74	7.048
611.07	7.312
611.41	7.655
611.74	8.245
612.07	7.712
612.40	8.290
612.73	7.474
613.07	8.728
613.40	8.004
613.73	7.132
614.06	7.796
614.39	8.180
614.72	8.421
615.06	8.246
615.39	7.166
615.72	7.669
616.05	8.293
616.38	7.449
616.71	8.907
617.05	8.422
617.38	8.839
617.71	8.108
618.04	8.353
618.37	8.338
618.70	8.339
619.03	9.211
619.36	8.079
619.69	8.944
620.03	9.615
620.36	8.222
620.69	9.521
621.02	9.218
621.35	9.475
621.68	8.956
622.01	9.133
622.34	9.682
622.67	8.289
623.00	9.538
623.33	8.363
623.66	9.149
623.99	8.321
624.32	9.486
624.65	8.333
624.99	7.649
625.32	8.689
625.65	9.016
625.98	9.301
626.31	10.187
626.64	10.204
626.97	9.559
627.30	9.061
627.63	10.911
627.96	9.336
628.29	9.799
628.62	11.528
628.95	10.566
629.28	11.131
629.61	10.816
629.94	10.286
630.26	8.484
630.59	10.296
630.92	10.249
631.25	10.267
631.58	10.210
631.91	10.446
632.24	10.338
632.57	11.228
632.90	11.404
633.23	10.850
633.56	11.186
633.89	13.137
634.22	12.826
634.55	12.308
634.88	9.820
635.20	12.425
635.53	12.169
635.86	11.634
636.19	11.059
636.52	11.995
636.85	11.569
637.18	11.175
637.51	12.766
637.83	9.618
638.16	11.893
638.49	12.091
638.82	12.263
639.15	11.750
639.48	13.217
639.81	12.198
640.13	12.760
640.46	13.423
640.79	14.003
641.12	11.554
641.45	13.128
641.77	13.108
642.10	12.573
642.43	13.964
642.76	12.848
643.09	12.883
643.41	13.354
643.74	15.741
644.07	12.500
644.40	14.877
644.73	14.961
645.05	14.897
645.38	13.270
645.71	14.171
646.04	14.452
646.36	17.028
646.69	13.211
647.02	13.435
647.35	15.292
647.67	15.575
648.00	13.984
648.33	14.686
648.66	13.636
648.98	12.444
649.31	11.809
649.64	12.556
649.96	13.711
650.29	13.902
650.62	13.754
650.94	14.587
651.27	15.034
651.60	15.973
651.92	14.377
652.25	13.844
652.58	14.174
652.90	15.166
653.23	12.481
653.56	13.386
653.88	15.531
654.21	13.744
654.54	12.706
654.86	15.576
655.19	11.486
655.52	7.053
655.84	4.333
656.17	5.137
656.49	7.085
656.82	7.410
657.15	5.733
657.47	4.370
657.80	3.512
658.13	3.632
658.45	5.661
658.78	5.952
659.10	6.395
659.43	7.250
659.75	7.637
660.08	9.114
660.41	12.104
660.73	12.325
661.06	14.490
661.38	14.727
661.71	17.500
662.03	16.568
662.36	15.905
662.68	17.671
663.01	17.778
663.33	13.163
663.66	17.017
663.98	16.199
664.31	15.126
664.63	14.980
664.96	15.895
665.28	15.779
665.61	15.010
665.93	13.481
666.26	15.010
666.58	16.318
666.91	18.182
667.23	16.404
667.56	15.767
667.88	19.872
668.21	19.403
668.53	17.137
668.86	16.017
669.18	16.418
669.50	15.870
669.83	18.301
670.15	20.222
670.48	16.122
670.80	18.319
671.13	19.321
671.45	16.809
671.77	15.275
672.10	17.560
672.42	15.194
672.75	14.428
673.07	14.613
673.39	11.212
673.72	13.672
674.04	15.098
674.37	16.505
674.69	13.906
675.01	13.598
675.34	16.838
675.66	17.895
675.98	16.701
676.31	17.437
676.63	18.047
676.95	15.933
677.28	16.822
677.60	17.363
677.92	19.620
678.25	16.222
678.57	16.135
678.89	17.435
679.22	15.914
679.54	15.267
679.86	14.128
680.18	14.490
680.51	15.957
680.83	17.260
681.15	17.925
681.48	15.312
681.80	17.021
682.12	15.517
682.44	13.540
682.77	17.923
683.09	20.815
683.41	17.295
683.73	16.336
684.06	19.008
684.38	14.873
684.70	17.248
685.02	16.323
685.34	12.271
685.67	12.413
685.99	13.058
686.31	13.823
686.63	10.601
686.96	13.750
687.28	14.621
687.60	11.957
687.92	17.002
688.24	16.540
688.56	15.663
688.89	18.050
689.21	16.594
689.53	16.910
689.85	16.630
690.17	16.770
690.49	18.259
690.82	15.421
691.14	17.411
691.46	15.401
691.78	16.466
692.10	14.876
692.42	13.772
692.74	14.523
693.06	17.021
693.39	18.891
693.71	13.755
694.03	15.789
694.35	15.368
694.67	16.476
694.99	19.024
695.31	20.098
695.63	17.464
695.95	18.826
696.27	14.467
696.59	17.098
696.91	18.912
697.23	14.085
697.56	17.484
697.88	14.315
698.20	16.250
698.52	15.914
698.84	18.040
699.16	17.051
699.48	18.052
699.80	19.565
700.12	20.260
700.44	16.976
700.76	19.061
701.08	20.690
701.40	21.229
701.72	20.700
702.04	23.864
702.36	16.714
702.68	22.946
703.00	19.945
703.32	18.351
703.64	19.571
703.96	19.777
704.28	19.477
704.60	24.340
704.91	19.881
705.23	21.114
705.55	22.591
705.87	21.927
706.19	18.728
706.51	21.184
706.83	21.818
707.15	18.487
707.47	20.455
707.79	19.656
708.11	17.808
708.43	19.524
708.74	16.071
709.06	20.779
709.38	21.785
709.70	21.221
710.02	21.068
710.34	20.606
710.66	20.000
710.98	22.159
711.29	23.837
711.61	24.189
711.93	21.474
712.25	22.508
712.57	20.956
712.89	25.260
713.20	20.365
713.52	22.368
713.84	21.203
714.16	21.951
714.48	20.402
714.80	25.228
715.11	19.885
715.43	22.849
715.75	21.739
716.07	21.406
716.39	21.317
716.70	23.920
717.02	25.899
717.34	24.028
717.66	25.000
717.97	25.498
718.29	25.185
718.61	22.993
718.93	24.265
719.24	20.069
719.56	23.051
719.88	22.373
720.20	22.297
720.51	24.390
720.83	26.766
721.15	21.642
721.46	23.759
721.78	25.090
722.10	24.151
722.42	25.188
722.73	22.846
723.05	25.410
723.37	23.482
723.68	28.958
724.00	24.390
724.32	24.194
724.63	26.016
724.95	25.941
725.27	28.340
725.58	24.219
725.90	22.263
726.22	19.623
726.53	24.306
726.85	21.843
727.16	25.267
727.48	23.050
727.80	23.864
728.11	25.000
728.43	23.462
728.74	22.939
729.06	29.562
729.38	28.676
729.69	22.776
730.01	19.795
730.32	22.917
730.64	24.749
730.96	20.462
731.27	22.185
731.59	21.713
731.90	19.534
732.22	21.739
732.53	21.053
732.85	21.795
733.16	23.794
733.48	22.591
733.80	24.675
734.11	23.248
734.43	23.373
734.74	21.429
735.06	17.765
735.37	23.699
735.69	20.701
736.00	21.569
736.32	24.299
736.63	21.725
736.95	22.045
737.26	18.707
737.58	20.645
737.89	23.077
738.21	25.939
738.52	22.143
738.83	21.509
739.15	21.538
739.46	26.277
739.78	26.736
740.09	25.231
740.41	24.839
740.72	20.557
741.04	22.593
741.35	25.417
741.66	28.889
741.98	29.245
742.29	27.751
742.61	33.190
742.92	28.054
743.23	27.350
743.55	27.200
743.86	31.579
744.18	34.513
744.49	28.708
744.80	33.333
745.12	30.455
745.43	27.753
745.74	31.081
746.06	22.936
746.37	31.390
746.68	29.864
747.00	32.407
747.31	28.571
747.62	23.894
747.94	25.110
748.25	22.128
748.56	30.837
748.88	30.693
749.19	35.000
749.50	25.581
749.82	23.577
750.13	20.408
750.44	25.547
750.75	26.316
751.07	24.437
751.38	26.829
751.69	23.105
752.01	25.188
752.32	19.856
752.63	23.050
752.94	31.148
753.26	26.400
753.57	27.236
753.88	26.172
754.19	28.214
754.51	26.389
754.82	20.939
755.13	21.132
755.44	26.316
755.75	20.438
756.07	24.468
756.38	20.803
756.69	25.168
757.00	19.760
757.31	21.365
757.63	20.175
757.94	21.180
758.25	19.608
758.56	17.037
758.87	19.355
759.18	22.121
759.50	20.690
759.81	19.938
760.12	18.437
760.43	21.203
760.74	18.207
761.05	18.079
761.36	20.053
761.67	20.739
761.99	18.944
762.30	24.306
762.61	18.702
762.92	27.344
763.23	27.311
763.54	30.400
763.85	21.875
764.16	28.462
764.47	27.376
764.78	19.788
765.10	18.671
765.41	21.829
765.72	18.862
766.03	20.376
766.34	24.333
766.65	27.234
766.96	25.214
767.27	34.010
767.58	35.417
767.89	35.789
768.20	33.908
768.51	28.426
768.82	29.358
769.13	23.171
769.44	23.077
769.75	27.468
770.06	18.349
770.37	31.674
770.68	30.556
770.99	26.667
771.30	21.721
771.61	26.457
771.92	26.639
772.23	30.672
772.54	30.769
772.85	34.031
773.16	35.106
773.47	36.957
773.78	32.487
774.09	36.905
774.39	36.842
774.70	39.506
775.01	39.855
775.32	45.098
775.63	42.763
775.94	39.568
776.25	44.094
776.56	47.015
776.87	47.541
777.18	42.969
777.48	52.672
777.79	45.455
778.10	45.185
778.41	58.929
778.72	39.416
779.03	40.268
779.34	40.940
779.65	43.919
779.95	34.356
780.26	39.216
780.57	42.069
780.88	50.781
781.19	46.617
781.50	45.270
781.80	42.767
782.11	29.944
782.42	39.241
782.73	36.196
783.04	44.595
783.34	39.437
783.65	47.260
783.96	47.015
784.27	39.860
784.57	39.568
784.88	42.593
785.19	47.619
785.50	50.000
785.81	54.478
786.11	60.656
786.42	44.961
786.73	47.788
787.04	50.000
787.34	56.250
787.65	57.000
787.96	57.658
788.26	47.107
788.57	51.695
788.88	55.372
789.19	40.972
789.49	50.000
789.80	50.382
790.11	57.143
790.41	59.406
790.72	65.060
791.03	61.957
791.33	68.605
791.64	62.887
791.95	62.376
792.25	73.333
792.56	68.831
792.87	64.103
793.17	77.215
793.48	66.667
793.79	62.069
794.09	51.136
794.40	47.899
794.70	47.059
795.01	43.704
795.32	46.043
795.62	38.583
795.93	53.448
796.23	56.637
796.54	69.412
796.85	71.622
797.15	88.732
797.46	65.152
797.76	74.699
798.07	72.152
798.37	80.000
798.68	74.242
798.99	87.324
799.29	68.831
799.60	68.182
799.90	82.192
800.21	92.537
800.51	94.828
800.82	100.000
801.12	81.967
801.43	100.000
801.73	72.973
802.04	85.714
802.34	70.370
802.65	79.687
802.95	105.085
803.26	79.688
803.56	71.429
803.87	80.000
804.17	92.647
804.48	105.556
804.78	81.034
805.09	80.882
805.39	98.077
805.70	98.214
806.00	100.000
806.30	77.273
806.61	74.390
806.91	64.557
807.22	72.368
807.52	61.194
807.83	80.282
808.13	82.813
808.43	98.333
808.74	75.000
809.04	102.899
809.35	83.582
809.65	89.474
809.95	103.226
810.26	79.661
810.56	100.000
810.86	154.545
811.17	147.619
811.47	115.000
811.77	94.444
812.08	109.091
812.38	100.000
812.69	122.222
812.99	125.000
813.29	120.408
813.59	123.810
813.90	120.408
814.20	85.455
814.50	81.538
814.81	94.118
815.11	112.245
815.41	90.164
815.72	145.238
816.02	107.273
816.32	126.190
816.62	112.500
816.93	141.463
817.23	130.952
817.53	140.909
817.84	181.818
818.14	119.565
818.44	135.556
818.74	123.529
819.04	150.000
819.35	151.429
819.65	158.824
819.95	192.857
820.25	215.000
820.56	151.282
820.86	127.273
821.16	141.860
821.46	128.205
821.76	126.000
822.07	148.571
822.37	162.500
822.67	148.485
822.97	125.490
823.27	200.000
823.57	145.946
823.88	165.000
824.18	176.667
824.48	173.810
824.78	208.000
825.08	216.667
825.38	162.162
825.69	121.951
825.99	195.833
826.29	196.552
826.59	181.579
826.89	144.737
827.19	182.353
827.49	209.677
827.79	150.000
828.09	156.818
828.39	117.021
828.70	124.490
829.00	162.963
829.30	129.032
829.60	165.000
829.90	313.333
830.20	171.429
830.50	195.652
830.80	230.435
831.10	223.333
831.40	166.667
831.70	191.304
832.00	215.385
832.30	218.519
832.60	325.000
832.90	236.667
833.20	392.857
833.50	187.097
833.80	186.207
834.10	209.375
834.40	207.692
834.70	277.778
835.00	333.333
835.30	162.857
835.60	300.000
835.90	203.448
836.20	364.286
836.50	196.552
836.80	224.000
837.10	194.444
837.40	238.095
837.70	370.588
838.00	177.778
838.30	257.143
838.60	280.952
838.90	265.385
839.19	290.000
839.49	392.857
839.79	305.000
840.09	260.000
840.39	242.857
840.69	256.522
840.99	322.222
841.29	540.000
841.59	358.333
841.88	312.500
842.18	155.172
842.48	271.429
842.78	166.667
843.08	269.565
843.38	178.125
843.68	950.000
843.97	242.308
844.27	189.655
844.57	280.952
844.87	381.250
845.17	207.407
845.47	1533.333
845.76	388.889
846.06	294.118
846.36	575.000
846.66	371.429
846.96	350.000
847.25	418.182
847.55	472.727
847.85	239.130
848.15	490.000
848.44	378.571
848.74	255.556
849.04	352.941
849.34	550.000
849.63	278.947
849.93	527.273
850.23	1000.000
850.53	385.714
850.82	2250.000
851.12	-3200.000
851.42	4200.000
851.71	255.000
852.01	-1300.000
852.31	270.833
852.61	1633.333
852.90	266.667
853.20	232.000
853.50	270.588
853.79	247.619
854.09	258.333
854.39	350.000
854.68	172.973
854.98	200.000
855.28	193.333
855.57	224.138
855.87	237.037
856.17	231.579
856.46	260.000
856.76	282.353
857.05	196.552
857.35	233.333
857.65	373.333
857.94	230.435
858.24	250.000
858.53	310.000
858.83	245.455
859.13	360.000
859.42	0.000
859.72	588.889
860.01	463.636
860.31	245.455
860.60	310.526
860.90	239.130
861.20	544.444
861.49	458.333
861.79	-5800.000
862.08	687.500
862.38	304.762
862.67	338.462
862.97	335.294
863.26	588.889
863.56	305.556
863.85	391.667
864.15	687.500
864.44	420.000
864.74	766.667
865.03	725.000
865.33	284.211
865.62	454.545
865.92	453.846
866.21	425.000
866.51	0.000
866.80	518.182
867.10	1180.000
867.39	415.385
867.69	554.545
867.98	331.579
868.27	436.364
868.57	363.158
868.86	-5000.000
869.16	300.000
869.45	2000.000
869.75	-5400.000
870.04	408.333
870.33	728.571
870.63	1150.000
870.92	2750.000
871.22	785.714
871.51	317.647
871.80	247.619
872.10	342.857
>>>>>End Processed Spectral Data<<<<<
