SpectraSuite Data File
++++++++++++++++++++++++++++++++++++
Date: Wed May 13 19:13:48 PDT 2015
User: schluterlab
Dark Spectrum Present: Yes
Reference Spectrum Present: Yes
Number of Sampled Component Spectra: 1
Spectrometers: USB2E3373
Integration Time (usec): 3000 (USB2E3373)
Spectra Averaged: 3 (USB2E3373)
Boxcar Smoothing: 0 (USB2E3373)
Correct for Electrical Dark: No (USB2E3373)
Strobe/Lamp Enabled: No (USB2E3373)
Correct for Detector Non-linearity: No (USB2E3373)
Correct for Stray Light: No (USB2E3373)
Number of Pixels in Processed Spectrum: 2048
>>>>>Begin Processed Spectral Data<<<<<
178.53	0.000
178.91	-1575.000
179.29	-1425.000
179.67	-311.111
180.04	-1650.000
180.42	2800.000
180.80	1060.000
181.18	-1275.000
181.56	685.714
181.94	0.000
182.31	-757.143
182.69	1666.667
183.07	-487.500
183.45	-566.667
183.83	518.182
184.20	-490.000
184.58	2800.000
184.96	6300.000
185.34	-1000.000
185.72	-800.000
186.09	-2850.000
186.47	3150.000
186.85	2600.000
187.23	6200.000
187.61	-1966.667
187.98	1550.000
188.36	609.091
188.74	545.455
189.12	-1100.000
189.49	620.000
189.87	-5500.000
190.25	-1625.000
190.63	457.143
191.00	461.538
191.38	1000.000
191.76	-1350.000
192.14	1175.000
192.51	725.000
192.89	966.667
193.27	675.000
193.65	-1400.000
194.02	560.000
194.40	1060.000
194.78	650.000
195.15	466.667
195.53	560.000
195.91	-2650.000
196.29	425.000
196.66	305.263
197.04	-370.000
197.42	0.000
197.79	700.000
198.17	-5800.000
198.55	685.714
198.92	762.500
199.30	920.000
199.68	0.000
200.05	305.556
200.43	814.286
200.81	4800.000
201.18	1766.667
201.56	-1700.000
201.94	733.333
202.31	644.444
202.69	458.333
203.07	640.000
203.44	0.000
203.82	1525.000
204.19	885.714
204.57	428.571
204.95	775.000
205.32	1866.667
205.70	554.545
206.08	407.143
206.45	3150.000
206.83	362.500
207.20	1150.000
207.58	840.000
207.96	361.111
208.33	700.000
208.71	-783.333
209.08	785.714
209.46	655.556
209.84	581.818
210.21	-1633.333
210.59	1400.000
210.96	-650.000
211.34	3250.000
211.71	560.000
212.09	933.333
212.46	0.000
212.84	1933.333
213.22	1400.000
213.59	-5500.000
213.97	933.333
214.34	814.286
214.72	545.455
215.09	1060.000
215.47	-2450.000
215.84	-2550.000
216.22	1933.333
216.59	407.143
216.97	1375.000
217.34	563.636
217.72	-783.333
218.09	0.000
218.47	-4800.000
218.84	744.444
219.22	900.000
219.59	2033.333
219.97	-628.571
220.34	1100.000
220.72	-1766.667
221.09	485.714
221.47	1775.000
221.84	-1150.000
222.22	0.000
222.59	1300.000
222.97	-2750.000
223.34	1180.000
223.72	469.231
224.09	1200.000
224.46	2100.000
224.84	-5000.000
225.21	-1120.000
225.59	-5500.000
225.96	670.000
226.34	320.000
226.71	2700.000
227.08	800.000
227.46	550.000
227.83	-950.000
228.21	-2700.000
228.58	644.444
228.95	-2550.000
229.33	-2300.000
229.70	1733.333
230.08	771.429
230.45	-860.000
230.82	491.667
231.20	1000.000
231.57	742.857
231.95	483.333
232.32	245.455
232.69	472.727
233.07	571.429
233.44	461.538
233.81	-1533.333
234.19	294.737
234.56	408.333
234.93	458.333
235.31	527.273
235.68	384.615
236.05	357.143
236.43	160.606
236.80	310.526
237.17	4400.000
237.55	276.190
237.92	217.857
238.29	228.571
238.67	187.097
239.04	213.793
239.41	122.222
239.79	110.870
240.16	152.381
240.53	125.000
240.91	100.000
241.28	94.000
241.65	98.000
242.02	95.652
242.40	109.677
242.77	83.333
243.14	66.667
243.51	73.034
243.89	54.118
244.26	46.667
244.63	49.462
245.00	53.191
245.38	58.416
245.75	55.140
246.12	44.037
246.49	47.445
246.87	57.600
247.24	41.538
247.61	48.571
247.98	35.948
248.36	35.135
248.73	32.484
249.10	33.758
249.47	29.379
249.84	33.690
250.22	27.807
250.59	29.586
250.96	32.323
251.33	27.962
251.70	30.693
252.08	27.143
252.45	29.148
252.82	23.913
253.19	26.809
253.56	22.745
253.94	30.705
254.31	21.484
254.68	24.231
255.05	21.771
255.42	15.854
255.79	21.324
256.16	23.105
256.54	19.435
256.91	19.573
257.28	19.424
257.65	24.092
258.02	17.391
258.39	14.826
258.76	18.729
259.14	18.750
259.51	17.021
259.88	14.596
260.25	19.637
260.62	16.474
260.99	16.460
261.36	18.018
261.73	19.484
262.10	14.244
262.47	16.338
262.85	13.928
263.22	10.541
263.59	16.809
263.96	13.736
264.33	15.405
264.70	15.526
265.07	16.113
265.44	15.909
265.81	12.895
266.18	12.814
266.55	14.146
266.92	14.742
267.29	16.204
267.66	16.055
268.03	13.182
268.40	15.421
268.77	13.365
269.14	12.838
269.51	14.673
269.88	14.452
270.25	13.544
270.62	13.483
270.99	16.559
271.36	14.163
271.73	11.449
272.10	11.739
272.47	13.333
272.84	15.584
273.21	13.208
273.58	13.100
273.95	11.950
274.32	11.570
274.69	10.064
275.06	10.236
275.43	10.213
275.80	8.617
276.17	11.202
276.54	12.266
276.91	11.265
277.28	11.914
277.65	12.186
278.02	10.559
278.39	12.500
278.76	12.364
279.13	12.264
279.50	12.291
279.87	12.151
280.23	11.976
280.60	10.445
280.97	9.982
281.34	12.566
281.71	12.182
282.08	9.789
282.45	8.000
282.82	11.012
283.19	9.804
283.56	11.228
283.92	10.998
284.29	9.524
284.66	10.526
285.03	9.946
285.40	8.627
285.77	9.596
286.14	9.154
286.51	11.000
286.87	8.718
287.24	8.469
287.61	8.989
287.98	10.065
288.35	8.241
288.72	10.280
289.08	9.546
289.45	7.908
289.82	9.268
290.19	8.163
290.56	9.342
290.93	8.459
291.29	8.436
291.66	8.112
292.03	12.209
292.40	10.720
292.77	9.320
293.13	8.358
293.50	9.767
293.87	8.741
294.24	9.185
294.60	7.569
294.97	8.285
295.34	10.296
295.71	8.807
296.08	8.405
296.44	7.565
296.81	6.209
297.18	8.808
297.55	5.805
297.91	7.784
298.28	8.300
298.65	8.355
299.02	7.246
299.38	7.570
299.75	4.447
300.12	5.747
300.48	6.750
300.85	7.522
301.22	7.643
301.59	7.071
301.95	6.423
302.32	6.675
302.69	7.049
303.05	5.697
303.42	5.802
303.79	5.889
304.15	5.361
304.52	5.910
304.89	6.736
305.25	6.148
305.62	7.588
305.99	8.383
306.35	6.711
306.72	6.839
307.09	6.992
307.45	7.770
307.82	5.022
308.19	7.174
308.55	7.551
308.92	6.230
309.29	5.174
309.65	6.575
310.02	5.814
310.38	6.774
310.75	6.653
311.12	5.937
311.48	6.479
311.85	5.975
312.22	6.972
312.58	5.925
312.95	6.441
313.31	5.825
313.68	6.653
314.05	7.298
314.41	6.533
314.78	6.244
315.14	6.256
315.51	6.694
315.87	6.535
316.24	6.256
316.61	7.018
316.97	5.871
317.34	5.382
317.70	6.310
318.07	5.967
318.43	7.534
318.80	7.591
319.16	5.838
319.53	7.036
319.89	7.429
320.26	8.400
320.62	5.952
320.99	8.485
321.35	6.869
321.72	7.187
322.08	7.601
322.45	7.264
322.81	7.461
323.18	6.936
323.54	7.421
323.91	8.302
324.27	6.405
324.64	6.803
325.00	6.041
325.37	7.825
325.73	7.451
326.10	7.326
326.46	6.452
326.83	7.593
327.19	8.284
327.56	7.840
327.92	7.699
328.29	8.252
328.65	8.011
329.01	8.394
329.38	8.326
329.74	8.587
330.11	8.200
330.47	9.091
330.84	9.283
331.20	9.016
331.56	9.174
331.93	8.426
332.29	8.696
332.66	9.204
333.02	8.044
333.38	9.485
333.75	9.002
334.11	8.986
334.48	9.406
334.84	9.191
335.20	8.182
335.57	8.794
335.93	8.571
336.29	8.700
336.66	9.017
337.02	8.688
337.38	8.889
337.75	9.180
338.11	9.490
338.47	8.748
338.84	9.808
339.20	8.807
339.56	8.850
339.93	8.636
340.29	8.333
340.65	9.269
341.02	8.901
341.38	9.342
341.74	8.158
342.11	9.258
342.47	8.987
342.83	9.760
343.20	9.437
343.56	9.014
343.92	9.123
344.28	9.439
344.65	9.200
345.01	8.754
345.37	8.748
345.73	9.052
346.10	8.951
346.46	10.424
346.82	8.979
347.19	8.939
347.55	8.949
347.91	9.871
348.27	9.942
348.63	9.281
349.00	8.819
349.36	8.621
349.72	8.901
350.08	9.238
350.45	9.194
350.81	8.448
351.17	8.671
351.53	8.354
351.89	8.003
352.26	9.629
352.62	8.982
352.98	8.671
353.34	10.600
353.70	8.020
354.07	9.516
354.43	8.095
354.79	8.850
355.15	9.098
355.51	10.312
355.87	9.551
356.24	9.039
356.60	9.302
356.96	8.689
357.32	8.422
357.68	8.583
358.04	8.630
358.40	9.105
358.77	8.998
359.13	8.129
359.49	8.706
359.85	7.063
360.21	7.416
360.57	8.716
360.93	9.385
361.29	8.919
361.66	6.889
362.02	9.254
362.38	9.202
362.74	8.482
363.10	7.698
363.46	8.804
363.82	7.332
364.18	9.765
364.54	9.584
364.90	8.499
365.26	9.044
365.62	9.277
365.98	9.058
366.35	8.309
366.71	8.532
367.07	9.468
367.43	9.289
367.79	8.779
368.15	9.124
368.51	8.430
368.87	9.350
369.23	8.486
369.59	8.617
369.95	8.456
370.31	9.259
370.67	8.188
371.03	9.513
371.39	9.038
371.75	8.382
372.11	8.677
372.47	9.677
372.83	9.294
373.19	8.526
373.55	8.795
373.91	8.763
374.27	9.003
374.63	8.727
374.99	9.322
375.35	9.211
375.71	8.636
376.07	9.122
376.42	8.666
376.78	9.211
377.14	8.345
377.50	8.874
377.86	8.511
378.22	9.229
378.58	8.333
378.94	8.234
379.30	7.824
379.66	8.185
380.02	9.152
380.38	8.075
380.74	9.184
381.09	8.313
381.45	8.297
381.81	9.889
382.17	9.363
382.53	8.176
382.89	9.012
383.25	8.630
383.61	8.984
383.97	9.068
384.32	8.671
384.68	8.240
385.04	8.912
385.40	7.926
385.76	8.538
386.12	8.744
386.48	9.188
386.83	9.814
387.19	10.080
387.55	8.844
387.91	8.525
388.27	8.522
388.62	9.527
388.98	8.170
389.34	9.637
389.70	8.890
390.06	10.013
390.42	9.209
390.77	9.351
391.13	8.615
391.49	8.883
391.85	9.102
392.20	7.886
392.56	9.470
392.92	8.770
393.28	8.166
393.64	8.453
393.99	9.224
394.35	9.119
394.71	8.595
395.07	9.283
395.42	8.591
395.78	9.733
396.14	9.497
396.50	10.338
396.85	9.536
397.21	9.001
397.57	9.175
397.92	9.495
398.28	7.511
398.64	9.319
399.00	8.730
399.35	8.178
399.71	8.970
400.07	9.403
400.42	9.387
400.78	10.072
401.14	8.720
401.49	9.015
401.85	8.469
402.21	8.683
402.57	8.575
402.92	9.016
403.28	9.307
403.63	8.663
403.99	8.408
404.35	8.727
404.70	8.933
405.06	8.445
405.42	8.671
405.77	8.800
406.13	8.465
406.49	8.693
406.84	9.273
407.20	9.102
407.55	9.190
407.91	9.733
408.27	8.807
408.62	9.813
408.98	9.191
409.34	8.549
409.69	9.484
410.05	9.170
410.40	8.563
410.76	9.020
411.11	9.288
411.47	9.393
411.83	9.469
412.18	9.462
412.54	8.593
412.89	9.578
413.25	9.681
413.60	9.450
413.96	8.865
414.31	9.356
414.67	10.393
415.03	9.404
415.38	9.923
415.74	9.582
416.09	10.124
416.45	9.572
416.80	9.716
417.16	10.858
417.51	9.290
417.87	9.120
418.22	9.716
418.58	10.136
418.93	10.012
419.29	9.930
419.64	10.202
420.00	9.390
420.35	10.145
420.71	9.564
421.06	9.248
421.42	10.000
421.77	9.529
422.12	9.208
422.48	8.851
422.83	9.785
423.19	9.834
423.54	9.867
423.90	9.391
424.25	10.050
424.61	9.643
424.96	9.563
425.31	9.247
425.67	9.607
426.02	9.657
426.38	9.768
426.73	9.713
427.09	9.726
427.44	9.086
427.79	9.086
428.15	10.000
428.50	9.421
428.85	10.191
429.21	9.718
429.56	9.487
429.92	9.311
430.27	9.335
430.62	8.961
430.98	9.652
431.33	9.330
431.68	9.738
432.04	9.425
432.39	9.994
432.74	9.934
433.10	10.130
433.45	10.146
433.80	9.479
434.16	9.882
434.51	9.579
434.86	9.806
435.22	9.783
435.57	10.213
435.92	9.655
436.28	10.024
436.63	11.038
436.98	10.246
437.34	9.899
437.69	10.268
438.04	10.230
438.39	9.493
438.75	10.459
439.10	9.609
439.45	9.976
439.81	10.332
440.16	9.712
440.51	10.310
440.86	10.249
441.22	9.789
441.57	10.032
441.92	10.389
442.27	9.473
442.63	10.163
442.98	10.535
443.33	10.707
443.68	10.015
444.03	9.956
444.39	9.688
444.74	9.794
445.09	10.189
445.44	9.459
445.79	10.292
446.15	10.376
446.50	10.232
446.85	9.712
447.20	10.097
447.55	9.771
447.91	10.425
448.26	9.794
448.61	9.780
448.96	10.908
449.31	10.686
449.66	10.129
450.02	9.861
450.37	10.374
450.72	9.870
451.07	9.689
451.42	9.787
451.77	10.276
452.12	10.335
452.47	10.510
452.83	10.373
453.18	10.758
453.53	10.637
453.88	10.041
454.23	10.042
454.58	10.660
454.93	10.871
455.28	10.162
455.63	9.951
455.98	10.655
456.34	10.050
456.69	10.081
457.04	10.464
457.39	10.695
457.74	10.041
458.09	9.891
458.44	9.977
458.79	9.165
459.14	9.876
459.49	10.041
459.84	9.695
460.19	9.134
460.54	9.838
460.89	10.477
461.24	10.200
461.59	11.156
461.94	10.111
462.29	11.276
462.64	9.892
462.99	9.759
463.34	11.333
463.69	10.444
464.04	10.145
464.39	10.783
464.74	10.279
465.09	11.037
465.44	9.917
465.79	9.452
466.14	10.837
466.49	9.789
466.84	10.450
467.19	10.078
467.54	10.250
467.89	10.504
468.24	10.297
468.59	10.562
468.94	10.568
469.29	10.347
469.64	11.513
469.99	10.690
470.34	9.908
470.68	10.632
471.03	10.408
471.38	10.493
471.73	11.392
472.08	11.579
472.43	10.616
472.78	10.270
473.13	11.553
473.48	10.549
473.83	10.976
474.17	9.832
474.52	10.670
474.87	10.041
475.22	9.925
475.57	10.317
475.92	9.453
476.27	10.316
476.61	9.542
476.96	9.896
477.31	9.262
477.66	9.956
478.01	9.305
478.36	9.942
478.70	9.398
479.05	8.999
479.40	10.082
479.75	9.710
480.10	9.145
480.45	8.901
480.79	8.600
481.14	9.540
481.49	9.302
481.84	9.465
482.19	9.587
482.53	9.358
482.88	9.679
483.23	8.692
483.58	9.873
483.92	9.091
484.27	9.020
484.62	8.707
484.97	8.750
485.31	8.527
485.66	8.014
486.01	7.517
486.36	7.074
486.70	7.064
487.05	7.578
487.40	7.635
487.75	7.722
488.09	8.311
488.44	8.306
488.79	8.210
489.13	8.480
489.48	8.687
489.83	8.632
490.17	9.075
490.52	8.990
490.87	8.820
491.22	8.868
491.56	8.064
491.91	8.655
492.26	8.774
492.60	9.263
492.95	8.513
493.30	8.458
493.64	8.586
493.99	8.914
494.34	8.649
494.68	8.974
495.03	8.882
495.37	8.841
495.72	8.528
496.07	9.095
496.41	8.496
496.76	8.487
497.11	9.095
497.45	8.803
497.80	8.733
498.14	8.744
498.49	8.244
498.84	8.389
499.18	8.429
499.53	8.832
499.87	8.621
500.22	8.950
500.56	9.466
500.91	8.510
501.26	8.772
501.60	9.302
501.95	8.616
502.29	9.278
502.64	8.845
502.98	8.509
503.33	9.004
503.67	8.399
504.02	8.513
504.36	8.891
504.71	8.354
505.06	9.157
505.40	8.459
505.75	7.859
506.09	8.698
506.44	8.041
506.78	8.816
507.13	7.673
507.47	9.192
507.82	9.068
508.16	8.561
508.51	9.335
508.85	8.441
509.19	8.214
509.54	8.929
509.88	8.655
510.23	8.895
510.57	9.494
510.92	8.545
511.26	8.582
511.61	9.232
511.95	8.455
512.30	8.643
512.64	8.920
512.98	8.842
513.33	9.261
513.67	8.164
514.02	8.820
514.36	9.448
514.70	8.799
515.05	8.979
515.39	8.974
515.74	8.784
516.08	8.944
516.42	9.267
516.77	8.696
517.11	8.602
517.46	8.804
517.80	8.537
518.14	8.686
518.49	9.218
518.83	9.432
519.17	8.661
519.52	8.829
519.86	9.355
520.20	10.173
520.55	8.797
520.89	9.246
521.23	9.771
521.58	8.764
521.92	10.288
522.26	8.908
522.61	8.536
522.95	8.840
523.29	9.191
523.64	9.512
523.98	8.564
524.32	8.987
524.66	8.960
525.01	8.946
525.35	8.364
525.69	9.175
526.04	9.657
526.38	8.603
526.72	9.325
527.06	8.914
527.41	8.478
527.75	9.132
528.09	9.184
528.43	8.094
528.78	9.834
529.12	8.727
529.46	8.941
529.80	9.344
530.15	9.595
530.49	8.738
530.83	9.557
531.17	9.791
531.51	10.117
531.86	8.710
532.20	9.713
532.54	9.353
532.88	8.922
533.22	9.307
533.57	8.765
533.91	9.031
534.25	9.113
534.59	9.640
534.93	8.745
535.27	9.656
535.62	8.913
535.96	9.165
536.30	8.519
536.64	8.757
536.98	9.423
537.32	9.151
537.66	9.067
538.01	9.941
538.35	9.696
538.69	9.572
539.03	8.642
539.37	8.371
539.71	7.583
540.05	9.020
540.39	9.568
540.73	8.797
541.07	9.345
541.42	9.785
541.76	9.484
542.10	9.702
542.44	9.470
542.78	9.354
543.12	8.637
543.46	9.705
543.80	8.979
544.14	8.793
544.48	10.032
544.82	8.659
545.16	9.434
545.50	8.740
545.84	9.274
546.18	9.226
546.52	9.291
546.86	8.660
547.20	8.968
547.54	9.552
547.88	9.758
548.22	8.095
548.56	9.119
548.90	8.387
549.24	8.822
549.58	9.823
549.92	8.929
550.26	9.872
550.60	9.959
550.94	9.014
551.28	7.754
551.62	9.849
551.96	9.614
552.30	9.283
552.64	9.060
552.98	8.949
553.32	8.968
553.66	10.361
554.00	9.746
554.34	8.696
554.68	9.657
555.02	9.238
555.36	8.072
555.69	8.254
556.03	9.489
556.37	9.209
556.71	8.663
557.05	9.034
557.39	9.097
557.73	9.315
558.07	8.992
558.41	9.117
558.75	9.772
559.08	8.650
559.42	8.919
559.76	9.191
560.10	9.065
560.44	8.735
560.78	7.319
561.12	8.971
561.45	8.996
561.79	8.372
562.13	9.054
562.47	7.787
562.81	8.787
563.15	9.365
563.48	9.019
563.82	7.893
564.16	9.026
564.50	7.943
564.84	8.786
565.17	8.430
565.51	7.987
565.85	8.439
566.19	7.765
566.52	8.296
566.86	8.439
567.20	8.608
567.54	8.105
567.88	8.202
568.21	8.413
568.55	7.583
568.89	7.247
569.23	7.130
569.56	7.247
569.90	6.642
570.24	6.746
570.57	6.290
570.91	6.399
571.25	6.331
571.59	6.627
571.92	6.106
572.26	6.412
572.60	6.216
572.93	6.057
573.27	6.477
573.61	6.142
573.95	5.995
574.28	5.729
574.62	6.001
574.96	5.830
575.29	5.529
575.63	6.174
575.97	5.962
576.30	5.895
576.64	5.686
576.98	5.809
577.31	5.476
577.65	5.646
577.98	5.509
578.32	5.361
578.66	5.744
578.99	5.775
579.33	5.737
579.67	5.692
580.00	5.586
580.34	5.672
580.67	5.980
581.01	5.779
581.35	5.339
581.68	5.561
582.02	5.178
582.35	5.624
582.69	5.344
583.02	5.273
583.36	5.626
583.70	5.669
584.03	5.617
584.37	5.955
584.70	5.669
585.04	5.920
585.37	5.778
585.71	6.039
586.04	5.702
586.38	5.721
586.72	5.882
587.05	5.868
587.39	5.251
587.72	5.875
588.06	5.896
588.39	6.091
588.73	5.925
589.06	6.388
589.40	6.263
589.73	6.301
590.07	6.512
590.40	6.284
590.73	6.753
591.07	6.919
591.40	6.748
591.74	7.143
592.07	6.806
592.41	6.862
592.74	5.993
593.08	6.096
593.41	6.011
593.75	5.903
594.08	6.034
594.41	6.257
594.75	5.915
595.08	6.228
595.42	6.340
595.75	6.410
596.09	6.384
596.42	6.601
596.75	6.543
597.09	7.662
597.42	6.535
597.75	6.425
598.09	6.739
598.42	6.357
598.76	6.445
599.09	6.005
599.42	6.223
599.76	6.113
600.09	5.719
600.42	6.501
600.76	6.393
601.09	6.266
601.42	6.355
601.76	6.717
602.09	6.245
602.42	6.608
602.76	6.570
603.09	7.002
603.42	6.169
603.76	6.593
604.09	6.088
604.42	6.278
604.76	6.580
605.09	6.335
605.42	6.456
605.75	6.126
606.09	5.815
606.42	6.007
606.75	6.512
607.09	6.404
607.42	6.205
607.75	5.738
608.08	6.470
608.42	6.768
608.75	6.447
609.08	6.475
609.41	7.235
609.75	6.813
610.08	6.598
610.41	6.052
610.74	6.575
611.07	6.917
611.41	6.428
611.74	7.692
612.07	7.039
612.40	7.083
612.73	6.737
613.07	7.004
613.40	7.214
613.73	6.397
614.06	7.473
614.39	7.761
614.72	7.105
615.06	7.511
615.39	6.847
615.72	6.595
616.05	6.805
616.38	6.948
616.71	6.710
617.05	7.597
617.38	7.336
617.71	6.787
618.04	6.791
618.37	6.801
618.70	6.970
619.03	8.289
619.36	7.536
619.69	8.732
620.03	7.761
620.36	8.489
620.69	8.356
621.02	8.260
621.35	8.457
621.68	8.178
622.01	7.585
622.34	8.169
622.67	8.593
623.00	7.337
623.33	7.434
623.66	8.006
623.99	7.658
624.32	7.703
624.65	7.486
624.99	6.941
625.32	7.531
625.65	8.189
625.98	8.609
626.31	8.476
626.64	9.061
626.97	8.229
627.30	7.481
627.63	9.106
627.96	9.167
628.29	8.486
628.62	9.515
628.95	9.717
629.28	8.942
629.61	9.899
629.94	9.238
630.26	9.342
630.59	8.484
630.92	9.674
631.25	9.082
631.58	10.210
631.91	8.925
632.24	8.861
632.57	9.864
632.90	10.197
633.23	9.508
633.56	11.073
633.89	10.306
634.22	9.875
634.55	10.296
634.88	8.743
635.20	10.394
635.53	10.602
635.86	10.396
636.19	9.529
636.52	10.265
636.85	9.966
637.18	9.332
637.51	9.811
637.83	7.645
638.16	10.742
638.49	12.217
638.82	10.872
639.15	9.625
639.48	13.092
639.81	12.332
640.13	10.807
640.46	9.530
640.79	12.153
641.12	9.216
641.45	9.916
641.77	11.782
642.10	11.988
642.43	11.712
642.76	11.300
643.09	12.270
643.41	13.657
643.74	13.580
644.07	11.433
644.40	13.497
644.73	14.016
645.05	14.105
645.38	10.900
645.71	13.849
646.04	12.625
646.36	13.022
646.69	12.709
647.02	13.265
647.35	14.261
647.67	12.566
648.00	13.984
648.33	12.376
648.66	12.121
648.98	11.994
649.31	11.510
649.64	11.360
649.96	11.475
650.29	11.216
650.62	13.107
650.94	15.073
651.27	12.838
651.60	13.977
651.92	12.141
652.25	10.912
652.58	13.551
652.90	12.480
653.23	12.481
653.56	11.181
653.88	11.886
654.21	12.322
654.54	11.056
654.86	12.305
655.19	10.135
655.52	5.918
655.84	3.288
656.17	4.152
656.49	5.507
656.82	5.585
657.15	4.469
657.47	3.174
657.80	2.655
658.13	2.662
658.45	4.179
658.78	4.217
659.10	4.863
659.43	5.071
659.75	5.449
660.08	7.152
660.41	8.007
660.73	11.690
661.06	12.420
661.38	14.364
661.71	12.692
662.03	15.187
662.36	13.917
662.68	14.859
663.01	14.343
663.33	14.437
663.66	13.655
663.98	15.335
664.31	13.025
664.63	13.563
664.96	14.085
665.28	16.393
665.61	13.645
665.93	11.268
666.26	13.590
666.58	13.598
666.91	16.279
667.23	12.809
667.56	13.823
667.88	15.812
668.21	15.565
668.53	15.618
668.86	15.152
669.18	16.844
669.50	16.087
669.83	18.519
670.15	15.111
670.48	13.943
670.80	15.517
671.13	16.561
671.45	13.191
671.77	14.053
672.10	14.603
672.42	13.428
672.75	12.106
673.07	12.324
673.39	12.116
673.72	11.914
674.04	14.706
674.37	14.175
674.69	11.452
675.01	15.900
675.34	15.400
675.66	17.263
675.98	15.479
676.31	16.807
676.63	14.225
676.95	13.627
677.28	13.785
677.60	14.945
677.92	16.667
678.25	13.552
678.57	12.948
678.89	14.830
679.22	13.360
679.54	14.695
679.86	13.578
680.18	12.701
680.51	12.766
680.83	13.523
681.15	14.340
681.48	13.800
681.80	13.733
682.12	12.835
682.44	11.799
682.77	14.257
683.09	16.094
683.41	17.738
683.73	14.790
684.06	15.702
684.38	13.112
684.70	14.341
685.02	15.572
685.34	13.370
685.67	10.664
685.99	12.371
686.31	11.604
686.63	9.894
686.96	12.143
687.28	13.538
687.60	12.681
687.92	14.260
688.24	13.878
688.56	13.655
688.89	13.900
689.21	16.812
689.53	14.405
689.85	15.299
690.17	12.422
690.49	17.622
690.82	14.953
691.14	15.402
691.46	13.924
691.78	13.454
692.10	15.289
692.42	15.569
692.74	12.241
693.06	14.043
693.39	16.222
693.71	13.100
694.03	14.947
694.35	14.502
694.67	13.730
694.99	15.610
695.31	16.912
695.63	16.507
695.95	16.626
696.27	13.452
696.59	15.026
696.91	16.062
697.23	11.972
697.56	14.712
697.88	14.110
698.20	12.292
698.52	15.269
698.84	17.817
699.16	16.359
699.48	16.152
699.80	15.217
700.12	21.039
700.44	18.833
700.76	19.337
701.08	18.966
701.40	17.598
701.72	17.493
702.04	23.295
702.36	17.847
702.68	18.130
703.00	18.006
703.32	19.149
703.64	19.571
703.96	17.549
704.28	16.279
704.60	20.235
704.91	21.068
705.23	19.648
705.55	20.930
705.87	23.256
706.19	20.141
706.51	19.315
706.83	20.909
707.15	21.289
707.47	18.182
707.79	18.919
708.11	16.210
708.43	15.714
708.74	18.112
709.06	18.182
709.38	20.210
709.70	18.605
710.02	21.365
710.34	17.879
710.66	18.507
710.98	19.034
711.29	21.802
711.61	20.649
711.93	17.949
712.25	21.865
712.57	22.426
712.89	21.799
713.20	21.277
713.52	23.355
713.84	19.304
714.16	19.817
714.48	20.115
714.80	20.669
715.11	19.020
715.43	19.288
715.75	17.681
716.07	22.684
716.39	18.809
716.70	25.249
717.02	20.144
717.34	24.382
717.66	24.254
717.97	27.888
718.29	17.407
718.61	22.263
718.93	22.059
719.24	21.799
719.56	20.678
719.88	21.017
720.20	24.662
720.51	22.648
720.83	23.048
721.15	21.642
721.46	23.759
721.78	26.165
722.10	21.509
722.42	26.316
722.73	22.846
723.05	21.721
723.37	22.267
723.68	24.710
724.00	23.577
724.32	26.613
724.63	24.797
724.95	24.268
725.27	27.126
725.58	24.609
725.90	27.372
726.22	25.283
726.53	17.014
726.85	20.137
727.16	20.996
727.48	22.695
727.80	20.833
728.11	28.623
728.43	22.692
728.74	24.731
729.06	25.912
729.38	24.632
729.69	19.573
730.01	20.137
730.32	20.139
730.64	21.070
730.96	16.172
731.27	22.517
731.59	19.266
731.90	20.408
732.22	21.118
732.53	20.433
732.85	18.590
733.16	19.293
733.48	22.924
733.80	21.429
734.11	22.611
734.43	22.781
734.74	19.429
735.06	19.198
735.37	21.098
735.69	18.153
736.00	21.242
736.32	21.495
736.63	22.364
736.95	19.489
737.26	15.306
737.58	19.032
737.89	20.401
738.21	20.137
738.52	21.071
738.83	20.000
739.15	21.923
739.46	22.263
739.78	22.917
740.09	22.462
740.41	20.000
740.72	21.254
741.04	20.741
741.35	20.833
741.66	28.000
741.98	28.774
742.29	33.014
742.61	33.190
742.92	20.814
743.23	24.786
743.55	26.800
743.86	27.632
744.18	30.531
744.49	25.359
744.80	29.577
745.12	28.636
745.43	25.551
745.74	31.081
746.06	29.358
746.37	25.561
746.68	33.937
747.00	33.796
747.31	33.333
747.62	26.549
747.94	25.551
748.25	23.830
748.56	32.599
748.88	25.248
749.19	37.500
749.50	27.907
749.82	23.577
750.13	22.857
750.44	22.628
750.75	21.404
751.07	25.723
751.38	23.345
751.69	22.744
752.01	21.429
752.32	19.495
752.63	22.695
752.94	23.770
753.26	30.400
753.57	25.203
753.88	25.000
754.19	26.071
754.51	24.306
754.82	20.217
755.13	22.264
755.44	25.564
755.75	22.263
756.07	21.277
756.38	18.978
756.69	21.477
757.00	18.563
757.31	18.101
757.63	19.591
757.94	18.767
758.25	18.137
758.56	13.333
758.87	17.204
759.18	20.909
759.50	20.376
759.81	17.134
760.12	19.063
760.43	20.344
760.74	18.207
761.05	20.339
761.36	19.786
761.67	20.455
761.99	19.876
762.30	23.611
762.61	24.046
762.92	27.734
763.23	23.529
763.54	27.600
763.85	25.000
764.16	26.538
764.47	26.996
764.78	18.375
765.10	18.671
765.41	20.649
765.72	18.563
766.03	19.749
766.34	21.667
766.65	25.957
766.96	26.923
767.27	29.949
767.58	33.854
767.89	39.474
768.20	39.080
768.51	29.949
768.82	29.358
769.13	21.138
769.44	26.316
769.75	28.326
770.06	21.560
770.37	26.244
770.68	32.870
770.99	29.333
771.30	20.082
771.61	24.215
771.92	27.869
772.23	32.773
772.54	24.615
772.85	32.461
773.16	35.638
773.47	34.783
773.78	36.041
774.09	33.929
774.39	41.520
774.70	33.951
775.01	36.957
775.32	47.712
775.63	43.421
775.94	38.129
776.25	48.031
776.56	49.254
776.87	51.639
777.18	45.313
777.48	51.145
777.79	45.455
778.10	51.111
778.41	42.857
778.72	37.956
779.03	36.913
779.34	37.584
779.65	35.811
779.95	38.650
780.26	45.098
780.57	34.483
780.88	38.281
781.19	42.105
781.50	43.243
781.80	36.478
782.11	32.203
782.42	35.443
782.73	41.718
783.04	45.946
783.34	38.028
783.65	51.370
783.96	50.746
784.27	41.259
784.57	33.813
784.88	42.593
785.19	54.762
785.50	50.943
785.81	51.493
786.11	53.279
786.42	45.736
786.73	38.938
787.04	56.604
787.34	47.321
787.65	52.000
787.96	47.748
788.26	43.802
788.57	57.627
788.88	61.157
789.19	45.139
789.49	54.545
789.80	48.092
790.11	65.714
790.41	65.347
790.72	63.855
791.03	66.304
791.33	55.814
791.64	55.670
791.95	56.436
792.25	67.778
792.56	70.130
792.87	65.385
793.17	91.139
793.48	74.713
793.79	60.920
794.09	55.682
794.40	51.261
794.70	54.412
795.01	36.296
795.32	41.007
795.62	42.520
795.93	51.724
796.23	52.212
796.54	65.882
796.85	59.459
797.15	87.324
797.46	75.758
797.76	85.542
798.07	78.481
798.37	73.846
798.68	75.758
798.99	78.873
799.29	84.416
799.60	64.773
799.90	80.822
800.21	91.045
800.51	89.655
800.82	91.228
801.12	85.246
801.43	96.970
801.73	70.270
802.04	85.714
802.34	75.309
802.65	98.437
802.95	84.746
803.26	93.750
803.56	78.571
803.87	84.615
804.17	86.765
804.48	127.778
804.78	74.138
805.09	80.882
805.39	94.231
805.70	100.000
806.00	103.279
806.30	92.424
806.61	69.512
806.91	62.025
807.22	69.737
807.52	86.567
807.83	83.099
808.13	104.688
808.43	98.333
808.74	65.789
809.04	81.159
809.35	77.612
809.65	76.316
809.95	106.452
810.26	91.525
810.56	85.714
810.86	150.000
811.17	126.190
811.47	110.000
811.77	101.852
812.08	101.818
812.38	114.000
812.69	163.889
812.99	161.364
813.29	108.163
813.59	111.905
813.90	118.367
814.20	96.364
814.50	86.154
814.81	98.529
815.11	104.082
815.41	101.639
815.72	130.952
816.02	130.909
816.32	135.714
816.62	132.500
816.93	129.268
817.23	140.476
817.53	136.364
817.84	145.455
818.14	128.261
818.44	115.556
818.74	161.765
819.04	130.000
819.35	142.857
819.65	176.471
819.95	192.857
820.25	275.000
820.56	138.462
820.86	131.818
821.16	139.535
821.46	156.410
821.76	118.000
822.07	171.429
822.37	137.500
822.67	154.545
822.97	113.725
823.27	189.286
823.57	145.946
823.88	170.000
824.18	196.667
824.48	152.381
824.78	204.000
825.08	166.667
825.38	156.757
825.69	146.341
825.99	241.667
826.29	186.207
826.59	157.895
826.89	152.632
827.19	155.882
827.49	161.290
827.79	131.818
828.09	143.182
828.39	104.255
828.70	118.367
829.00	155.556
829.30	170.968
829.60	132.500
829.90	366.667
830.20	178.571
830.50	200.000
830.80	204.348
831.10	186.667
831.40	160.000
831.70	221.739
832.00	219.231
832.30	207.407
832.60	343.750
832.90	220.000
833.20	435.714
833.50	222.581
833.80	186.207
834.10	200.000
834.40	226.923
834.70	261.111
835.00	295.238
835.30	157.143
835.60	284.615
835.90	189.655
836.20	400.000
836.50	224.138
836.80	216.000
837.10	175.000
837.40	223.810
837.70	294.118
838.00	218.519
838.30	214.286
838.60	280.952
838.90	242.308
839.19	285.000
839.49	471.429
839.79	320.000
840.09	290.000
840.39	261.905
840.69	252.174
840.99	238.889
841.29	490.000
841.59	308.333
841.88	375.000
842.18	206.897
842.48	266.667
842.78	223.333
843.08	269.565
843.38	215.625
843.68	883.333
843.97	246.154
844.27	186.207
844.57	266.667
844.87	362.500
845.17	225.926
845.47	1533.333
845.76	422.222
846.06	352.941
846.36	637.500
846.66	321.429
846.96	281.250
847.25	463.636
847.55	463.636
847.85	269.565
848.15	600.000
848.44	457.143
848.74	266.667
849.04	317.647
849.34	550.000
849.63	252.632
849.93	463.636
850.23	1040.000
850.53	457.143
850.82	2250.000
851.12	-4800.000
851.42	4400.000
851.71	250.000
852.01	-1233.333
852.31	275.000
852.61	1733.333
852.90	280.952
853.20	236.000
853.50	358.824
853.79	238.095
854.09	225.000
854.39	368.750
854.68	186.486
854.98	196.774
855.28	216.667
855.57	210.345
855.87	207.407
856.17	300.000
856.46	306.667
856.76	276.471
857.05	206.897
857.35	254.167
857.65	420.000
857.94	273.913
858.24	242.308
858.53	260.000
858.83	281.818
859.13	320.000
859.42	0.000
859.72	533.333
860.01	472.727
860.31	263.636
860.60	305.263
860.90	230.435
861.20	588.889
861.49	466.667
861.79	-4700.000
862.08	725.000
862.38	300.000
862.67	361.538
862.97	370.588
863.26	544.444
863.56	283.333
863.85	433.333
864.15	600.000
864.44	426.667
864.74	900.000
865.03	775.000
865.33	300.000
865.62	418.182
865.92	423.077
866.21	458.333
866.51	0.000
866.80	463.636
867.10	1180.000
867.39	484.615
867.69	454.545
867.98	305.263
868.27	490.909
868.57	363.158
868.86	-4300.000
869.16	381.250
869.45	2250.000
869.75	-5200.000
870.04	475.000
870.33	785.714
870.63	1050.000
870.92	2800.000
871.22	928.571
871.51	423.529
871.80	247.619
872.10	450.000
>>>>>End Processed Spectral Data<<<<<
