SpectraSuite Data File
++++++++++++++++++++++++++++++++++++
Date: Wed May 13 19:11:46 PDT 2015
User: schluterlab
Dark Spectrum Present: Yes
Reference Spectrum Present: Yes
Number of Sampled Component Spectra: 1
Spectrometers: USB2E3373
Integration Time (usec): 3000 (USB2E3373)
Spectra Averaged: 3 (USB2E3373)
Boxcar Smoothing: 0 (USB2E3373)
Correct for Electrical Dark: No (USB2E3373)
Strobe/Lamp Enabled: No (USB2E3373)
Correct for Detector Non-linearity: No (USB2E3373)
Correct for Stray Light: No (USB2E3373)
Number of Pixels in Processed Spectrum: 2048
>>>>>Begin Processed Spectral Data<<<<<
178.53	0.000
178.91	-1475.000
179.29	-1650.000
179.67	-327.778
180.04	-1350.000
180.42	3200.000
180.80	1060.000
181.18	-1425.000
181.56	800.000
181.94	0.000
182.31	-685.714
182.69	1833.333
183.07	-687.500
183.45	-566.667
183.83	563.636
184.20	-460.000
184.58	2550.000
184.96	6000.000
185.34	-1020.000
185.72	-712.500
186.09	-2900.000
186.47	2850.000
186.85	3100.000
187.23	5200.000
187.61	-1966.667
187.98	1625.000
188.36	600.000
188.74	536.364
189.12	-1360.000
189.49	550.000
189.87	-5800.000
190.25	-1600.000
190.63	421.429
191.00	446.154
191.38	766.667
191.76	-1350.000
192.14	1500.000
192.51	850.000
192.89	983.333
193.27	700.000
193.65	-1600.000
194.02	590.000
194.40	1200.000
194.78	590.000
195.15	575.000
195.53	650.000
195.91	-2750.000
196.29	387.500
196.66	310.526
197.04	-350.000
197.42	0.000
197.79	660.000
198.17	-5600.000
198.55	742.857
198.92	812.500
199.30	940.000
199.68	0.000
200.05	344.444
200.43	985.714
200.81	4800.000
201.18	1900.000
201.56	-1600.000
201.94	555.556
202.31	633.333
202.69	500.000
203.07	540.000
203.44	0.000
203.82	1400.000
204.19	928.571
204.57	435.714
204.95	762.500
205.32	1400.000
205.70	527.273
206.08	421.429
206.45	2850.000
206.83	400.000
207.20	1116.667
207.58	900.000
207.96	405.556
208.33	687.500
208.71	-966.667
209.08	942.857
209.46	711.111
209.84	545.455
210.21	-1600.000
210.59	1400.000
210.96	-637.500
211.34	2800.000
211.71	610.000
212.09	1050.000
212.46	0.000
212.84	1833.333
213.22	1475.000
213.59	-5100.000
213.97	833.333
214.34	928.571
214.72	672.727
215.09	1200.000
215.47	-2750.000
215.84	-2850.000
216.22	1900.000
216.59	392.857
216.97	1650.000
217.34	472.727
217.72	-816.667
218.09	0.000
218.47	-5300.000
218.84	666.667
219.22	885.714
219.59	1666.667
219.97	-700.000
220.34	1140.000
220.72	-1733.333
221.09	428.571
221.47	1450.000
221.84	-1033.333
222.22	0.000
222.59	1650.000
222.97	-3200.000
223.34	1140.000
223.72	476.923
224.09	1100.000
224.46	2300.000
224.84	-4900.000
225.21	-1060.000
225.59	-5500.000
225.96	680.000
226.34	320.000
226.71	2800.000
227.08	700.000
227.46	540.000
227.83	-1000.000
228.21	-2450.000
228.58	633.333
228.95	-2900.000
229.33	-2550.000
229.70	1833.333
230.08	900.000
230.45	-880.000
230.82	466.667
231.20	1016.667
231.57	671.429
231.95	433.333
232.32	300.000
232.69	418.182
233.07	685.714
233.44	407.692
233.81	-2033.333
234.19	357.895
234.56	483.333
234.93	533.333
235.31	463.636
235.68	392.308
236.05	385.714
236.43	184.848
236.80	273.684
237.17	4500.000
237.55	276.190
237.92	196.429
238.29	280.952
238.67	206.452
239.04	210.345
239.41	169.444
239.79	143.478
240.16	150.000
240.53	134.091
240.91	123.529
241.28	132.000
241.65	128.000
242.02	110.145
242.40	101.613
242.77	110.000
243.14	80.645
243.51	74.157
243.89	82.353
244.26	85.556
244.63	74.194
245.00	74.468
245.38	65.347
245.75	70.093
246.12	50.459
246.49	66.423
246.87	64.800
247.24	62.308
247.61	60.000
247.98	58.824
248.36	54.054
248.73	54.140
249.10	65.605
249.47	47.458
249.84	52.406
250.22	49.733
250.59	46.154
250.96	53.030
251.33	45.498
251.70	49.505
252.08	46.667
252.45	43.498
252.82	43.913
253.19	41.702
253.56	41.176
253.94	45.643
254.31	44.531
254.68	45.769
255.05	40.590
255.42	43.496
255.79	40.809
256.16	45.126
256.54	33.922
256.91	45.552
257.28	34.532
257.65	39.274
258.02	40.683
258.39	35.331
258.76	36.789
259.14	37.798
259.51	37.082
259.88	31.677
260.25	37.462
260.62	32.659
260.99	35.404
261.36	36.637
261.73	37.536
262.10	30.814
262.47	34.366
262.85	36.490
263.22	30.199
263.59	35.613
263.96	33.791
264.33	34.204
264.70	34.474
265.07	31.969
265.44	32.828
265.81	31.630
266.18	35.176
266.55	28.537
266.92	29.975
267.29	34.028
267.66	28.670
268.03	32.273
268.40	31.542
268.77	30.310
269.14	30.631
269.51	30.926
269.88	30.769
270.25	28.442
270.62	30.787
270.99	32.903
271.36	30.258
271.73	30.374
272.10	28.696
272.47	30.538
272.84	28.355
273.21	30.818
273.58	28.384
273.95	27.044
274.32	27.686
274.69	28.051
275.06	26.181
275.43	29.787
275.80	30.862
276.17	24.644
276.54	29.938
276.91	30.632
277.28	27.148
277.65	28.820
278.02	27.950
278.39	29.492
278.76	26.364
279.13	26.038
279.50	26.816
279.87	29.681
280.23	26.347
280.60	29.594
280.97	26.802
281.34	28.142
281.71	29.091
282.08	28.599
282.45	24.545
282.82	27.176
283.19	24.242
283.56	25.439
283.92	25.381
284.29	25.573
284.66	27.405
285.03	23.870
285.40	26.408
285.77	26.431
286.14	25.043
286.51	24.500
286.87	25.812
287.24	25.081
287.61	24.238
287.98	25.812
288.35	23.613
288.72	23.832
289.08	25.978
289.45	22.241
289.82	25.041
290.19	22.920
290.56	24.196
290.93	22.356
291.29	23.926
291.66	22.419
292.03	24.419
292.40	22.026
292.77	20.414
293.13	22.985
293.50	23.615
293.87	22.519
294.24	22.074
294.60	21.543
294.97	21.802
295.34	22.567
295.71	23.011
296.08	21.795
296.44	20.358
296.81	19.287
297.18	22.358
297.55	19.393
297.91	21.372
298.28	22.088
298.65	20.104
299.02	19.763
299.38	19.920
299.75	17.925
300.12	19.285
300.48	19.625
300.85	20.222
301.22	19.745
301.59	18.182
301.95	19.647
302.32	19.384
302.69	19.713
303.05	19.636
303.42	20.494
303.79	17.780
304.15	18.182
304.52	18.076
304.89	16.957
305.25	19.026
305.62	18.573
305.99	17.473
306.35	19.575
306.72	19.170
307.09	18.868
307.45	20.045
307.82	17.746
308.19	17.770
308.55	17.476
308.92	18.153
309.29	15.945
309.65	17.497
310.02	17.548
310.38	18.280
310.75	17.740
311.12	18.219
311.48	17.241
311.85	17.925
312.22	17.170
312.58	17.256
312.95	19.007
313.31	17.087
313.68	17.672
314.05	19.428
314.41	17.588
314.78	17.321
315.14	17.875
315.51	17.199
315.87	17.426
316.24	17.279
316.61	17.154
316.97	17.906
317.34	15.656
317.70	17.782
318.07	16.843
318.43	16.928
318.80	17.619
319.16	17.137
319.53	15.947
319.89	17.810
320.26	17.500
320.62	17.262
320.99	17.071
321.35	17.374
321.72	17.454
322.08	16.387
322.45	17.910
322.81	17.636
323.18	18.112
323.54	15.677
323.91	17.264
324.27	16.730
324.64	15.377
325.00	15.960
325.37	17.288
325.73	17.864
326.10	17.387
326.46	15.502
326.83	16.739
327.19	17.336
327.56	17.160
327.92	15.661
328.29	18.279
328.65	16.759
329.01	17.419
329.38	16.189
329.74	16.436
330.11	16.777
330.47	17.080
330.84	17.279
331.20	17.395
331.56	16.697
331.93	16.944
332.29	16.948
332.66	16.195
333.02	16.636
333.38	17.615
333.75	16.845
334.11	16.281
334.48	15.705
334.84	16.452
335.20	16.273
335.57	16.047
335.93	16.339
336.29	16.209
336.66	15.870
337.02	16.109
337.38	16.204
337.75	14.973
338.11	15.846
338.47	16.206
338.84	16.132
339.20	16.330
339.56	16.423
339.93	15.455
340.29	15.489
340.65	14.528
341.02	16.841
341.38	16.637
341.74	15.614
342.11	15.197
342.47	15.154
342.83	15.411
343.20	15.931
343.56	15.670
343.92	15.702
344.28	15.646
344.65	15.477
345.01	15.320
345.37	15.523
345.73	14.721
346.10	15.516
346.46	15.763
346.82	15.651
347.19	14.119
347.55	14.532
347.91	15.534
348.27	16.270
348.63	15.719
349.00	15.858
349.36	15.599
349.72	15.557
350.08	14.587
350.45	15.378
350.81	14.947
351.17	15.721
351.53	15.725
351.89	14.191
352.26	15.549
352.62	15.156
352.98	15.640
353.34	15.694
353.70	13.830
354.07	15.242
354.43	14.762
354.79	14.481
355.15	14.605
355.51	15.108
355.87	13.878
356.24	14.577
356.60	15.477
356.96	13.998
357.32	14.146
357.68	14.567
358.04	14.806
358.40	14.806
358.77	15.493
359.13	13.891
359.49	13.176
359.85	13.413
360.21	13.876
360.57	15.175
360.93	14.538
361.29	13.908
361.66	14.241
362.02	14.851
362.38	14.297
362.74	14.509
363.10	13.323
363.46	14.160
363.82	13.681
364.18	13.803
364.54	14.859
364.90	14.731
365.26	12.941
365.62	14.171
365.98	13.075
366.35	13.897
366.71	14.606
367.07	14.639
367.43	14.078
367.79	14.561
368.15	14.799
368.51	13.590
368.87	13.919
369.23	13.460
369.59	14.120
369.95	13.971
370.31	14.387
370.67	14.710
371.03	15.281
371.39	13.994
371.75	13.750
372.11	12.945
372.47	14.663
372.83	14.625
373.19	13.150
373.55	13.599
373.91	14.433
374.27	13.058
374.63	13.382
374.99	14.124
375.35	13.259
375.71	13.777
376.07	14.266
376.42	14.030
376.78	13.718
377.14	12.483
377.50	12.715
377.86	13.298
378.22	13.906
378.58	12.469
378.94	12.571
379.30	12.532
379.66	13.071
380.02	13.759
380.38	12.872
380.74	12.965
381.09	13.325
381.45	13.706
381.81	13.821
382.17	13.694
382.53	12.767
382.89	14.012
383.25	13.196
383.61	13.817
383.97	12.445
384.32	12.851
384.68	13.073
385.04	13.030
385.40	12.693
385.76	12.531
386.12	12.565
386.48	13.090
386.83	12.765
387.19	12.925
387.55	13.296
387.91	13.301
388.27	12.753
388.62	14.136
388.98	12.776
389.34	13.141
389.70	13.918
390.06	12.801
390.42	13.684
390.77	12.850
391.13	12.763
391.49	13.388
391.85	12.476
392.20	12.366
392.56	13.131
392.92	12.655
393.28	12.012
393.64	12.830
393.99	12.706
394.35	12.035
394.71	12.861
395.07	12.336
395.42	13.226
395.78	13.232
396.14	12.849
396.50	13.409
396.85	13.414
397.21	12.885
397.57	12.709
397.92	12.200
398.28	11.939
398.64	13.321
399.00	12.983
399.35	12.634
399.71	12.269
400.07	13.128
400.42	12.577
400.78	13.510
401.14	12.256
401.49	12.657
401.85	11.676
402.21	12.635
402.57	12.091
402.92	13.430
403.28	12.492
403.63	13.119
403.99	11.847
404.35	13.333
404.70	12.290
405.06	12.172
405.42	12.352
405.77	12.000
406.13	12.359
406.49	13.010
406.84	12.109
407.20	12.707
407.55	12.891
407.91	12.333
408.27	12.508
408.62	12.523
408.98	12.377
409.34	12.608
409.69	13.226
410.05	12.268
410.40	11.865
410.76	12.545
411.11	12.606
411.47	12.971
411.83	13.928
412.18	12.369
412.54	13.200
412.89	13.313
413.25	12.338
413.60	12.662
413.96	12.083
414.31	12.211
414.67	12.864
415.03	12.781
415.38	12.951
415.74	12.733
416.09	13.259
416.45	12.985
416.80	12.558
417.16	13.539
417.51	12.741
417.87	12.331
418.22	13.817
418.58	13.493
418.93	13.022
419.29	13.367
419.64	13.413
420.00	12.561
420.35	12.000
420.71	12.732
421.06	12.351
421.42	13.041
421.77	12.444
422.12	12.521
422.48	11.819
422.83	12.347
423.19	12.431
423.54	12.478
423.90	13.101
424.25	12.563
424.61	12.679
424.96	12.420
425.31	12.791
425.67	11.910
426.02	12.114
426.38	12.821
426.73	12.639
427.09	12.584
427.44	12.593
427.79	12.191
428.15	13.393
428.50	12.639
428.85	13.588
429.21	11.872
429.56	12.182
429.92	12.632
430.27	12.066
430.62	12.545
430.98	12.299
431.33	12.990
431.68	12.147
432.04	12.886
432.39	12.107
432.74	13.585
433.10	12.903
433.45	12.828
433.80	12.361
434.16	12.874
434.51	12.158
434.86	12.429
435.22	12.729
435.57	12.827
435.92	12.346
436.28	13.523
436.63	13.024
436.98	12.765
437.34	13.417
437.69	13.361
438.04	12.198
438.39	12.836
438.75	13.190
439.10	13.184
439.45	13.105
439.81	12.749
440.16	12.422
440.51	12.830
440.86	13.144
441.22	12.792
441.57	13.057
441.92	12.282
442.27	12.863
442.63	12.164
442.98	12.451
443.33	12.772
443.68	12.700
444.03	12.543
444.39	12.123
444.74	12.662
445.09	12.075
445.44	12.466
445.79	12.172
446.15	13.287
446.50	12.709
446.85	13.104
447.20	12.290
447.55	12.172
447.91	12.631
448.26	13.523
448.61	12.493
448.96	13.566
449.31	12.880
449.66	12.493
450.02	12.312
450.37	12.075
450.72	12.803
451.07	12.797
451.42	12.705
451.77	13.212
452.12	12.240
452.47	13.246
452.83	12.063
453.18	12.714
453.53	13.420
453.88	12.581
454.23	12.672
454.58	13.325
454.93	13.732
455.28	13.155
455.63	13.228
455.98	13.512
456.34	13.254
456.69	13.024
457.04	13.437
457.39	12.858
457.74	12.652
458.09	13.399
458.44	12.657
458.79	12.364
459.14	12.641
459.49	13.660
459.84	12.798
460.19	12.493
460.54	11.690
460.89	12.836
461.24	13.540
461.59	13.829
461.94	12.392
462.29	13.294
462.64	13.274
462.99	11.711
463.34	14.400
463.69	13.258
464.04	13.797
464.39	12.986
464.74	12.834
465.09	12.666
465.44	13.186
465.79	12.416
466.14	12.261
466.49	12.681
466.84	13.777
467.19	12.794
467.54	13.750
467.89	13.505
468.24	13.322
468.59	12.821
468.94	13.500
469.29	13.753
469.64	13.922
469.99	13.532
470.34	12.880
470.68	13.218
471.03	13.741
471.38	13.551
471.73	13.324
472.08	13.684
472.43	13.317
472.78	12.574
473.13	13.350
473.48	13.670
473.83	13.293
474.17	12.694
474.52	12.593
474.87	14.011
475.22	12.943
475.57	12.896
475.92	12.746
476.27	12.570
476.61	12.631
476.96	11.875
477.31	13.030
477.66	12.199
478.01	12.180
478.36	12.322
478.70	11.942
479.05	13.099
479.40	12.999
479.75	12.100
480.10	12.127
480.45	12.042
480.79	12.040
481.14	12.231
481.49	12.530
481.84	12.391
482.19	11.949
482.53	12.018
482.88	12.331
483.23	12.430
483.58	12.011
483.92	11.856
484.27	11.155
484.62	11.897
484.97	11.786
485.31	12.158
485.66	11.308
486.01	10.262
486.36	10.184
486.70	10.102
487.05	10.397
487.40	10.725
487.75	10.542
488.09	10.949
488.44	11.341
488.79	11.392
489.13	11.650
489.48	11.215
489.83	11.524
490.17	11.968
490.52	11.869
490.87	11.940
491.22	11.505
491.56	11.298
491.91	12.099
492.26	11.713
492.60	11.982
492.95	11.272
493.30	11.776
493.64	11.339
493.99	11.746
494.34	12.488
494.68	12.042
495.03	12.171
495.37	12.192
495.72	12.329
496.07	12.436
496.41	11.460
496.76	12.357
497.11	11.616
497.45	11.830
497.80	12.092
498.14	11.884
498.49	11.951
498.84	12.464
499.18	11.190
499.53	11.776
499.87	11.463
500.22	11.682
500.56	12.184
500.91	12.260
501.26	12.233
501.60	11.960
501.95	12.374
502.29	11.903
502.64	12.244
502.98	11.734
503.33	11.974
503.67	11.879
504.02	12.161
504.36	12.447
504.71	11.383
505.06	12.482
505.40	12.008
505.75	11.620
506.09	11.953
506.44	11.988
506.78	11.593
507.13	12.065
507.47	12.172
507.82	11.854
508.16	11.398
508.51	12.735
508.85	11.917
509.19	12.194
509.54	11.939
509.88	11.747
510.23	12.391
510.57	13.364
510.92	12.273
511.26	12.333
511.61	12.033
511.95	12.161
512.30	12.354
512.64	12.090
512.98	12.219
513.33	12.848
513.67	11.473
514.02	11.905
514.36	12.671
514.70	12.784
515.05	12.047
515.39	13.292
515.74	12.162
516.08	13.359
516.42	12.542
516.77	12.932
517.11	12.153
517.46	12.246
517.80	12.485
518.14	11.754
518.49	12.894
518.83	12.898
519.17	12.587
519.52	13.243
519.86	12.892
520.20	13.006
520.55	12.687
520.89	12.713
521.23	13.028
521.58	13.745
521.92	12.615
522.26	12.813
522.61	13.084
522.95	13.321
523.29	13.268
523.64	12.927
523.98	13.185
524.32	13.329
524.66	13.891
525.01	12.500
525.35	12.082
525.69	12.192
526.04	13.084
526.38	12.996
526.72	12.699
527.06	13.685
527.41	11.572
527.75	12.669
528.09	12.524
528.43	12.683
528.78	13.337
529.12	12.970
529.46	13.288
529.80	13.738
530.15	13.707
530.49	11.877
530.83	12.658
531.17	13.316
531.51	14.462
531.86	13.355
532.20	13.690
532.54	13.517
532.88	12.452
533.22	12.929
533.57	13.704
533.91	13.486
534.25	13.244
534.59	13.301
534.93	12.968
535.27	13.156
535.62	13.553
535.96	13.371
536.30	12.524
536.64	13.200
536.98	13.404
537.32	12.574
537.66	12.600
538.01	13.825
538.35	13.058
538.69	14.231
539.03	12.411
539.37	12.907
539.71	11.925
540.05	13.203
540.39	13.488
540.73	13.648
541.07	12.914
541.42	13.177
541.76	12.968
542.10	13.389
542.44	13.245
542.78	14.493
543.12	12.860
543.46	14.164
543.80	13.988
544.14	12.965
544.48	12.952
544.82	13.149
545.16	12.947
545.50	13.175
545.84	12.970
546.18	13.266
546.52	13.352
546.86	13.608
547.20	13.486
547.54	13.093
547.88	13.520
548.22	12.827
548.56	13.082
548.90	13.444
549.24	12.660
549.58	13.029
549.92	14.354
550.26	13.991
550.60	13.624
550.94	14.366
551.28	12.363
551.62	13.731
551.96	13.053
552.30	15.290
552.64	13.387
552.98	13.220
553.32	14.228
553.66	14.383
554.00	15.374
554.34	12.422
554.68	13.233
555.02	14.034
555.36	13.152
555.69	13.261
556.03	13.930
556.37	13.984
556.71	13.302
557.05	14.076
557.39	13.786
557.73	14.397
558.07	13.488
558.41	13.748
558.75	13.813
559.08	13.945
559.42	13.228
559.76	14.191
560.10	13.704
560.44	13.417
560.78	13.240
561.12	13.061
561.45	14.407
561.79	12.986
562.13	13.682
562.47	13.934
562.81	13.529
563.15	12.910
563.48	14.125
563.82	12.916
564.16	13.407
564.50	12.891
564.84	13.654
565.17	12.806
565.51	13.291
565.85	13.325
566.19	12.085
566.52	13.933
566.86	13.020
567.20	13.208
567.54	13.356
567.88	12.656
568.21	12.593
568.55	12.487
568.89	12.014
569.23	12.389
569.56	11.660
569.90	11.434
570.24	11.661
570.57	11.085
570.91	11.441
571.25	11.767
571.59	11.222
571.92	11.060
572.26	11.179
572.60	11.532
572.93	11.394
573.27	11.298
573.61	11.279
573.95	11.421
574.28	10.779
574.62	11.054
574.96	10.418
575.29	10.742
575.63	10.671
575.97	10.492
576.30	11.285
576.64	10.589
576.98	10.841
577.31	10.790
577.65	11.031
577.98	10.655
578.32	10.425
578.66	10.440
578.99	10.774
579.33	10.821
579.67	10.387
580.00	10.525
580.34	10.631
580.67	10.872
581.01	10.951
581.35	11.045
581.68	10.768
582.02	10.547
582.35	10.163
582.69	10.517
583.02	10.483
583.36	10.537
583.70	10.664
584.03	11.024
584.37	11.331
584.70	10.815
585.04	10.959
585.37	10.834
585.71	11.020
586.04	11.041
586.38	11.442
586.72	11.516
587.05	10.812
587.39	11.003
587.72	10.899
588.06	10.886
588.39	10.754
588.73	11.411
589.06	11.000
589.40	11.448
589.73	11.616
590.07	11.423
590.40	11.180
590.73	11.358
591.07	11.803
591.40	12.062
591.74	12.641
592.07	11.780
592.41	11.699
592.74	12.135
593.08	11.559
593.41	12.022
593.75	11.056
594.08	11.364
594.41	11.311
594.75	11.571
595.08	11.560
595.42	11.664
595.75	11.610
596.09	12.017
596.42	12.141
596.75	11.777
597.09	12.424
597.42	11.931
597.75	12.160
598.09	12.435
598.42	11.942
598.76	11.593
599.09	11.821
599.42	11.426
599.76	12.006
600.09	11.694
600.42	11.760
600.76	11.214
601.09	11.439
601.42	11.758
601.76	11.271
602.09	11.383
602.42	12.142
602.76	12.052
603.09	11.959
603.42	11.792
603.76	12.119
604.09	11.477
604.42	11.904
604.76	12.400
605.09	12.145
605.42	11.971
605.75	12.127
606.09	12.119
606.42	11.443
606.75	12.360
607.09	12.432
607.42	11.596
607.75	11.561
608.08	11.724
608.42	12.237
608.75	11.542
609.08	12.488
609.41	11.994
609.75	12.339
610.08	12.253
610.41	11.965
610.74	12.299
611.07	12.549
611.41	12.561
611.74	13.022
612.07	12.267
612.40	12.959
612.73	12.158
613.07	13.093
613.40	13.007
613.73	12.061
614.06	12.796
614.39	12.585
614.72	13.316
615.06	12.447
615.39	12.845
615.72	12.372
616.05	12.759
616.38	12.118
616.71	13.183
617.05	12.544
617.38	13.349
617.71	12.312
618.04	13.942
618.37	13.424
618.70	13.752
619.03	13.026
619.36	14.053
619.69	12.817
620.03	13.805
620.36	13.837
620.69	13.904
621.02	13.496
621.35	13.469
621.68	13.629
622.01	13.932
622.34	14.145
622.67	14.068
623.00	13.280
623.33	13.295
623.66	14.010
623.99	13.549
624.32	14.123
624.65	13.912
624.99	12.960
625.32	13.251
625.65	13.599
625.98	14.604
626.31	14.230
626.64	14.041
626.97	14.298
627.30	14.381
627.63	14.520
627.96	15.055
628.29	14.698
628.62	14.273
628.95	15.283
629.28	14.964
629.61	13.932
629.94	15.143
630.26	13.918
630.59	14.967
630.92	14.176
631.25	14.511
631.58	14.615
631.91	14.807
632.24	14.241
632.57	15.530
632.90	15.132
633.23	16.779
633.56	15.593
633.89	15.968
634.22	16.572
634.55	16.213
634.88	16.048
635.20	16.368
635.53	16.265
635.86	15.965
636.19	17.059
636.52	15.456
636.85	16.609
637.18	15.899
637.51	16.076
637.83	14.057
638.16	16.752
638.49	17.003
638.82	17.446
639.15	18.000
639.48	17.581
639.81	17.828
640.13	18.490
640.46	15.570
640.79	16.909
641.12	15.818
641.45	16.620
641.77	18.704
642.10	18.421
642.43	16.667
642.76	16.873
643.09	17.791
643.41	18.209
643.74	18.981
644.07	17.988
644.40	19.785
644.73	18.898
645.05	19.968
645.38	19.431
645.71	18.519
646.04	17.940
646.36	17.863
646.69	18.896
647.02	19.388
647.35	19.072
647.67	20.000
648.00	19.837
648.33	18.647
648.66	16.970
648.98	18.741
649.31	17.190
649.64	17.937
649.96	18.033
650.29	18.009
650.62	18.123
650.94	18.639
651.27	20.608
651.60	17.138
651.92	19.329
652.25	17.427
652.58	18.380
652.90	18.167
653.23	16.179
653.56	19.055
653.88	19.810
654.21	20.379
654.54	17.822
654.86	18.224
655.19	16.216
655.52	11.058
655.84	9.658
656.17	12.159
656.49	16.351
656.82	16.016
657.15	11.677
657.47	8.681
657.80	6.642
658.13	6.779
658.45	10.296
658.78	9.971
659.10	10.122
659.43	11.572
659.75	12.104
660.08	14.241
660.41	16.108
660.73	19.695
661.06	19.904
661.38	19.091
661.71	19.615
662.03	20.513
662.36	19.085
662.68	21.084
663.01	17.980
663.33	19.108
663.66	23.109
663.98	19.870
664.31	19.538
664.63	19.231
664.96	17.907
665.28	20.902
665.61	20.078
665.93	19.517
666.26	20.284
666.58	21.967
666.91	21.564
667.23	21.573
667.56	19.438
667.88	20.513
668.21	21.322
668.53	22.343
668.86	21.645
669.18	23.028
669.50	23.261
669.83	24.619
670.15	19.556
670.48	21.569
670.80	19.397
671.13	21.444
671.45	19.574
671.77	22.200
672.10	20.702
672.42	20.141
672.75	19.900
673.07	20.246
673.39	16.998
673.72	18.164
674.04	21.765
674.37	18.447
674.69	19.223
675.01	19.038
675.34	22.177
675.66	21.895
675.98	21.996
676.31	21.639
676.63	23.355
676.95	20.545
677.28	20.327
677.60	19.121
677.92	22.996
678.25	20.534
678.57	19.323
678.89	18.838
679.22	19.450
679.54	20.229
679.86	22.385
680.18	18.247
680.51	21.277
680.83	19.039
681.15	19.811
681.48	20.038
681.80	19.729
682.12	18.774
682.44	17.988
682.77	21.385
683.09	24.678
683.41	23.947
683.73	20.309
684.06	20.041
684.38	20.548
684.70	20.349
685.02	21.576
685.34	18.132
685.67	17.657
685.99	19.931
686.31	19.113
686.63	18.198
686.96	19.821
687.28	20.397
687.60	18.659
687.92	21.755
688.24	19.011
688.56	22.892
688.89	23.444
689.21	22.926
689.53	21.086
689.85	21.508
690.17	19.048
690.49	20.382
690.82	24.533
691.14	19.196
691.46	19.620
691.78	21.084
692.10	21.694
692.42	20.559
692.74	19.502
693.06	22.128
693.39	21.561
693.71	21.616
694.03	19.789
694.35	19.913
694.67	23.341
694.99	23.902
695.31	22.059
695.63	22.727
695.95	22.738
696.27	19.797
696.59	21.503
696.91	23.316
697.23	18.779
697.56	21.322
697.88	17.382
698.20	20.208
698.52	21.935
698.84	20.045
699.16	22.120
699.48	22.803
699.80	20.531
700.12	26.234
700.44	24.668
700.76	24.309
701.08	28.161
701.40	21.508
701.72	23.907
702.04	27.273
702.36	24.079
702.68	22.946
703.00	22.992
703.32	21.809
703.64	26.273
703.96	25.627
704.28	24.419
704.60	24.633
704.91	28.190
705.23	26.100
705.55	28.904
705.87	28.571
706.19	20.495
706.51	26.480
706.83	26.667
707.15	26.050
707.47	23.990
707.79	23.833
708.11	23.973
708.43	22.619
708.74	21.684
709.06	24.675
709.38	25.459
709.70	26.453
710.02	28.190
710.34	25.152
710.66	28.358
710.98	27.273
711.29	25.000
711.61	29.204
711.93	28.846
712.25	29.904
712.57	29.044
712.89	26.298
713.20	28.267
713.52	29.276
713.84	27.215
714.16	23.780
714.48	24.425
714.80	28.267
715.11	27.378
715.43	24.629
715.75	29.565
716.07	28.115
716.39	26.332
716.70	31.561
717.02	28.417
717.34	31.095
717.66	30.970
717.97	30.279
718.29	28.889
718.61	29.927
718.93	27.574
719.24	23.529
719.56	27.119
719.88	25.763
720.20	26.689
720.51	28.223
720.83	26.766
721.15	27.985
721.46	31.560
721.78	29.749
722.10	32.453
722.42	32.331
722.73	29.963
723.05	29.508
723.37	33.603
723.68	28.571
724.00	27.642
724.32	30.645
724.63	30.488
724.95	32.636
725.27	33.603
725.58	32.031
725.90	30.657
726.22	26.792
726.53	29.514
726.85	28.669
727.16	29.537
727.48	26.241
727.80	28.409
728.11	26.449
728.43	26.923
728.74	26.523
729.06	32.117
729.38	32.353
729.69	30.961
730.01	24.915
730.32	30.903
730.64	27.090
730.96	21.452
731.27	29.801
731.59	28.746
731.90	29.446
732.22	27.019
732.53	25.697
732.85	28.526
733.16	25.723
733.48	26.246
733.80	24.351
734.11	32.484
734.43	26.331
734.74	24.571
735.06	25.215
735.37	27.457
735.69	25.796
736.00	28.431
736.32	33.022
736.63	28.435
736.95	26.518
737.26	22.789
737.58	25.161
737.89	29.431
738.21	26.962
738.52	29.643
738.83	26.415
739.15	29.615
739.46	30.292
739.78	31.250
740.09	28.308
740.41	28.710
740.72	27.526
741.04	32.593
741.35	28.750
741.66	38.667
741.98	34.434
742.29	35.407
742.61	41.379
742.92	33.484
743.23	34.188
743.55	34.400
743.86	32.895
744.18	38.053
744.49	34.928
744.80	39.906
745.12	39.545
745.43	34.802
745.74	34.685
746.06	34.862
746.37	38.565
746.68	33.937
747.00	38.889
747.31	38.095
747.62	29.204
747.94	33.040
748.25	28.511
748.56	34.361
748.88	32.178
749.19	41.500
749.50	38.140
749.82	34.146
750.13	31.429
750.44	29.927
750.75	27.368
751.07	31.190
751.38	32.404
751.69	26.715
752.01	28.571
752.32	26.715
752.63	27.660
752.94	34.426
753.26	35.600
753.57	28.049
753.88	39.063
754.19	30.714
754.51	32.639
754.82	30.686
755.13	29.434
755.44	31.955
755.75	33.577
756.07	28.369
756.38	29.197
756.69	28.523
757.00	24.850
757.31	26.706
757.63	24.854
757.94	26.273
758.25	24.020
758.56	25.432
758.87	26.075
759.18	26.061
759.50	26.019
759.81	27.726
760.12	23.437
760.43	26.648
760.74	23.913
761.05	26.554
761.36	21.658
761.67	27.273
761.99	25.776
762.30	29.167
762.61	32.443
762.92	32.813
763.23	31.933
763.54	36.800
763.85	32.813
764.16	35.000
764.47	33.080
764.78	28.975
765.10	27.848
765.41	25.369
765.72	27.545
766.03	26.019
766.34	29.000
766.65	34.468
766.96	35.043
767.27	34.518
767.58	41.146
767.89	42.105
768.20	39.655
768.51	43.147
768.82	38.532
769.13	34.146
769.44	34.818
769.75	39.485
770.06	34.404
770.37	31.222
770.68	33.333
770.99	36.000
771.30	28.689
771.61	37.668
771.92	33.197
772.23	34.454
772.54	39.487
772.85	37.696
773.16	40.426
773.47	39.674
773.78	37.056
774.09	32.738
774.39	42.690
774.70	41.975
775.01	54.348
775.32	47.059
775.63	48.684
775.94	41.007
776.25	57.480
776.56	55.224
776.87	59.836
777.18	42.969
777.48	61.069
777.79	61.364
778.10	59.259
778.41	60.714
778.72	45.255
779.03	46.309
779.34	44.966
779.65	46.622
779.95	43.558
780.26	50.327
780.57	47.586
780.88	64.062
781.19	56.391
781.50	50.000
781.80	48.428
782.11	37.853
782.42	46.203
782.73	46.012
783.04	51.351
783.34	47.183
783.65	54.110
783.96	46.269
784.27	41.958
784.57	46.763
784.88	45.370
785.19	59.524
785.50	58.491
785.81	57.463
786.11	61.475
786.42	56.589
786.73	53.982
787.04	58.491
787.34	58.036
787.65	56.000
787.96	65.766
788.26	56.198
788.57	63.559
788.88	55.372
789.19	53.472
789.49	62.879
789.80	60.305
790.11	60.000
790.41	71.287
790.72	65.060
791.03	64.130
791.33	76.744
791.64	63.918
791.95	74.257
792.25	74.444
792.56	87.013
792.87	94.872
793.17	98.734
793.48	75.862
793.79	68.966
794.09	72.727
794.40	67.227
794.70	50.000
795.01	53.333
795.32	53.237
795.62	55.118
795.93	62.069
796.23	61.947
796.54	65.882
796.85	70.270
797.15	97.183
797.46	72.727
797.76	85.542
798.07	81.013
798.37	69.231
798.68	90.909
798.99	74.648
799.29	75.325
799.60	71.591
799.90	95.890
800.21	100.000
800.51	105.172
800.82	115.789
801.12	106.557
801.43	112.121
801.73	85.135
802.04	115.873
802.34	93.827
802.65	101.563
802.95	100.000
803.26	115.625
803.56	87.143
803.87	95.385
804.17	95.588
804.48	131.481
804.78	105.172
805.09	100.000
805.39	115.385
805.70	103.571
806.00	103.279
806.30	77.273
806.61	74.390
806.91	69.620
807.22	93.421
807.52	82.090
807.83	90.141
808.13	93.750
808.43	95.000
808.74	96.053
809.04	98.551
809.35	97.015
809.65	81.579
809.95	119.355
810.26	84.746
810.56	100.000
810.86	145.455
811.17	154.762
811.47	118.333
811.77	98.148
812.08	130.909
812.38	124.000
812.69	163.889
812.99	154.545
813.29	138.776
813.59	140.476
813.90	130.612
814.20	100.000
814.50	101.538
814.81	105.882
815.11	130.612
815.41	106.557
815.72	145.238
816.02	136.364
816.32	147.619
816.62	157.500
816.93	160.976
817.23	154.762
817.53	127.273
817.84	157.576
818.14	134.783
818.44	144.444
818.74	176.471
819.04	137.500
819.35	160.000
819.65	197.059
819.95	221.429
820.25	215.000
820.56	138.462
820.86	145.455
821.16	139.535
821.46	128.205
821.76	142.000
822.07	165.714
822.37	147.500
822.67	169.697
822.97	125.490
823.27	221.429
823.57	162.162
823.88	165.000
824.18	200.000
824.48	157.143
824.78	208.000
825.08	225.000
825.38	178.378
825.69	153.659
825.99	204.167
826.29	168.966
826.59	176.316
826.89	168.421
827.19	150.000
827.49	190.323
827.79	143.182
828.09	154.545
828.39	121.277
828.70	140.816
829.00	200.000
829.30	170.968
829.60	147.500
829.90	306.667
830.20	175.000
830.50	221.739
830.80	252.174
831.10	236.667
831.40	200.000
831.70	221.739
832.00	238.462
832.30	237.037
832.60	318.750
832.90	226.667
833.20	442.857
833.50	216.129
833.80	224.138
834.10	209.375
834.40	234.615
834.70	350.000
835.00	319.048
835.30	191.429
835.60	361.538
835.90	206.897
836.20	442.857
836.50	162.069
836.80	172.000
837.10	180.556
837.40	280.952
837.70	335.294
838.00	237.037
838.30	276.190
838.60	280.952
838.90	242.308
839.19	255.000
839.49	428.571
839.79	335.000
840.09	295.000
840.39	295.238
840.69	300.000
840.99	305.556
841.29	460.000
841.59	408.333
841.88	325.000
842.18	206.897
842.48	304.762
842.78	193.333
843.08	213.043
843.38	231.250
843.68	1000.000
843.97	265.385
844.27	227.586
844.57	333.333
844.87	387.500
845.17	229.630
845.47	1833.333
845.76	533.333
846.06	376.471
846.36	712.500
846.66	421.429
846.96	287.500
847.25	372.727
847.55	472.727
847.85	291.304
848.15	540.000
848.44	378.571
848.74	211.111
849.04	311.765
849.34	550.000
849.63	294.737
849.93	472.727
850.23	920.000
850.53	400.000
850.82	2550.000
851.12	-4300.000
851.42	5000.000
851.71	270.000
852.01	-1200.000
852.31	279.167
852.61	2066.667
852.90	280.952
853.20	248.000
853.50	405.882
853.79	280.952
854.09	216.667
854.39	343.750
854.68	197.297
854.98	229.032
855.28	186.667
855.57	220.690
855.87	259.259
856.17	268.421
856.46	253.333
856.76	364.706
857.05	206.897
857.35	275.000
857.65	366.667
857.94	278.261
858.24	269.231
858.53	345.000
858.83	290.909
859.13	373.333
859.42	0.000
859.72	588.889
860.01	490.909
860.31	277.273
860.60	252.632
860.90	243.478
861.20	688.889
861.49	500.000
861.79	-5400.000
862.08	750.000
862.38	304.762
862.67	392.308
862.97	382.353
863.26	566.667
863.56	338.889
863.85	416.667
864.15	737.500
864.44	386.667
864.74	933.333
865.03	612.500
865.33	300.000
865.62	490.909
865.92	423.077
866.21	508.333
866.51	0.000
866.80	554.545
867.10	1400.000
867.39	553.846
867.69	436.364
867.98	278.947
868.27	518.182
868.57	310.526
868.86	-5400.000
869.16	350.000
869.45	2700.000
869.75	-4700.000
870.04	466.667
870.33	814.286
870.63	1200.000
870.92	2300.000
871.22	957.143
871.51	341.176
871.80	242.857
872.10	428.571
>>>>>End Processed Spectral Data<<<<<
