SpectraSuite Data File
++++++++++++++++++++++++++++++++++++
Date: Wed May 13 19:40:31 PDT 2015
User: schluterlab
Dark Spectrum Present: Yes
Reference Spectrum Present: Yes
Number of Sampled Component Spectra: 1
Spectrometers: USB2E3373
Integration Time (usec): 3000 (USB2E3373)
Spectra Averaged: 3 (USB2E3373)
Boxcar Smoothing: 0 (USB2E3373)
Correct for Electrical Dark: No (USB2E3373)
Strobe/Lamp Enabled: No (USB2E3373)
Correct for Detector Non-linearity: No (USB2E3373)
Correct for Stray Light: No (USB2E3373)
Number of Pixels in Processed Spectrum: 2048
>>>>>Begin Processed Spectral Data<<<<<
178.53	0.000
178.91	-1350.000
179.29	-1025.000
179.67	-244.444
180.04	-1425.000
180.42	2400.000
180.80	1040.000
181.18	-1000.000
181.56	800.000
181.94	0.000
182.31	-628.571
182.69	1600.000
183.07	-675.000
183.45	-566.667
183.83	454.545
184.20	-410.000
184.58	2800.000
184.96	5100.000
185.34	-940.000
185.72	-687.500
186.09	-2500.000
186.47	3100.000
186.85	2950.000
187.23	4300.000
187.61	-1800.000
187.98	1375.000
188.36	581.818
188.74	545.455
189.12	-880.000
189.49	680.000
189.87	-5200.000
190.25	-1250.000
190.63	514.286
191.00	461.538
191.38	866.667
191.76	-1050.000
192.14	1450.000
192.51	662.500
192.89	1100.000
193.27	675.000
193.65	-1250.000
194.02	600.000
194.40	880.000
194.78	520.000
195.15	533.333
195.53	570.000
195.91	-2600.000
196.29	337.500
196.66	263.158
197.04	-380.000
197.42	0.000
197.79	610.000
198.17	-5100.000
198.55	714.286
198.92	737.500
199.30	920.000
199.68	0.000
200.05	311.111
200.43	642.857
200.81	5000.000
201.18	1700.000
201.56	-1566.667
201.94	577.778
202.31	566.667
202.69	491.667
203.07	600.000
203.44	0.000
203.82	1275.000
204.19	828.571
204.57	378.571
204.95	650.000
205.32	1466.667
205.70	527.273
206.08	471.429
206.45	2650.000
206.83	368.750
207.20	816.667
207.58	820.000
207.96	333.333
208.33	712.500
208.71	-700.000
209.08	842.857
209.46	611.111
209.84	527.273
210.21	-1300.000
210.59	1600.000
210.96	-500.000
211.34	2650.000
211.71	470.000
212.09	816.667
212.46	0.000
212.84	1466.667
213.22	1375.000
213.59	-5700.000
213.97	833.333
214.34	857.143
214.72	600.000
215.09	1000.000
215.47	-2000.000
215.84	-2550.000
216.22	1866.667
216.59	421.429
216.97	1225.000
217.34	472.727
217.72	-733.333
218.09	0.000
218.47	-5100.000
218.84	766.667
219.22	871.429
219.59	1666.667
219.97	-700.000
220.34	1040.000
220.72	-1700.000
221.09	385.714
221.47	1375.000
221.84	-950.000
222.22	0.000
222.59	1275.000
222.97	-2400.000
223.34	1220.000
223.72	492.308
224.09	1180.000
224.46	2200.000
224.84	-4600.000
225.21	-1100.000
225.59	-4800.000
225.96	580.000
226.34	310.000
226.71	2300.000
227.08	712.500
227.46	570.000
227.83	-925.000
228.21	-2550.000
228.58	622.222
228.95	-2600.000
229.33	-2400.000
229.70	2000.000
230.08	814.286
230.45	-800.000
230.82	458.333
231.20	883.333
231.57	771.429
231.95	550.000
232.32	231.818
232.69	345.455
233.07	685.714
233.44	415.385
233.81	-1700.000
234.19	315.789
234.56	383.333
234.93	400.000
235.31	427.273
235.68	315.385
236.05	342.857
236.43	184.848
236.80	321.053
237.17	4300.000
237.55	247.619
237.92	235.714
238.29	204.762
238.67	187.097
239.04	179.310
239.41	141.667
239.79	139.130
240.16	142.857
240.53	122.727
240.91	86.275
241.28	100.000
241.65	106.000
242.02	84.058
242.40	95.161
242.77	115.000
243.14	69.892
243.51	79.775
243.89	74.118
244.26	63.333
244.63	61.290
245.00	68.085
245.38	52.475
245.75	64.486
246.12	54.128
246.49	59.854
246.87	61.600
247.24	60.769
247.61	45.714
247.98	52.941
248.36	45.946
248.73	46.497
249.10	49.045
249.47	42.373
249.84	45.989
250.22	45.989
250.59	40.828
250.96	37.879
251.33	37.441
251.70	39.604
252.08	38.095
252.45	34.529
252.82	30.870
253.19	34.043
253.56	36.863
253.94	35.685
254.31	35.547
254.68	35.769
255.05	28.413
255.42	34.553
255.79	31.618
256.16	35.740
256.54	29.329
256.91	34.164
257.28	27.698
257.65	33.003
258.02	29.503
258.39	29.338
258.76	31.773
259.14	33.036
259.51	28.875
259.88	27.950
260.25	33.837
260.62	27.168
260.99	26.708
261.36	29.429
261.73	25.501
262.10	23.837
262.47	27.606
262.85	27.855
263.22	23.647
263.59	30.484
263.96	27.473
264.33	28.460
264.70	25.000
265.07	28.389
265.44	25.505
265.81	23.601
266.18	26.633
266.55	23.902
266.92	23.833
267.29	25.000
267.66	24.312
268.03	28.636
268.40	23.832
268.77	22.434
269.14	25.450
269.51	24.605
269.88	24.009
270.25	25.282
270.62	24.494
270.99	27.312
271.36	25.107
271.73	22.664
272.10	23.261
272.47	23.871
272.84	24.026
273.21	25.367
273.58	20.961
273.95	23.690
274.32	21.488
274.69	23.126
275.06	21.457
275.43	22.979
275.80	24.048
276.17	22.403
276.54	24.740
276.91	22.134
277.28	22.070
277.65	23.598
278.02	20.704
278.39	24.414
278.76	21.455
279.13	21.509
279.50	22.905
279.87	20.319
280.23	23.752
280.60	20.696
280.97	23.105
281.34	22.655
281.71	23.091
282.08	22.457
282.45	22.545
282.82	22.202
283.19	19.073
283.56	21.930
283.92	21.151
284.29	20.811
284.66	22.505
285.03	20.976
285.40	20.070
285.77	20.370
286.14	20.207
286.51	21.333
286.87	21.368
287.24	21.173
287.61	21.188
287.98	21.429
288.35	19.334
288.72	18.069
289.08	20.970
289.45	21.087
289.82	20.163
290.19	16.484
290.56	18.683
290.93	19.486
291.29	19.325
291.66	20.059
292.03	19.767
292.40	19.971
292.77	19.527
293.13	17.761
293.50	18.367
293.87	18.519
294.24	17.333
294.60	16.885
294.97	17.442
295.34	20.310
295.71	18.466
296.08	17.806
296.44	16.781
296.81	17.569
297.18	17.344
297.55	15.963
297.91	16.887
298.28	16.867
298.65	18.668
299.02	16.733
299.38	17.795
299.75	15.229
300.12	16.603
300.48	15.250
300.85	16.400
301.22	16.561
301.59	15.909
301.95	15.995
302.32	16.560
302.69	16.010
303.05	15.030
303.42	14.815
303.79	15.968
304.15	14.569
304.52	15.527
304.89	14.518
305.25	15.777
305.62	16.082
305.99	16.175
306.35	16.443
306.72	16.816
307.09	15.871
307.45	15.878
307.82	13.951
308.19	15.121
308.55	15.318
308.92	16.434
309.29	15.417
309.65	15.058
310.02	15.539
310.38	15.269
310.75	16.367
311.12	15.046
311.48	16.092
311.85	16.667
312.22	16.025
312.58	15.593
312.95	17.529
313.31	16.214
313.68	16.424
314.05	18.935
314.41	17.588
314.78	18.328
315.14	15.690
315.51	16.375
315.87	18.218
316.24	18.173
316.61	17.836
316.97	18.200
317.34	17.808
317.70	19.885
318.07	18.961
318.43	19.961
318.80	19.869
319.16	19.962
319.53	20.075
319.89	20.381
320.26	22.800
320.62	22.024
320.99	20.909
321.35	22.828
321.72	22.690
322.08	24.580
322.45	24.876
322.81	25.775
323.18	24.181
323.54	25.603
323.91	25.849
324.27	26.291
324.64	25.443
325.00	25.609
325.37	27.571
325.73	28.905
326.10	28.067
326.46	28.405
326.83	29.853
327.19	30.487
327.56	30.488
327.92	29.571
328.29	31.766
328.65	31.860
329.01	33.213
329.38	32.747
329.74	32.872
330.11	32.799
330.47	35.170
330.84	34.743
331.20	33.333
331.56	33.028
331.93	35.278
332.29	35.049
332.66	36.106
333.02	34.918
333.38	34.688
333.75	36.898
334.11	36.210
334.48	35.404
334.84	36.121
335.20	35.091
335.57	35.630
335.93	35.268
336.29	34.341
336.66	35.798
337.02	35.475
337.38	36.389
337.75	36.185
338.11	36.526
338.47	36.004
338.84	36.847
339.20	36.789
339.56	37.865
339.93	37.364
340.29	35.779
340.65	35.561
341.02	36.387
341.38	37.011
341.74	36.316
342.11	36.419
342.47	36.476
342.83	35.616
343.20	35.671
343.56	36.984
343.92	36.491
344.28	36.565
344.65	37.661
345.01	36.532
345.37	36.964
345.73	34.602
346.10	36.147
346.46	36.271
346.82	35.008
347.19	35.589
347.55	36.864
347.91	36.084
348.27	36.894
348.63	37.207
349.00	36.489
349.36	36.043
349.72	36.648
350.08	35.737
350.45	36.778
350.81	36.149
351.17	35.251
351.53	35.053
351.89	35.561
352.26	35.596
352.62	36.568
352.98	35.656
353.34	36.483
353.70	35.270
354.07	35.565
354.43	35.238
354.79	34.755
355.15	35.036
355.51	35.651
355.87	36.327
356.24	37.134
356.60	34.563
356.96	35.640
357.32	34.996
357.68	36.220
358.04	35.709
358.40	34.917
358.77	36.463
359.13	35.438
359.49	33.961
359.85	34.921
360.21	34.530
360.57	35.175
360.93	36.000
361.29	34.769
361.66	34.598
362.02	36.045
362.38	35.209
362.74	35.342
363.10	35.085
363.46	34.483
363.82	35.299
364.18	35.609
364.54	36.553
364.90	35.765
365.26	35.882
365.62	35.135
365.98	35.281
366.35	33.954
366.71	36.009
367.07	34.669
367.43	36.067
367.79	36.188
368.15	36.207
368.51	34.302
368.87	35.475
369.23	35.040
369.59	35.554
369.95	33.824
370.31	35.256
370.67	34.275
371.03	35.281
371.39	34.840
371.75	34.779
372.11	35.277
372.47	36.070
372.83	35.303
373.19	35.838
373.55	35.994
373.91	36.672
374.27	33.883
374.63	34.982
374.99	35.664
375.35	33.566
375.71	35.161
376.07	35.940
376.42	35.970
376.78	35.388
377.14	34.464
377.50	35.497
377.86	33.511
378.22	35.525
378.58	34.273
378.94	34.947
379.30	34.224
379.66	35.343
380.02	34.521
380.38	34.183
380.74	36.014
381.09	34.169
381.45	35.526
381.81	35.074
382.17	35.478
382.53	34.025
382.89	34.074
383.25	34.897
383.61	35.564
383.97	34.459
384.32	34.498
384.68	33.953
385.04	34.788
385.40	34.613
385.76	34.705
386.12	35.233
386.48	35.557
386.83	35.536
387.19	35.374
387.55	34.879
387.91	34.885
388.27	33.722
388.62	35.771
388.98	33.784
389.34	35.732
389.70	34.580
390.06	35.044
390.42	35.019
390.77	34.987
391.13	35.163
391.49	34.962
391.85	33.800
392.20	33.186
392.56	34.217
392.92	33.902
393.28	33.018
393.64	34.173
393.99	34.148
394.35	33.747
394.71	34.442
395.07	34.019
395.42	34.487
395.78	34.796
396.14	33.954
396.50	35.589
396.85	35.092
397.21	34.032
397.57	33.416
397.92	34.255
398.28	33.744
398.64	32.975
399.00	33.688
399.35	33.221
399.71	34.201
400.07	34.004
400.42	33.742
400.78	32.811
401.14	33.232
401.49	33.313
401.85	33.273
402.21	32.575
402.57	32.696
402.92	32.913
403.28	32.854
403.63	33.168
403.99	32.994
404.35	33.758
404.70	33.094
405.06	32.615
405.42	33.437
405.77	32.914
406.13	32.223
406.49	32.821
406.84	32.841
407.20	32.329
407.55	33.121
407.91	33.533
408.27	33.376
408.62	32.029
408.98	32.966
409.34	32.780
409.69	33.806
410.05	33.147
410.40	32.232
410.76	31.422
411.11	32.147
411.47	32.013
411.83	32.376
412.18	31.540
412.54	32.192
412.89	33.072
413.25	32.172
413.60	31.748
413.96	31.026
414.31	31.652
414.67	31.432
415.03	32.583
415.38	32.088
415.74	32.926
416.09	32.920
416.45	31.727
416.80	32.584
417.16	31.702
417.51	32.050
417.87	31.535
418.22	32.240
418.58	32.085
418.93	32.002
419.29	31.636
419.64	32.179
420.00	31.220
420.35	31.130
420.71	31.261
421.06	30.728
421.42	31.462
421.77	31.839
422.12	30.994
422.48	30.545
422.83	31.625
423.19	31.381
423.54	31.573
423.90	32.174
424.25	31.267
424.61	30.714
424.96	31.778
425.31	30.842
425.67	31.685
426.02	31.200
426.38	31.929
426.73	31.363
427.09	31.611
427.44	31.167
427.79	31.282
428.15	31.786
428.50	31.539
428.85	31.406
429.21	31.033
429.56	31.208
429.92	31.303
430.27	31.182
430.62	30.005
430.98	31.552
431.33	30.670
431.68	31.623
432.04	30.831
432.39	32.496
432.74	31.598
433.10	31.919
433.45	32.245
433.80	31.153
434.16	31.624
434.51	31.421
434.86	31.642
435.22	31.240
435.57	31.733
435.92	30.369
436.28	31.257
436.63	31.236
436.98	31.082
437.34	31.425
437.69	33.139
438.04	31.647
438.39	31.701
438.75	32.132
439.10	31.061
439.45	32.349
439.81	31.239
440.16	32.016
440.51	31.342
440.86	32.021
441.22	31.368
441.57	31.847
441.92	31.474
442.27	31.485
442.63	30.858
442.98	32.169
443.33	31.522
443.68	31.853
444.03	31.088
444.39	30.088
444.74	30.736
445.09	30.997
445.44	31.274
445.79	31.173
446.15	31.075
446.50	30.587
446.85	31.449
447.20	31.820
447.55	31.491
447.91	31.495
448.26	31.107
448.61	31.374
448.96	32.226
449.31	32.171
449.66	30.838
450.02	30.864
450.37	31.916
450.72	31.472
451.07	30.591
451.42	31.550
451.77	32.061
452.12	31.755
452.47	31.530
452.83	31.935
453.18	31.174
453.53	32.096
453.88	31.778
454.23	31.978
454.58	31.496
454.93	32.613
455.28	32.045
455.63	31.614
455.98	32.083
456.34	31.721
456.69	32.060
457.04	31.641
457.39	31.210
457.74	31.747
458.09	31.915
458.44	31.357
458.79	31.020
459.14	31.151
459.49	31.115
459.84	30.471
460.19	30.407
460.54	30.613
460.89	30.554
461.24	30.783
461.59	32.191
461.94	31.258
462.29	31.751
462.64	31.206
462.99	30.384
463.34	31.267
463.69	31.395
464.04	31.014
464.39	30.551
464.74	31.670
465.09	31.062
465.44	30.139
465.79	30.145
466.14	29.119
466.49	30.311
466.84	31.173
467.19	30.356
467.54	30.938
467.89	30.552
468.24	30.425
468.59	31.013
468.94	30.422
469.29	30.913
469.64	31.526
469.99	31.258
470.34	30.185
470.68	32.471
471.03	30.000
471.38	31.272
471.73	31.179
472.08	32.171
472.43	30.842
472.78	31.468
473.13	30.039
473.48	31.398
473.83	30.183
474.17	29.932
474.52	30.025
474.87	30.998
475.22	30.354
475.57	29.017
475.92	29.740
476.27	29.989
476.61	29.730
476.96	29.027
477.31	29.461
477.66	29.759
478.01	29.587
478.36	29.720
478.70	29.439
479.05	30.138
479.40	29.887
479.75	29.944
480.10	29.225
480.45	29.224
480.79	29.049
481.14	29.501
481.49	29.331
481.84	29.127
482.19	29.123
482.53	28.761
482.88	29.083
483.23	29.393
483.58	29.163
483.92	29.428
484.27	27.451
484.62	27.931
484.97	27.079
485.31	28.082
485.66	26.180
486.01	25.074
486.36	24.573
486.70	24.579
487.05	25.169
487.40	25.894
487.75	26.561
488.09	26.661
488.44	26.751
488.79	27.703
489.13	27.005
489.48	27.977
489.83	28.528
490.17	28.277
490.52	27.635
490.87	27.725
491.22	27.922
491.56	27.973
491.91	27.966
492.26	27.653
492.60	27.788
492.95	27.268
493.30	28.037
493.64	27.811
493.99	27.809
494.34	28.215
494.68	27.793
495.03	28.336
495.37	27.594
495.72	28.509
496.07	27.935
496.41	27.345
496.76	27.353
497.11	26.925
497.45	28.086
497.80	27.255
498.14	27.585
498.49	27.805
498.84	28.236
499.18	27.619
499.53	26.971
499.87	27.353
500.22	26.519
500.56	28.252
500.91	26.779
501.26	27.169
501.60	28.334
501.95	27.360
502.29	28.116
502.64	26.862
502.98	27.115
503.33	27.239
503.67	27.193
504.02	26.894
504.36	27.328
504.71	26.575
505.06	26.892
505.40	27.662
505.75	27.724
506.09	27.648
506.44	28.022
506.78	27.082
507.13	26.906
507.47	27.879
507.82	27.204
508.16	27.812
508.51	27.955
508.85	27.408
509.19	27.347
509.54	27.041
509.88	26.739
510.23	27.712
510.57	28.586
510.92	27.292
511.26	27.081
511.61	27.749
511.95	26.983
512.30	26.882
512.64	27.673
512.98	27.814
513.33	27.463
513.67	27.748
514.02	27.219
514.36	28.072
514.70	28.556
515.05	26.213
515.39	27.089
515.74	27.646
516.08	28.172
516.42	27.858
516.77	28.484
517.11	26.249
517.46	27.652
517.80	27.875
518.14	27.215
518.49	28.180
518.83	27.216
519.17	27.887
519.52	27.674
519.86	28.009
520.20	27.572
520.55	27.947
520.89	27.981
521.23	28.166
521.58	27.431
521.92	27.557
522.26	27.639
522.61	28.536
522.95	26.888
523.29	27.693
523.64	27.988
523.98	27.603
524.32	27.563
524.66	28.443
525.01	27.451
525.35	27.819
525.69	27.709
526.04	27.227
526.38	26.663
526.72	27.669
527.06	28.060
527.41	26.423
527.75	28.039
528.09	28.388
528.43	27.597
528.78	27.412
529.12	26.061
529.46	27.495
529.80	28.032
530.15	27.850
530.49	26.400
530.83	27.595
531.17	28.264
531.51	29.248
531.86	27.613
532.20	26.923
532.54	26.778
532.88	27.599
533.22	26.109
533.57	27.222
533.91	25.707
534.25	27.157
534.59	26.236
534.93	26.234
535.27	26.433
535.62	26.129
535.96	26.428
536.30	27.273
536.64	27.044
536.98	28.135
537.32	26.860
537.66	27.733
538.01	26.860
538.35	26.050
538.69	27.058
539.03	26.316
539.37	26.709
539.71	25.081
540.05	26.536
540.39	26.179
540.73	26.843
541.07	27.774
541.42	26.745
541.76	26.903
542.10	27.296
542.44	26.291
542.78	26.548
543.12	25.656
543.46	27.607
543.80	26.675
544.14	26.573
544.48	26.413
544.82	26.427
545.16	26.675
545.50	26.028
545.84	26.277
546.18	26.128
546.52	25.809
546.86	26.529
547.20	26.770
547.54	26.052
547.88	26.722
548.22	25.841
548.56	25.597
548.90	25.864
549.24	24.983
549.58	26.671
549.92	26.374
550.26	26.207
550.60	26.625
550.94	26.268
551.28	25.604
551.62	27.103
551.96	25.754
552.30	26.007
552.64	26.166
552.98	26.373
553.32	25.287
553.66	26.926
554.00	26.218
554.34	26.018
554.68	26.180
555.02	25.247
555.36	26.166
555.69	25.778
556.03	25.370
556.37	25.716
556.71	25.580
557.05	25.000
557.39	25.262
557.73	26.112
558.07	26.033
558.41	25.977
558.75	26.672
559.08	25.951
559.42	25.699
559.76	26.176
560.10	25.410
560.44	25.577
560.78	24.285
561.12	26.055
561.45	25.489
561.79	25.181
562.13	24.547
562.47	25.478
562.81	26.081
563.15	25.084
563.48	25.000
563.82	23.940
564.16	24.918
564.50	24.219
564.84	23.894
565.17	24.389
565.51	24.665
565.85	24.175
566.19	24.108
566.52	24.509
566.86	23.689
567.20	24.233
567.54	23.801
567.88	22.759
568.21	23.545
568.55	22.750
568.89	23.200
569.23	22.237
569.56	21.822
569.90	20.792
570.24	21.385
570.57	21.115
570.91	20.459
571.25	20.506
571.59	19.676
571.92	19.585
572.26	19.960
572.60	20.210
572.93	20.300
573.27	20.349
573.61	19.710
573.95	19.871
574.28	19.899
574.62	19.558
574.96	19.785
575.29	19.132
575.63	19.055
575.97	19.162
576.30	19.703
576.64	19.181
576.98	19.300
577.31	19.177
577.65	19.631
577.98	18.778
578.32	18.328
578.66	19.224
578.99	19.197
579.33	19.099
579.67	18.876
580.00	19.372
580.34	18.771
580.67	18.743
581.01	18.979
581.35	18.879
581.68	18.579
582.02	18.069
582.35	18.517
582.69	18.818
583.02	18.770
583.36	19.345
583.70	19.181
584.03	18.704
584.37	19.974
584.70	19.488
585.04	19.447
585.37	18.826
585.71	18.867
586.04	18.942
586.38	19.540
586.72	20.160
587.05	19.288
587.39	18.865
587.72	19.222
588.06	19.290
588.39	19.534
588.73	19.302
589.06	19.508
589.40	19.899
589.73	20.169
590.07	20.036
590.40	20.241
590.73	20.609
591.07	21.490
591.40	20.793
591.74	20.649
592.07	20.593
592.41	20.339
592.74	19.738
593.08	19.454
593.41	19.519
593.75	19.176
594.08	19.075
594.41	20.078
594.75	20.370
595.08	19.792
595.42	20.000
595.75	19.658
596.09	19.977
596.42	20.354
596.75	20.093
597.09	21.169
597.42	20.067
597.75	20.742
598.09	20.174
598.42	20.189
598.76	19.700
599.09	19.992
599.42	19.068
599.76	19.985
600.09	19.308
600.42	19.065
600.76	19.571
601.09	19.454
601.42	19.597
601.76	20.038
602.09	20.079
602.42	20.502
602.76	20.597
603.09	19.788
603.42	19.446
603.76	19.093
604.09	19.349
604.42	20.139
604.76	20.413
605.09	20.533
605.42	19.709
605.75	20.033
606.09	19.520
606.42	19.779
606.75	20.241
607.09	19.967
607.42	19.683
607.75	19.578
608.08	19.540
608.42	20.215
608.75	20.334
609.08	19.658
609.41	20.657
609.75	19.819
610.08	20.547
610.41	19.786
610.74	20.956
611.07	20.702
611.41	20.020
611.74	20.463
612.07	21.014
612.40	21.144
612.73	20.842
613.07	21.282
613.40	21.064
613.73	20.661
614.06	21.183
614.39	21.185
614.72	20.737
615.06	20.588
615.39	20.117
615.72	20.501
616.05	20.308
616.38	20.901
616.71	21.437
617.05	21.555
617.38	21.347
617.71	21.682
618.04	21.695
618.37	22.058
618.70	21.469
619.03	22.368
619.36	22.200
619.69	22.113
620.03	22.459
620.36	21.925
620.69	23.356
621.02	22.788
621.35	23.179
621.68	22.118
622.01	21.981
622.34	23.752
622.67	23.194
623.00	21.937
623.33	22.159
623.66	22.230
623.99	23.122
624.32	22.468
624.65	21.963
624.99	21.388
625.32	22.013
625.65	22.615
625.98	23.828
626.31	23.872
626.64	22.367
626.97	24.605
627.30	23.109
627.63	23.380
627.96	24.222
628.29	23.272
628.62	24.428
628.95	25.472
629.28	24.361
629.61	25.206
629.94	24.667
630.26	24.786
630.59	24.881
630.92	23.467
631.25	24.482
631.58	25.025
631.91	24.544
632.24	24.156
632.57	26.023
632.90	24.671
633.23	26.174
633.56	25.537
633.89	24.915
634.22	26.447
634.55	27.811
634.88	25.030
635.20	26.045
635.53	26.867
635.86	27.599
636.19	25.647
636.52	24.567
636.85	26.117
637.18	25.115
637.51	27.069
637.83	24.538
638.16	26.598
638.49	28.338
638.82	26.675
639.15	27.500
639.48	26.434
639.81	27.614
640.13	28.516
640.46	26.846
640.79	26.024
641.12	25.997
641.45	27.654
641.77	28.719
642.10	28.801
642.43	25.225
642.76	30.341
643.09	29.141
643.41	28.528
643.74	28.086
644.07	27.439
644.40	29.448
644.73	28.189
645.05	31.854
645.38	28.436
645.71	28.341
646.04	27.575
646.36	30.885
646.69	30.435
647.02	30.782
647.35	30.069
647.67	31.504
648.00	29.268
648.33	29.538
648.66	28.182
648.98	28.186
649.31	24.813
649.64	27.504
649.96	27.720
650.29	28.436
650.62	28.479
650.94	31.118
651.27	29.561
651.60	28.619
651.92	27.955
652.25	28.013
652.58	28.505
652.90	28.436
653.23	26.040
653.56	26.772
653.88	25.357
654.21	29.384
654.54	26.898
654.86	26.636
655.19	25.676
655.52	15.660
655.84	13.140
656.17	16.464
656.49	22.384
656.82	23.035
657.15	17.724
657.47	13.332
657.80	10.332
658.13	10.681
658.45	16.850
658.78	16.604
659.10	17.495
659.43	18.244
659.75	20.054
660.08	21.266
660.41	23.371
660.73	26.557
661.06	26.911
661.38	30.000
661.71	28.846
662.03	31.361
662.36	31.412
662.68	32.731
663.01	32.525
663.33	30.573
663.66	29.412
663.98	31.102
664.31	31.092
664.63	28.138
664.96	32.596
665.28	30.738
665.61	28.655
665.93	30.584
666.26	28.803
666.58	30.753
666.91	30.655
667.23	33.708
667.56	30.454
667.88	32.479
668.21	31.130
668.53	30.803
668.86	30.952
669.18	32.836
669.50	31.739
669.83	31.155
670.15	33.333
670.48	32.026
670.80	30.603
671.13	32.484
671.45	29.787
671.77	31.976
672.10	27.542
672.42	30.035
672.75	26.036
673.07	26.585
673.39	29.114
673.72	27.930
674.04	27.255
674.37	28.155
674.69	29.243
675.01	28.870
675.34	29.979
675.66	33.895
675.98	31.161
676.31	28.992
676.63	31.635
676.95	31.866
677.28	29.673
677.60	30.989
677.92	32.911
678.25	26.694
678.57	27.291
678.89	27.255
679.22	29.470
679.54	27.481
679.86	29.174
680.18	28.801
680.51	26.950
680.83	26.868
681.15	29.057
681.48	29.490
681.80	29.594
682.12	27.778
682.44	26.499
682.77	30.754
683.09	33.906
683.41	29.712
683.73	30.022
684.06	30.992
684.38	27.397
684.70	30.039
685.02	29.644
685.34	28.205
685.67	24.650
685.99	26.117
686.31	26.962
686.63	25.618
686.96	25.893
687.28	27.798
687.60	26.268
687.92	26.874
688.24	30.228
688.56	26.707
688.89	29.876
689.21	31.004
689.53	29.019
689.85	29.933
690.17	25.052
690.49	31.423
690.82	30.374
691.14	27.679
691.46	27.004
691.78	29.518
692.10	28.719
692.42	28.543
692.74	27.386
693.06	29.362
693.39	30.801
693.71	30.131
694.03	30.105
694.35	31.602
694.67	29.748
694.99	32.195
695.31	32.108
695.63	29.904
695.95	30.807
696.27	29.949
696.59	33.420
696.91	32.124
697.23	28.638
697.56	27.505
697.88	26.789
698.20	28.333
698.52	28.387
698.84	29.621
699.16	25.576
699.48	28.504
699.80	31.401
700.12	34.545
700.44	33.422
700.76	34.807
701.08	37.356
701.40	33.799
701.72	35.860
702.04	38.352
702.36	31.445
702.68	33.428
703.00	33.518
703.32	31.383
703.64	29.759
703.96	33.148
704.28	33.140
704.60	34.897
704.91	36.202
705.23	33.431
705.55	37.209
705.87	37.874
706.19	36.042
706.51	34.579
706.83	34.242
707.15	34.734
707.47	29.293
707.79	32.678
708.11	30.137
708.43	30.476
708.74	29.337
709.06	31.429
709.38	32.546
709.70	32.558
710.02	33.828
710.34	30.303
710.66	35.821
710.98	32.386
711.29	35.465
711.61	32.153
711.93	36.859
712.25	36.334
712.57	36.765
712.89	37.024
713.20	34.043
713.52	37.171
713.84	34.810
714.16	28.659
714.48	32.471
714.80	38.602
715.11	34.006
715.43	32.641
715.75	33.623
716.07	33.227
716.39	31.661
716.70	40.864
717.02	34.532
717.34	36.042
717.66	36.194
717.97	39.044
718.29	34.074
718.61	34.307
718.93	40.074
719.24	38.754
719.56	34.237
719.88	34.915
720.20	38.514
720.51	34.843
720.83	34.572
721.15	35.448
721.46	34.397
721.78	37.993
722.10	38.113
722.42	37.970
722.73	39.326
723.05	37.295
723.37	39.271
723.68	36.293
724.00	35.772
724.32	39.919
724.63	39.024
724.95	37.657
725.27	41.700
725.58	37.109
725.90	35.036
726.22	38.113
726.53	33.681
726.85	35.836
727.16	35.587
727.48	34.043
727.80	35.606
728.11	31.522
728.43	32.308
728.74	39.785
729.06	43.431
729.38	37.500
729.69	36.299
730.01	32.423
730.32	29.861
730.64	34.114
730.96	34.323
731.27	34.106
731.59	31.498
731.90	35.277
732.22	32.919
732.53	34.056
732.85	34.295
733.16	33.441
733.48	36.877
733.80	34.091
734.11	33.758
734.43	35.503
734.74	30.286
735.06	30.086
735.37	33.237
735.69	30.892
736.00	34.641
736.32	33.022
736.63	31.949
736.95	32.268
737.26	30.952
737.58	28.387
737.89	34.783
738.21	35.495
738.52	32.857
738.83	35.849
739.15	35.769
739.46	33.577
739.78	35.069
740.09	33.231
740.41	32.581
740.72	32.404
741.04	34.444
741.35	36.250
741.66	43.556
741.98	38.679
742.29	44.019
742.61	44.828
742.92	40.724
743.23	40.171
743.55	40.000
743.86	39.912
744.18	42.920
744.49	47.368
744.80	44.131
745.12	42.273
745.43	40.088
745.74	41.441
746.06	38.991
746.37	38.565
746.68	41.629
747.00	45.370
747.31	44.286
747.62	35.398
747.94	39.207
748.25	40.000
748.56	41.850
748.88	36.139
749.19	53.500
749.50	44.186
749.82	36.585
750.13	37.959
750.44	32.482
750.75	36.140
751.07	34.405
751.38	35.540
751.69	33.935
752.01	37.970
752.32	33.213
752.63	34.043
752.94	34.426
753.26	44.000
753.57	31.707
753.88	42.578
754.19	35.714
754.51	35.417
754.82	31.408
755.13	40.000
755.44	32.331
755.75	34.672
756.07	32.624
756.38	29.927
756.69	33.557
757.00	29.042
757.31	26.113
757.63	30.117
757.94	29.223
758.25	28.922
758.56	26.173
758.87	28.226
759.18	32.727
759.50	29.154
759.81	33.022
760.12	26.563
760.43	31.519
760.74	30.707
761.05	28.249
761.36	31.551
761.67	32.102
761.99	28.882
762.30	34.722
762.61	34.733
762.92	37.109
763.23	36.555
763.54	40.400
763.85	33.594
764.16	38.462
764.47	39.163
764.78	32.509
765.10	29.114
765.41	30.678
765.72	28.144
766.03	32.915
766.34	31.667
766.65	37.447
766.96	36.752
767.27	42.132
767.58	50.000
767.89	44.737
768.20	47.126
768.51	43.655
768.82	42.661
769.13	35.366
769.44	36.032
769.75	37.339
770.06	33.945
770.37	40.724
770.68	38.426
770.99	37.778
771.30	30.328
771.61	42.601
771.92	39.754
772.23	41.176
772.54	45.641
772.85	47.644
773.16	39.362
773.47	44.022
773.78	46.193
774.09	43.452
774.39	44.444
774.70	51.235
775.01	53.623
775.32	55.556
775.63	53.947
775.94	50.360
776.25	62.205
776.56	55.970
776.87	59.016
777.18	60.156
777.48	57.252
777.79	66.667
778.10	60.000
778.41	57.143
778.72	54.745
779.03	46.980
779.34	56.376
779.65	47.973
779.95	47.239
780.26	52.288
780.57	57.241
780.88	62.500
781.19	54.887
781.50	47.973
781.80	43.396
782.11	44.068
782.42	45.570
782.73	48.466
783.04	58.784
783.34	57.746
783.65	55.479
783.96	58.209
784.27	55.944
784.57	46.763
784.88	51.852
785.19	56.349
785.50	65.094
785.81	61.194
786.11	64.754
786.42	51.163
786.73	66.372
787.04	63.208
787.34	58.929
787.65	56.000
787.96	55.856
788.26	59.504
788.57	65.254
788.88	61.157
789.19	56.944
789.49	61.364
789.80	45.802
790.11	79.048
790.41	64.356
790.72	71.084
791.03	75.000
791.33	66.279
791.64	65.979
791.95	70.297
792.25	71.111
792.56	75.325
792.87	94.872
793.17	94.937
793.48	71.264
793.79	79.310
794.09	85.227
794.40	57.143
794.70	61.765
795.01	58.519
795.32	50.360
795.62	61.417
795.93	54.310
796.23	69.912
796.54	65.882
796.85	77.027
797.15	97.183
797.46	87.879
797.76	90.361
798.07	79.747
798.37	75.385
798.68	95.455
798.99	70.423
799.29	81.818
799.60	75.000
799.90	93.151
800.21	100.000
800.51	98.276
800.82	105.263
801.12	83.607
801.43	95.455
801.73	94.595
802.04	90.476
802.34	85.185
802.65	114.062
802.95	123.729
803.26	106.250
803.56	91.429
803.87	87.692
804.17	97.059
804.48	135.185
804.78	91.379
805.09	100.000
805.39	101.923
805.70	117.857
806.00	118.033
806.30	84.848
806.61	81.707
806.91	68.354
807.22	73.684
807.52	88.060
807.83	97.183
808.13	103.125
808.43	96.667
808.74	80.263
809.04	104.348
809.35	104.478
809.65	85.526
809.95	124.194
810.26	115.254
810.56	103.175
810.86	161.364
811.17	126.190
811.47	126.667
811.77	105.556
812.08	107.273
812.38	142.000
812.69	130.556
812.99	154.545
813.29	122.449
813.59	90.476
813.90	120.408
814.20	94.545
814.50	93.846
814.81	110.294
815.11	116.327
815.41	104.918
815.72	166.667
816.02	110.909
816.32	138.095
816.62	125.000
816.93	129.268
817.23	150.000
817.53	140.909
817.84	184.848
818.14	136.957
818.44	142.222
818.74	179.412
819.04	155.000
819.35	174.286
819.65	161.765
819.95	192.857
820.25	220.000
820.56	169.231
820.86	134.091
821.16	127.907
821.46	158.974
821.76	134.000
822.07	174.286
822.37	145.000
822.67	169.697
822.97	125.490
823.27	210.714
823.57	154.054
823.88	145.000
824.18	180.000
824.48	150.000
824.78	228.000
825.08	191.667
825.38	181.081
825.69	139.024
825.99	220.833
826.29	179.310
826.59	150.000
826.89	176.316
827.19	164.706
827.49	187.097
827.79	143.182
828.09	159.091
828.39	155.319
828.70	130.612
829.00	174.074
829.30	164.516
829.60	155.000
829.90	326.667
830.20	185.714
830.50	239.130
830.80	291.304
831.10	216.667
831.40	193.333
831.70	247.826
832.00	246.154
832.30	211.111
832.60	381.250
832.90	193.333
833.20	378.571
833.50	209.677
833.80	175.862
834.10	181.250
834.40	261.538
834.70	300.000
835.00	276.190
835.30	177.143
835.60	415.385
835.90	248.276
836.20	428.571
836.50	206.897
836.80	176.000
837.10	186.111
837.40	257.143
837.70	288.235
838.00	207.407
838.30	238.095
838.60	309.524
838.90	257.692
839.19	300.000
839.49	364.286
839.79	335.000
840.09	300.000
840.39	247.619
840.69	239.130
840.99	311.111
841.29	520.000
841.59	425.000
841.88	350.000
842.18	189.655
842.48	285.714
842.78	190.000
843.08	230.435
843.38	209.375
843.68	933.333
843.97	207.692
844.27	241.379
844.57	290.476
844.87	375.000
845.17	200.000
845.47	1633.333
845.76	533.333
846.06	282.353
846.36	550.000
846.66	407.143
846.96	293.750
847.25	418.182
847.55	409.091
847.85	269.565
848.15	540.000
848.44	371.429
848.74	283.333
849.04	335.294
849.34	540.000
849.63	215.789
849.93	590.909
850.23	1200.000
850.53	492.857
850.82	2400.000
851.12	-4700.000
851.42	5300.000
851.71	240.000
852.01	-1466.667
852.31	241.667
852.61	2033.333
852.90	276.190
853.20	208.000
853.50	364.706
853.79	300.000
854.09	229.167
854.39	293.750
854.68	183.784
854.98	206.452
855.28	166.667
855.57	248.276
855.87	225.926
856.17	300.000
856.46	253.333
856.76	323.529
857.05	186.207
857.35	262.500
857.65	373.333
857.94	230.435
858.24	238.462
858.53	305.000
858.83	268.182
859.13	366.667
859.42	0.000
859.72	577.778
860.01	427.273
860.31	272.727
860.60	300.000
860.90	256.522
861.20	533.333
861.49	458.333
861.79	-4300.000
862.08	787.500
862.38	300.000
862.67	323.077
862.97	358.824
863.26	522.222
863.56	305.556
863.85	475.000
864.15	537.500
864.44	386.667
864.74	783.333
865.03	675.000
865.33	347.368
865.62	454.545
865.92	438.462
866.21	466.667
866.51	0.000
866.80	436.364
867.10	1040.000
867.39	438.462
867.69	500.000
867.98	263.158
868.27	536.364
868.57	305.263
868.86	-4400.000
869.16	381.250
869.45	2250.000
869.75	-4900.000
870.04	400.000
870.33	714.286
870.63	1225.000
870.92	2450.000
871.22	814.286
871.51	329.412
871.80	228.571
872.10	407.143
>>>>>End Processed Spectral Data<<<<<
