SpectraSuite Data File
++++++++++++++++++++++++++++++++++++
Date: Wed May 13 19:45:29 PDT 2015
User: schluterlab
Dark Spectrum Present: Yes
Reference Spectrum Present: Yes
Number of Sampled Component Spectra: 1
Spectrometers: USB2E3373
Integration Time (usec): 3000 (USB2E3373)
Spectra Averaged: 3 (USB2E3373)
Boxcar Smoothing: 0 (USB2E3373)
Correct for Electrical Dark: No (USB2E3373)
Strobe/Lamp Enabled: No (USB2E3373)
Correct for Detector Non-linearity: No (USB2E3373)
Correct for Stray Light: No (USB2E3373)
Number of Pixels in Processed Spectrum: 2048
>>>>>Begin Processed Spectral Data<<<<<
178.53	0.000
178.91	-1275.000
179.29	-1275.000
179.67	-194.444
180.04	-1300.000
180.42	3000.000
180.80	1060.000
181.18	-1100.000
181.56	557.143
181.94	0.000
182.31	-600.000
182.69	1800.000
183.07	-512.500
183.45	-622.222
183.83	554.545
184.20	-430.000
184.58	2550.000
184.96	6000.000
185.34	-800.000
185.72	-550.000
186.09	-2700.000
186.47	2750.000
186.85	2550.000
187.23	4900.000
187.61	-1733.333
187.98	1350.000
188.36	527.273
188.74	554.545
189.12	-800.000
189.49	630.000
189.87	-4800.000
190.25	-1175.000
190.63	485.714
191.00	415.385
191.38	816.667
191.76	-1075.000
192.14	1125.000
192.51	612.500
192.89	966.667
193.27	562.500
193.65	-1225.000
194.02	640.000
194.40	980.000
194.78	520.000
195.15	466.667
195.53	590.000
195.91	-2350.000
196.29	368.750
196.66	331.579
197.04	-420.000
197.42	0.000
197.79	590.000
198.17	-5200.000
198.55	857.143
198.92	687.500
199.30	1160.000
199.68	0.000
200.05	322.222
200.43	800.000
200.81	4400.000
201.18	1566.667
201.56	-1400.000
201.94	611.111
202.31	688.889
202.69	483.333
203.07	560.000
203.44	0.000
203.82	1350.000
204.19	785.714
204.57	457.143
204.95	725.000
205.32	1900.000
205.70	563.636
206.08	364.286
206.45	2300.000
206.83	312.500
207.20	850.000
207.58	740.000
207.96	338.889
208.33	712.500
208.71	-850.000
209.08	828.571
209.46	488.889
209.84	509.091
210.21	-1733.333
210.59	1475.000
210.96	-475.000
211.34	2450.000
211.71	630.000
212.09	883.333
212.46	0.000
212.84	1900.000
213.22	1250.000
213.59	-4000.000
213.97	900.000
214.34	800.000
214.72	581.818
215.09	1100.000
215.47	-1950.000
215.84	-2350.000
216.22	1933.333
216.59	385.714
216.97	1375.000
217.34	481.818
217.72	-616.667
218.09	0.000
218.47	-4800.000
218.84	666.667
219.22	814.286
219.59	1900.000
219.97	-528.571
220.34	1020.000
220.72	-1733.333
221.09	414.286
221.47	1525.000
221.84	-1016.667
222.22	0.000
222.59	1650.000
222.97	-2800.000
223.34	1360.000
223.72	446.154
224.09	1060.000
224.46	2550.000
224.84	-4600.000
225.21	-1040.000
225.59	-4800.000
225.96	570.000
226.34	330.000
226.71	2650.000
227.08	700.000
227.46	620.000
227.83	-1025.000
228.21	-3050.000
228.58	688.889
228.95	-2800.000
229.33	-2200.000
229.70	1666.667
230.08	871.429
230.45	-880.000
230.82	408.333
231.20	866.667
231.57	628.571
231.95	466.667
232.32	277.273
232.69	418.182
233.07	642.857
233.44	392.308
233.81	-1633.333
234.19	331.579
234.56	425.000
234.93	350.000
235.31	572.727
235.68	453.846
236.05	342.857
236.43	190.909
236.80	305.263
237.17	4600.000
237.55	209.524
237.92	228.571
238.29	233.333
238.67	206.452
239.04	206.897
239.41	183.333
239.79	145.652
240.16	147.619
240.53	145.455
240.91	129.412
241.28	108.000
241.65	124.000
242.02	98.551
242.40	98.387
242.77	100.000
243.14	82.796
243.51	83.146
243.89	95.294
244.26	72.222
244.63	82.796
245.00	74.468
245.38	79.208
245.75	73.832
246.12	58.716
246.49	64.964
246.87	69.600
247.24	70.769
247.61	52.143
247.98	62.092
248.36	63.514
248.73	64.968
249.10	57.962
249.47	53.672
249.84	55.080
250.22	50.802
250.59	55.030
250.96	50.000
251.33	52.607
251.70	57.426
252.08	50.952
252.45	44.395
252.82	48.261
253.19	47.660
253.56	46.667
253.94	47.303
254.31	43.750
254.68	47.692
255.05	40.590
255.42	47.561
255.79	45.588
256.16	43.321
256.54	38.869
256.91	39.146
257.28	41.367
257.65	42.904
258.02	40.062
258.39	40.379
258.76	42.140
259.14	41.964
259.51	37.386
259.88	36.957
260.25	41.692
260.62	37.283
260.99	41.615
261.36	40.240
261.73	39.542
262.10	39.535
262.47	41.690
262.85	36.490
263.22	37.037
263.59	40.171
263.96	36.813
264.33	37.598
264.70	37.368
265.07	38.875
265.44	40.404
265.81	35.280
266.18	37.688
266.55	36.098
266.92	37.838
267.29	36.343
267.66	36.927
268.03	36.364
268.40	35.981
268.77	36.754
269.14	39.640
269.51	35.666
269.88	37.529
270.25	35.892
270.62	31.910
270.99	37.204
271.36	33.691
271.73	34.112
272.10	34.348
272.47	34.624
272.84	32.468
273.21	34.382
273.58	33.624
273.95	33.333
274.32	35.744
274.69	33.833
275.06	32.283
275.43	34.043
275.80	33.066
276.17	32.790
276.54	37.630
276.91	33.202
277.28	32.422
277.65	33.269
278.02	35.404
278.39	34.570
278.76	33.273
279.13	34.906
279.50	30.168
279.87	33.466
280.23	35.928
280.60	35.010
280.97	33.272
281.34	32.389
281.71	32.545
282.08	34.933
282.45	31.091
282.82	31.083
283.19	30.660
283.56	30.702
283.92	31.303
284.29	30.335
284.66	31.034
285.03	30.922
285.40	29.930
285.77	31.818
286.14	30.915
286.51	31.833
286.87	31.282
287.24	31.270
287.61	30.177
287.98	31.818
288.35	29.952
288.72	28.816
289.08	27.856
289.45	28.995
289.82	28.943
290.19	27.473
290.56	27.871
290.93	26.737
291.29	27.914
291.66	28.171
292.03	29.651
292.40	27.753
292.77	26.775
293.13	27.463
293.50	28.863
293.87	26.667
294.24	25.778
294.60	27.074
294.97	25.727
295.34	28.773
295.71	25.284
296.08	25.071
296.44	24.347
296.81	24.967
297.18	27.778
297.55	22.691
297.91	24.670
298.28	25.837
298.65	24.674
299.02	24.506
299.38	24.303
299.75	21.698
300.12	22.861
300.48	22.500
300.85	23.305
301.22	23.822
301.59	24.369
301.95	24.055
302.32	22.721
302.69	22.103
303.05	23.394
303.42	22.593
303.79	24.236
304.15	21.096
304.52	20.510
304.89	22.532
305.25	22.622
305.62	22.084
305.99	22.550
306.35	21.812
306.72	22.870
307.09	22.752
307.45	22.748
307.82	21.875
308.19	21.523
308.55	22.869
308.92	23.093
309.29	21.014
309.65	20.148
310.02	21.459
310.38	21.398
310.75	22.070
311.12	21.392
311.48	21.735
311.85	22.432
312.22	22.789
312.58	22.557
312.95	22.281
313.31	21.456
313.68	21.830
314.05	23.176
314.41	23.819
314.78	22.256
315.14	22.741
315.51	23.996
315.87	23.168
316.24	23.535
316.61	23.197
316.97	21.429
317.34	22.994
317.70	24.665
318.07	23.292
318.43	24.168
318.80	24.086
319.16	25.141
319.53	23.921
319.89	24.476
320.26	25.000
320.62	24.901
320.99	25.051
321.35	25.051
321.72	26.489
322.08	27.048
322.45	28.159
322.81	27.132
323.18	28.227
323.54	26.994
323.91	27.830
324.27	27.533
324.64	28.145
325.00	27.683
325.37	29.026
325.73	29.084
326.10	29.744
326.46	30.287
326.83	30.544
327.19	30.487
327.56	30.662
327.92	31.059
328.29	31.588
328.65	32.689
329.01	30.325
329.38	31.267
329.74	31.025
330.11	33.270
330.47	32.231
330.84	32.445
331.20	31.785
331.56	32.661
331.93	32.130
332.29	31.411
332.66	32.832
333.02	32.815
333.38	33.243
333.75	32.620
334.11	33.274
334.48	32.919
334.84	32.445
335.20	33.636
335.57	32.457
335.93	32.500
336.29	33.242
336.66	34.085
337.02	32.308
337.38	33.148
337.75	31.907
338.11	32.498
338.47	33.702
338.84	34.464
339.20	32.477
339.56	33.212
339.93	31.909
340.29	32.790
340.65	33.422
341.02	32.723
341.38	32.473
341.74	33.509
342.11	32.926
342.47	32.775
342.83	33.048
343.20	34.719
343.56	33.193
343.92	32.982
344.28	33.333
344.65	32.846
345.01	32.239
345.37	32.419
345.73	34.179
346.10	33.589
346.46	32.797
346.82	33.443
347.19	31.913
347.55	32.923
347.91	33.252
348.27	33.936
348.63	34.281
349.00	32.120
349.36	33.662
349.72	33.440
350.08	32.091
350.45	32.872
350.81	32.738
351.17	33.955
351.53	33.170
351.89	32.426
352.26	32.676
352.62	33.119
352.98	32.091
353.34	32.868
353.70	31.178
354.07	33.468
354.43	31.984
354.79	33.146
355.15	32.961
355.51	33.173
355.87	33.469
356.24	33.306
356.60	33.360
356.96	33.467
357.32	33.034
357.68	34.016
358.04	33.175
358.40	33.729
358.77	32.942
359.13	33.070
359.49	33.333
359.85	33.254
360.21	32.695
360.57	33.307
360.93	33.692
361.29	33.485
361.66	32.663
362.02	34.254
362.38	34.144
362.74	33.408
363.10	32.939
363.46	33.822
363.82	33.333
364.18	33.480
364.54	34.473
364.90	35.057
365.26	32.941
365.62	34.478
365.98	33.236
366.35	31.948
366.71	35.069
367.07	34.377
367.43	34.615
367.79	34.761
368.15	34.914
368.51	34.520
368.87	34.404
369.23	35.187
369.59	34.540
369.95	35.294
370.31	34.117
370.67	34.928
371.03	34.757
371.39	34.913
371.75	34.853
372.11	34.851
372.47	35.777
372.83	34.726
373.19	35.332
373.55	35.698
373.91	35.714
374.27	34.845
374.63	36.291
374.99	36.723
375.35	33.845
375.71	33.790
376.07	36.008
376.42	34.801
376.78	36.382
377.14	35.075
377.50	36.490
377.86	34.907
378.22	36.220
378.58	35.276
378.94	35.764
379.30	35.814
379.66	36.041
380.02	35.258
380.38	35.398
380.74	35.894
381.09	35.636
381.45	36.386
381.81	35.934
382.17	37.580
382.53	36.101
382.89	36.790
383.25	36.523
383.61	37.299
383.97	37.023
384.32	36.369
384.68	36.555
385.04	36.632
385.40	35.789
385.76	36.179
386.12	36.788
386.48	37.571
386.83	38.422
387.19	37.477
387.55	37.786
387.91	36.759
388.27	37.339
388.62	38.230
388.98	36.794
389.34	37.359
389.70	38.013
390.06	38.213
390.42	37.808
390.77	39.249
391.13	38.162
391.49	38.388
391.85	38.129
392.20	37.350
392.56	38.573
392.92	38.964
393.28	37.396
393.64	38.249
393.99	38.363
394.35	38.462
394.71	38.080
395.07	38.131
395.42	38.752
395.78	38.359
396.14	37.803
396.50	39.724
396.85	38.843
397.21	38.533
397.57	37.880
397.92	38.582
398.28	38.901
398.64	38.112
399.00	38.276
399.35	38.353
399.71	38.137
400.07	38.794
400.42	38.282
400.78	39.385
401.14	38.537
401.49	39.224
401.85	38.838
402.21	39.102
402.57	39.482
402.92	38.020
403.28	38.538
403.63	38.428
403.99	38.854
404.35	38.727
404.70	39.448
405.06	37.740
405.42	39.863
405.77	38.400
406.13	37.472
406.49	39.326
406.84	37.803
407.20	38.475
407.55	38.928
407.91	38.933
408.27	38.481
408.62	37.809
408.98	40.196
409.34	38.130
409.69	39.032
410.05	38.228
410.40	38.593
410.76	38.889
411.11	38.480
411.47	38.083
411.83	39.096
412.18	38.714
412.54	38.917
412.89	38.735
413.25	38.312
413.60	39.407
413.96	37.158
414.31	37.971
414.67	37.769
415.03	38.212
415.38	39.884
415.74	39.035
416.09	39.255
416.45	40.295
416.80	39.260
417.16	39.343
417.51	39.681
417.87	38.215
418.22	39.306
418.58	38.476
418.93	38.575
419.29	38.574
419.64	39.547
420.00	38.537
420.35	39.072
420.71	39.749
421.06	37.411
421.42	38.363
421.77	38.229
422.12	38.462
422.48	38.154
422.83	38.963
423.19	38.232
423.54	38.363
423.90	38.783
424.25	37.968
424.61	36.786
424.96	39.242
425.31	37.542
425.67	37.191
426.02	36.971
426.38	39.133
426.73	38.034
427.09	37.629
427.44	37.608
427.79	37.838
428.15	38.750
428.50	37.273
428.85	37.783
429.21	37.714
429.56	37.481
429.92	37.242
430.27	37.438
430.62	36.559
430.98	37.519
431.33	37.526
431.68	38.220
432.04	36.901
432.39	37.293
432.74	38.001
433.10	37.238
433.45	38.192
433.80	36.807
434.16	37.874
434.51	37.526
434.86	37.457
435.22	36.909
435.57	37.447
435.92	37.741
436.28	37.129
436.63	37.693
436.98	36.405
437.34	38.462
437.69	38.331
438.04	36.650
438.39	37.731
438.75	38.117
439.10	37.430
439.45	37.544
439.81	37.281
440.16	36.420
440.51	36.790
440.86	38.274
441.22	36.763
441.57	36.943
441.92	37.103
442.27	37.137
442.63	35.492
442.98	38.423
443.33	36.902
443.68	36.861
444.03	37.286
444.39	36.465
444.74	37.067
445.09	37.305
445.44	36.468
445.79	37.011
446.15	36.845
446.50	36.780
446.85	36.331
447.20	36.155
447.55	37.521
447.91	37.010
448.26	37.396
448.61	36.857
448.96	36.102
449.31	37.177
449.66	36.072
450.02	36.156
450.37	36.054
450.72	36.435
451.07	35.649
451.42	35.684
451.77	36.524
452.12	36.143
452.47	36.505
452.83	35.490
453.18	36.247
453.53	36.549
453.88	36.208
454.23	35.684
454.58	37.311
454.93	37.572
455.28	37.095
455.63	36.104
455.98	37.381
456.34	36.432
456.69	35.817
457.04	35.604
457.39	35.885
457.74	35.577
458.09	35.595
458.44	36.317
458.79	34.816
459.14	35.384
459.49	35.377
459.84	35.014
460.19	35.887
460.54	34.144
460.89	34.942
461.24	35.276
461.59	37.013
461.94	35.203
462.29	35.964
462.64	35.035
462.99	34.157
463.34	35.667
463.69	35.084
464.04	34.609
464.39	34.957
464.74	36.304
465.09	34.680
465.44	33.407
465.79	35.235
466.14	33.881
466.49	33.982
466.84	35.143
467.19	34.218
467.54	35.438
467.89	34.334
468.24	33.973
468.59	34.554
468.94	33.293
469.29	33.933
469.64	35.542
469.99	34.641
470.34	33.091
470.68	34.986
471.03	34.286
471.38	34.885
471.73	33.777
472.08	34.803
472.43	33.794
472.78	33.180
473.13	34.403
473.48	33.833
473.83	33.598
474.17	33.790
474.52	33.809
474.87	33.742
475.22	34.359
475.57	33.047
475.92	32.608
476.27	33.540
476.61	32.819
476.96	33.095
477.31	31.711
477.66	33.096
478.01	31.835
478.36	32.681
478.70	32.555
479.05	32.588
479.40	32.805
479.75	31.927
480.10	31.759
480.45	31.366
480.79	31.295
481.14	31.996
481.49	31.846
481.84	31.687
482.19	31.758
482.53	32.064
482.88	31.875
483.23	31.916
483.58	30.710
483.92	31.584
484.27	30.065
484.62	30.905
484.97	31.021
485.31	30.479
485.66	30.015
486.01	28.592
486.36	28.166
486.70	27.873
487.05	28.755
487.40	29.494
487.75	28.861
488.09	29.603
488.44	29.853
488.79	29.584
489.13	30.176
489.48	30.669
489.83	30.211
490.17	31.039
490.52	30.292
490.87	30.620
491.22	29.741
491.56	29.248
491.91	29.223
492.26	29.949
492.60	30.369
492.95	29.046
493.30	29.579
493.64	29.118
493.99	28.923
494.34	29.278
494.68	29.212
495.03	29.370
495.37	29.502
495.72	29.435
496.07	29.420
496.41	28.451
496.76	28.540
497.11	28.771
497.45	29.204
497.80	28.887
498.14	28.696
498.49	29.610
498.84	28.236
499.18	29.095
499.53	28.443
499.87	28.192
500.22	28.403
500.56	29.903
500.91	28.942
501.26	29.682
501.60	28.904
501.95	27.727
502.29	28.491
502.64	28.212
502.98	27.817
503.33	27.559
503.67	27.842
504.02	28.765
504.36	28.264
504.71	27.699
505.06	28.337
505.40	27.953
505.75	27.772
506.09	27.502
506.44	27.528
506.78	27.667
507.13	27.966
507.47	27.778
507.82	27.406
508.16	28.470
508.51	27.549
508.85	27.458
509.19	28.112
509.54	27.398
509.88	27.460
510.23	26.787
510.57	27.967
510.92	27.188
511.26	27.749
511.61	27.645
511.95	27.923
512.30	27.359
512.64	26.975
512.98	28.403
513.33	27.784
513.67	26.894
514.02	27.056
514.36	28.291
514.70	27.504
515.05	25.934
515.39	26.977
515.74	27.252
516.08	27.446
516.42	27.469
516.77	27.815
517.11	27.137
517.46	27.201
517.80	27.642
518.14	25.709
518.49	27.421
518.83	27.330
519.17	26.443
519.52	26.769
519.86	26.583
520.20	27.110
520.55	27.289
520.89	27.433
521.23	27.865
521.58	27.311
521.92	26.516
522.26	26.785
522.61	27.290
522.95	27.379
523.29	25.441
523.64	26.646
523.98	26.556
524.32	26.719
524.66	27.240
525.01	26.961
525.35	26.704
525.69	26.170
526.04	25.981
526.38	26.663
526.72	25.706
527.06	26.554
527.41	25.557
527.75	25.659
528.09	26.525
528.43	26.450
528.78	26.736
529.12	26.061
529.46	26.026
529.80	26.547
530.15	25.732
530.49	25.908
530.83	26.329
531.17	26.371
531.51	26.848
531.86	25.419
532.20	26.858
532.54	27.354
532.88	26.380
533.22	24.797
533.57	25.062
533.91	24.443
534.25	25.395
534.59	25.747
534.93	24.628
535.27	24.985
535.62	25.824
535.96	24.984
536.30	25.111
536.64	26.336
536.98	25.614
537.32	25.806
537.66	24.600
538.01	25.741
538.35	25.663
538.69	24.505
539.03	25.471
539.37	24.665
539.71	23.914
540.05	25.033
540.39	24.385
540.73	24.321
541.07	26.087
541.42	25.375
541.76	26.129
542.10	24.774
542.44	25.099
542.78	25.823
543.12	24.504
543.46	25.836
543.80	24.593
544.14	24.326
544.48	24.571
544.82	24.439
545.16	24.398
545.50	24.422
545.84	25.538
546.18	24.848
546.52	25.740
546.86	24.742
547.20	25.489
547.54	24.582
547.88	24.872
548.22	24.408
548.56	23.899
548.90	23.496
549.24	23.973
549.58	24.488
549.92	25.069
550.26	23.793
550.60	23.859
550.94	24.225
551.28	23.848
551.62	23.796
551.96	24.070
552.30	24.300
552.64	24.611
552.98	24.136
553.32	23.736
553.66	23.926
554.00	24.365
554.34	23.879
554.68	25.393
555.02	24.753
555.36	23.939
555.69	23.884
556.03	23.957
556.37	24.488
556.71	23.602
557.05	24.090
557.39	23.933
557.73	24.347
558.07	24.075
558.41	24.385
558.75	24.320
559.08	23.714
559.42	23.507
559.76	25.074
560.10	23.412
560.44	23.969
560.78	23.353
561.12	23.879
561.45	23.990
561.79	23.138
562.13	22.871
562.47	23.224
562.81	23.431
563.15	23.411
563.48	23.011
563.82	23.092
564.16	23.152
564.50	22.852
564.84	23.072
565.17	22.394
565.51	22.364
565.85	23.033
566.19	22.480
566.52	23.496
566.86	23.026
567.20	23.113
567.54	22.203
567.88	21.782
568.21	23.545
568.55	22.295
568.89	21.255
569.23	22.148
569.56	21.660
569.90	21.472
570.24	21.026
570.57	21.523
570.91	20.168
571.25	20.445
571.59	20.766
571.92	20.622
572.26	20.682
572.60	21.081
572.93	20.990
573.27	21.118
573.61	20.771
573.95	20.233
574.28	20.452
574.62	19.874
574.96	20.645
575.29	20.417
575.63	20.478
575.97	20.281
576.30	20.127
576.64	20.243
576.98	19.956
577.31	20.379
577.65	20.261
577.98	19.944
578.32	19.678
578.66	20.126
578.99	19.950
579.33	20.092
579.67	20.117
580.00	20.523
580.34	20.242
580.67	19.617
581.01	20.328
581.35	19.984
581.68	20.030
582.02	19.311
582.35	19.729
582.69	19.708
583.02	20.213
583.36	20.383
583.70	20.829
584.03	20.428
584.37	20.369
584.70	20.455
585.04	20.475
585.37	20.061
585.71	20.230
586.04	19.812
586.38	19.932
586.72	20.547
587.05	20.266
587.39	19.551
587.72	20.253
588.06	19.771
588.39	20.000
588.73	20.006
589.06	20.536
589.40	20.370
589.73	20.099
590.07	20.961
590.40	19.912
590.73	20.648
591.07	21.530
591.40	20.624
591.74	21.299
592.07	20.681
592.41	20.050
592.74	19.663
593.08	20.286
593.41	20.183
593.75	19.706
594.08	19.980
594.41	20.148
594.75	19.852
595.08	19.828
595.42	20.665
595.75	20.157
596.09	20.653
596.42	20.550
596.75	20.262
597.09	20.693
597.42	20.363
597.75	20.742
598.09	20.435
598.42	20.017
598.76	20.268
599.09	19.650
599.42	20.051
599.76	19.729
600.09	19.745
600.42	19.357
600.76	19.429
601.09	19.745
601.42	20.320
601.76	19.620
602.09	19.486
602.42	19.705
602.76	21.080
603.09	19.748
603.42	20.226
603.76	19.779
604.09	19.542
604.42	19.894
604.76	20.329
605.09	20.664
605.42	19.838
605.75	19.661
606.09	19.357
606.42	19.861
606.75	20.116
607.09	20.050
607.42	19.469
607.75	19.662
608.08	19.713
608.42	20.439
608.75	20.153
609.08	20.259
609.41	19.895
609.75	20.343
610.08	20.641
610.41	19.041
610.74	20.009
611.07	19.318
611.41	19.971
611.74	20.814
612.07	20.652
612.40	20.462
612.73	19.368
613.07	20.636
613.40	20.958
613.73	19.717
614.06	20.591
614.39	19.612
614.72	20.526
615.06	20.641
615.39	19.851
615.72	20.194
616.05	19.830
616.38	20.067
616.71	20.368
617.05	21.084
617.38	20.144
617.71	20.661
618.04	20.974
618.37	20.698
618.70	21.406
619.03	20.987
619.36	21.317
619.69	20.423
620.03	20.604
620.36	21.190
620.69	21.027
621.02	21.755
621.35	20.047
621.68	21.729
622.01	20.356
622.34	21.331
622.67	20.913
623.00	20.836
623.33	20.443
623.66	20.944
623.99	21.502
624.32	20.756
624.65	20.056
624.99	19.830
625.32	20.203
625.65	20.285
625.98	21.368
626.31	21.384
626.64	21.633
626.97	21.446
627.30	21.031
627.63	22.970
627.96	21.699
628.29	21.347
628.62	21.500
628.95	22.358
629.28	21.807
629.61	22.456
629.94	22.190
630.26	21.258
630.59	21.640
630.92	21.169
631.25	21.915
631.58	21.522
631.91	21.602
632.24	21.624
632.57	23.295
632.90	22.697
633.23	23.043
633.56	21.582
633.89	22.877
634.22	22.588
634.55	22.840
634.88	22.156
635.20	22.820
635.53	22.771
635.86	24.381
636.19	23.529
636.52	22.837
636.85	22.337
637.18	22.005
637.51	24.232
637.83	21.332
638.16	23.402
638.49	23.552
638.82	23.388
639.15	21.875
639.48	23.691
639.81	23.995
640.13	24.219
640.46	24.161
640.79	22.061
641.12	21.320
641.45	23.045
641.77	23.564
642.10	23.977
642.43	22.372
642.76	23.220
643.09	25.460
643.41	23.065
643.74	24.228
644.07	22.409
644.40	24.387
644.73	25.669
645.05	26.624
645.38	24.171
645.71	25.282
646.04	26.412
646.36	27.212
646.69	22.910
647.02	23.469
647.35	23.540
647.67	26.018
648.00	25.041
648.33	25.578
648.66	25.909
648.98	24.888
649.31	21.375
649.64	22.123
649.96	24.739
650.29	24.803
650.62	23.625
650.94	25.770
651.27	23.649
651.60	26.123
651.92	26.038
652.25	24.430
652.58	23.676
652.90	23.539
653.23	23.729
653.56	22.992
653.88	24.881
654.21	25.908
654.54	23.102
654.86	22.897
655.19	22.703
655.52	15.900
655.84	14.803
656.17	19.088
656.49	25.999
656.82	26.540
657.15	20.539
657.47	15.300
657.80	11.731
658.13	12.147
658.45	18.750
658.78	18.735
659.10	19.767
659.43	20.899
659.75	22.331
660.08	23.481
660.41	24.767
660.73	26.048
661.06	23.726
661.38	26.182
661.71	27.885
662.03	26.036
662.36	24.453
662.68	24.096
663.01	25.859
663.33	25.902
663.66	24.790
663.98	27.862
664.31	24.580
664.63	24.291
664.96	23.944
665.28	26.434
665.61	25.731
665.93	25.352
666.26	27.181
666.58	27.824
666.91	28.330
667.23	26.742
667.56	24.838
667.88	26.282
668.21	27.505
668.53	26.898
668.86	24.675
669.18	27.292
669.50	26.739
669.83	30.065
670.15	27.111
670.48	23.965
670.80	25.431
671.13	23.779
671.45	24.468
671.77	25.866
672.10	23.475
672.42	24.735
672.75	24.876
673.07	24.648
673.39	23.508
673.72	24.609
674.04	27.255
674.37	25.049
674.69	25.562
675.01	25.941
675.34	26.899
675.66	29.474
675.98	28.106
676.31	26.050
676.63	26.327
676.95	27.254
677.28	25.935
677.60	26.154
677.92	28.481
678.25	26.694
678.57	24.502
678.89	26.052
679.22	24.951
679.54	24.809
679.86	28.257
680.18	24.866
680.51	25.000
680.83	25.267
681.15	25.849
681.48	26.654
681.80	24.371
682.12	24.713
682.44	23.985
682.77	27.495
683.09	26.609
683.41	26.608
683.73	25.166
684.06	27.893
684.38	24.462
684.70	26.357
685.02	25.141
685.34	23.260
685.67	23.252
685.99	22.165
686.31	22.867
686.63	22.615
686.96	23.393
687.28	23.466
687.60	23.913
687.92	24.497
688.24	22.433
688.56	28.715
688.89	28.631
689.21	27.948
689.53	23.382
689.85	26.386
690.17	23.810
690.49	26.752
690.82	26.636
691.14	27.455
691.46	23.629
691.78	24.900
692.10	27.273
692.42	24.950
692.74	24.689
693.06	26.596
693.39	28.337
693.71	25.109
694.03	26.947
694.35	27.706
694.67	24.714
694.99	26.098
695.31	25.490
695.63	26.555
695.95	26.406
696.27	23.858
696.59	25.907
696.91	27.461
697.23	26.056
697.56	26.226
697.88	24.949
698.20	24.792
698.52	27.742
698.84	28.285
699.16	26.959
699.48	25.891
699.80	25.362
700.12	27.792
700.44	29.708
700.76	30.110
701.08	28.161
701.40	29.330
701.72	31.487
702.04	33.523
702.36	26.062
702.68	28.045
703.00	26.870
703.32	25.798
703.64	28.150
703.96	27.298
704.28	30.233
704.60	27.566
704.91	32.344
705.23	29.912
705.55	29.568
705.87	35.548
706.19	27.915
706.51	32.710
706.83	32.424
707.15	28.852
707.47	28.788
707.79	25.553
708.11	28.311
708.43	26.667
708.74	26.020
709.06	27.532
709.38	28.609
709.70	31.395
710.02	30.861
710.34	29.394
710.66	31.642
710.98	29.830
711.29	31.395
711.61	30.973
711.93	31.410
712.25	32.154
712.57	28.309
712.89	30.796
713.20	31.915
713.52	31.908
713.84	29.747
714.16	29.573
714.48	28.736
714.80	32.219
715.11	27.089
715.43	27.003
715.75	29.855
716.07	28.754
716.39	32.915
716.70	35.548
717.02	31.295
717.34	33.569
717.66	33.955
717.97	37.450
718.29	35.185
718.61	32.117
718.93	34.191
719.24	32.526
719.56	31.525
719.88	30.508
720.20	32.432
720.51	31.010
720.83	35.688
721.15	31.716
721.46	30.142
721.78	33.333
722.10	32.453
722.42	31.579
722.73	33.333
723.05	31.967
723.37	33.603
723.68	33.205
724.00	37.805
724.32	35.081
724.63	31.301
724.95	32.636
725.27	35.223
725.58	41.016
725.90	36.496
726.22	33.962
726.53	31.597
726.85	34.130
727.16	32.740
727.48	35.106
727.80	32.955
728.11	33.333
728.43	33.846
728.74	33.692
729.06	36.496
729.38	37.500
729.69	33.808
730.01	34.812
730.32	29.514
730.64	32.107
730.96	30.033
731.27	35.430
731.59	30.581
731.90	28.280
732.22	30.745
732.53	30.650
732.85	30.128
733.16	32.154
733.48	30.565
733.80	33.117
734.11	31.847
734.43	29.290
734.74	25.714
735.06	26.934
735.37	34.104
735.69	31.847
736.00	33.333
736.32	28.660
736.63	29.073
736.95	30.671
737.26	24.830
737.58	27.419
737.89	31.438
738.21	35.495
738.52	30.357
738.83	30.189
739.15	33.846
739.46	37.956
739.78	31.597
740.09	32.615
740.41	30.323
740.72	31.359
741.04	33.333
741.35	32.917
741.66	41.333
741.98	38.679
742.29	41.148
742.61	43.103
742.92	36.652
743.23	33.333
743.55	39.600
743.86	33.772
744.18	41.150
744.49	39.234
744.80	37.559
745.12	44.091
745.43	37.445
745.74	36.937
746.06	37.615
746.37	39.910
746.68	40.724
747.00	37.963
747.31	40.952
747.62	33.186
747.94	35.242
748.25	34.043
748.56	37.885
748.88	32.673
749.19	41.500
749.50	33.488
749.82	35.366
750.13	30.612
750.44	31.752
750.75	31.228
751.07	34.405
751.38	34.146
751.69	36.101
752.01	35.338
752.32	31.047
752.63	35.106
752.94	31.557
753.26	36.000
753.57	32.520
753.88	38.281
754.19	32.500
754.51	36.111
754.82	31.408
755.13	31.698
755.44	34.962
755.75	28.467
756.07	32.979
756.38	32.117
756.69	31.879
757.00	30.240
757.31	30.861
757.63	32.749
757.94	27.078
758.25	28.431
758.56	26.914
758.87	27.957
759.18	30.000
759.50	31.661
759.81	29.907
760.12	27.500
760.43	30.659
760.74	28.533
761.05	31.356
761.36	29.947
761.67	31.250
761.99	29.503
762.30	33.333
762.61	33.969
762.92	38.281
763.23	33.613
763.54	38.800
763.85	32.422
764.16	36.923
764.47	33.080
764.78	30.742
765.10	31.646
765.41	29.794
765.72	26.647
766.03	28.213
766.34	28.333
766.65	35.319
766.96	35.470
767.27	43.147
767.58	39.062
767.89	44.211
768.20	44.828
768.51	41.117
768.82	38.532
769.13	34.146
769.44	30.364
769.75	35.193
770.06	29.817
770.37	39.367
770.68	35.185
770.99	36.889
771.30	29.098
771.61	35.874
771.92	33.197
772.23	39.496
772.54	38.974
772.85	42.932
773.16	43.617
773.47	41.848
773.78	44.162
774.09	47.024
774.39	42.105
774.70	45.679
775.01	52.174
775.32	52.941
775.63	49.342
775.94	49.640
776.25	56.693
776.56	53.731
776.87	45.902
777.18	55.469
777.48	63.359
777.79	48.485
778.10	50.370
778.41	50.000
778.72	48.905
779.03	50.336
779.34	39.597
779.65	43.919
779.95	46.012
780.26	61.438
780.57	59.310
780.88	56.250
781.19	57.143
781.50	57.432
781.80	43.396
782.11	41.243
782.42	48.101
782.73	34.969
783.04	50.676
783.34	50.000
783.65	58.904
783.96	55.224
784.27	48.252
784.57	49.640
784.88	47.222
785.19	62.698
785.50	66.038
785.81	55.970
786.11	54.918
786.42	56.589
786.73	60.177
787.04	58.491
787.34	58.036
787.65	64.000
787.96	54.955
788.26	60.331
788.57	58.475
788.88	65.289
789.19	57.639
789.49	54.545
789.80	56.489
790.11	64.762
790.41	68.317
790.72	73.494
791.03	63.043
791.33	69.767
791.64	65.979
791.95	68.317
792.25	75.556
792.56	83.117
792.87	83.333
793.17	96.203
793.48	72.414
793.79	75.862
794.09	68.182
794.40	53.782
794.70	59.559
795.01	48.889
795.32	50.360
795.62	51.181
795.93	52.586
796.23	53.097
796.54	71.765
796.85	81.081
797.15	76.056
797.46	80.303
797.76	90.361
798.07	83.544
798.37	80.000
798.68	90.909
798.99	88.732
799.29	79.221
799.60	68.182
799.90	101.370
800.21	98.507
800.51	98.276
800.82	108.772
801.12	103.279
801.43	90.909
801.73	74.324
802.04	92.063
802.34	79.012
802.65	87.500
802.95	101.695
803.26	106.250
803.56	87.143
803.87	78.462
804.17	104.412
804.48	118.519
804.78	100.000
805.09	92.647
805.39	90.385
805.70	105.357
806.00	108.197
806.30	81.818
806.61	91.463
806.91	78.481
807.22	80.263
807.52	83.582
807.83	97.183
808.13	95.312
808.43	88.333
808.74	71.053
809.04	89.855
809.35	89.552
809.65	89.474
809.95	101.613
810.26	101.695
810.56	96.825
810.86	122.727
811.17	133.333
811.47	116.667
811.77	100.000
812.08	107.273
812.38	120.000
812.69	150.000
812.99	143.182
813.29	130.612
813.59	111.905
813.90	136.735
814.20	81.818
814.50	75.385
814.81	100.000
815.11	106.122
815.41	114.754
815.72	130.952
816.02	105.455
816.32	140.476
816.62	130.000
816.93	109.756
817.23	123.810
817.53	125.000
817.84	169.697
818.14	123.913
818.44	122.222
818.74	152.941
819.04	147.500
819.35	162.857
819.65	144.118
819.95	192.857
820.25	210.000
820.56	148.718
820.86	129.545
821.16	134.884
821.46	156.410
821.76	144.000
822.07	160.000
822.37	167.500
822.67	184.848
822.97	127.451
823.27	182.143
823.57	148.649
823.88	140.000
824.18	193.333
824.48	161.905
824.78	212.000
825.08	200.000
825.38	178.378
825.69	143.902
825.99	241.667
826.29	158.621
826.59	144.737
826.89	144.737
827.19	155.882
827.49	187.097
827.79	145.455
828.09	115.909
828.39	138.298
828.70	114.286
829.00	170.370
829.30	164.516
829.60	132.500
829.90	226.667
830.20	182.143
830.50	200.000
830.80	186.957
831.10	176.667
831.40	146.667
831.70	200.000
832.00	246.154
832.30	148.148
832.60	306.250
832.90	220.000
833.20	400.000
833.50	200.000
833.80	203.448
834.10	184.375
834.40	203.846
834.70	250.000
835.00	333.333
835.30	180.000
835.60	353.846
835.90	213.793
836.20	328.571
836.50	196.552
836.80	224.000
837.10	183.333
837.40	238.095
837.70	264.706
838.00	207.407
838.30	233.333
838.60	247.619
838.90	242.308
839.19	240.000
839.49	371.429
839.79	275.000
840.09	230.000
840.39	261.905
840.69	221.739
840.99	322.222
841.29	480.000
841.59	266.667
841.88	312.500
842.18	141.379
842.48	280.952
842.78	176.667
843.08	213.043
843.38	159.375
843.68	800.000
843.97	219.231
844.27	189.655
844.57	290.476
844.87	381.250
845.17	192.593
845.47	966.667
845.76	466.667
846.06	341.176
846.36	562.500
846.66	350.000
846.96	350.000
847.25	427.273
847.55	409.091
847.85	247.826
848.15	390.000
848.44	378.571
848.74	233.333
849.04	270.588
849.34	510.000
849.63	252.632
849.93	490.909
850.23	960.000
850.53	471.429
850.82	2550.000
851.12	-3000.000
851.42	4600.000
851.71	295.000
852.01	-1466.667
852.31	245.833
852.61	1566.667
852.90	238.095
853.20	232.000
853.50	288.235
853.79	242.857
854.09	179.167
854.39	293.750
854.68	162.162
854.98	164.516
855.28	180.000
855.57	220.690
855.87	225.926
856.17	226.316
856.46	293.333
856.76	276.471
857.05	217.241
857.35	237.500
857.65	353.333
857.94	252.174
858.24	219.231
858.53	320.000
858.83	222.727
859.13	346.667
859.42	0.000
859.72	555.556
860.01	418.182
860.31	222.727
860.60	300.000
860.90	200.000
861.20	544.444
861.49	508.333
861.79	-3600.000
862.08	612.500
862.38	276.190
862.67	292.308
862.97	370.588
863.26	477.778
863.56	294.444
863.85	433.333
864.15	637.500
864.44	393.333
864.74	750.000
865.03	700.000
865.33	284.211
865.62	418.182
865.92	423.077
866.21	358.333
866.51	0.000
866.80	400.000
867.10	960.000
867.39	500.000
867.69	463.636
867.98	257.895
868.27	454.545
868.57	315.789
868.86	-4900.000
869.16	318.750
869.45	2650.000
869.75	-3300.000
870.04	358.333
870.33	800.000
870.63	1100.000
870.92	2650.000
871.22	685.714
871.51	352.941
871.80	233.333
872.10	392.857
>>>>>End Processed Spectral Data<<<<<
