SpectraSuite Data File
++++++++++++++++++++++++++++++++++++
Date: Wed May 13 19:30:29 PDT 2015
User: schluterlab
Dark Spectrum Present: Yes
Reference Spectrum Present: Yes
Number of Sampled Component Spectra: 1
Spectrometers: USB2E3373
Integration Time (usec): 3000 (USB2E3373)
Spectra Averaged: 3 (USB2E3373)
Boxcar Smoothing: 0 (USB2E3373)
Correct for Electrical Dark: No (USB2E3373)
Strobe/Lamp Enabled: No (USB2E3373)
Correct for Detector Non-linearity: No (USB2E3373)
Correct for Stray Light: No (USB2E3373)
Number of Pixels in Processed Spectrum: 2048
>>>>>Begin Processed Spectral Data<<<<<
178.53	0.000
178.91	-1400.000
179.29	-1350.000
179.67	-250.000
180.04	-1275.000
180.42	2550.000
180.80	1040.000
181.18	-1150.000
181.56	785.714
181.94	0.000
182.31	-657.143
182.69	1700.000
183.07	-700.000
183.45	-577.778
183.83	536.364
184.20	-400.000
184.58	2550.000
184.96	6400.000
185.34	-800.000
185.72	-512.500
186.09	-2400.000
186.47	2700.000
186.85	2300.000
187.23	5700.000
187.61	-1833.333
187.98	1200.000
188.36	663.636
188.74	618.182
189.12	-880.000
189.49	560.000
189.87	-5300.000
190.25	-1350.000
190.63	378.571
191.00	484.615
191.38	933.333
191.76	-1400.000
192.14	1275.000
192.51	775.000
192.89	966.667
193.27	675.000
193.65	-1275.000
194.02	560.000
194.40	1120.000
194.78	550.000
195.15	566.667
195.53	600.000
195.91	-2100.000
196.29	356.250
196.66	278.947
197.04	-300.000
197.42	0.000
197.79	660.000
198.17	-4800.000
198.55	814.286
198.92	675.000
199.30	1000.000
199.68	0.000
200.05	405.556
200.43	771.429
200.81	4800.000
201.18	1666.667
201.56	-1666.667
201.94	522.222
202.31	666.667
202.69	441.667
203.07	630.000
203.44	0.000
203.82	1150.000
204.19	842.857
204.57	471.429
204.95	562.500
205.32	1533.333
205.70	481.818
206.08	378.571
206.45	3000.000
206.83	393.750
207.20	950.000
207.58	860.000
207.96	344.444
208.33	662.500
208.71	-783.333
209.08	828.571
209.46	700.000
209.84	509.091
210.21	-1733.333
210.59	1475.000
210.96	-462.500
211.34	2750.000
211.71	620.000
212.09	850.000
212.46	0.000
212.84	1833.333
213.22	1500.000
213.59	-4900.000
213.97	1000.000
214.34	771.429
214.72	590.909
215.09	1140.000
215.47	-2250.000
215.84	-2900.000
216.22	1833.333
216.59	450.000
216.97	1350.000
217.34	527.273
217.72	-733.333
218.09	0.000
218.47	-5400.000
218.84	655.556
219.22	742.857
219.59	1600.000
219.97	-700.000
220.34	920.000
220.72	-2200.000
221.09	421.429
221.47	1550.000
221.84	-966.667
222.22	0.000
222.59	1400.000
222.97	-3050.000
223.34	1160.000
223.72	438.462
224.09	1120.000
224.46	2250.000
224.84	-5600.000
225.21	-960.000
225.59	-5200.000
225.96	580.000
226.34	345.000
226.71	3000.000
227.08	637.500
227.46	570.000
227.83	-1300.000
228.21	-2450.000
228.58	688.889
228.95	-2750.000
229.33	-2750.000
229.70	1766.667
230.08	785.714
230.45	-880.000
230.82	433.333
231.20	866.667
231.57	771.429
231.95	508.333
232.32	231.818
232.69	518.182
233.07	728.571
233.44	446.154
233.81	-1700.000
234.19	357.895
234.56	450.000
234.93	441.667
235.31	418.182
235.68	361.538
236.05	450.000
236.43	175.758
236.80	278.947
237.17	5100.000
237.55	266.667
237.92	228.571
238.29	261.905
238.67	196.774
239.04	258.621
239.41	180.556
239.79	117.391
240.16	154.762
240.53	118.182
240.91	129.412
241.28	128.000
241.65	134.000
242.02	111.594
242.40	106.452
242.77	120.000
243.14	88.172
243.51	83.146
243.89	78.824
244.26	66.667
244.63	74.194
245.00	72.340
245.38	71.287
245.75	63.551
246.12	61.468
246.49	75.182
246.87	83.200
247.24	71.538
247.61	61.429
247.98	54.902
248.36	43.919
248.73	56.688
249.10	56.051
249.47	50.847
249.84	52.941
250.22	50.267
250.59	57.396
250.96	50.000
251.33	52.607
251.70	52.475
252.08	45.238
252.45	41.256
252.82	43.043
253.19	48.085
253.56	48.627
253.94	44.398
254.31	42.187
254.68	45.385
255.05	45.756
255.42	43.496
255.79	41.176
256.16	39.711
256.54	37.809
256.91	43.416
257.28	34.532
257.65	37.954
258.02	38.509
258.39	37.224
258.76	37.793
259.14	39.286
259.51	38.298
259.88	35.714
260.25	38.066
260.62	34.971
260.99	35.404
261.36	36.336
261.73	37.249
262.10	34.884
262.47	34.930
262.85	35.655
263.22	34.188
263.59	37.607
263.96	30.495
264.33	34.465
264.70	33.421
265.07	35.038
265.44	31.313
265.81	32.360
266.18	34.171
266.55	32.683
266.92	33.661
267.29	31.944
267.66	32.569
268.03	30.455
268.40	35.514
268.77	29.117
269.14	29.730
269.51	34.086
269.88	30.536
270.25	31.603
270.62	32.135
270.99	33.978
271.36	29.828
271.73	30.374
272.10	30.870
272.47	32.903
272.84	30.952
273.21	33.124
273.58	28.166
273.95	29.350
274.32	28.306
274.69	30.193
275.06	30.315
275.43	30.638
275.80	28.858
276.17	30.346
276.54	31.185
276.91	29.644
277.28	28.711
277.65	27.466
278.02	27.743
278.39	30.273
278.76	27.455
279.13	29.057
279.50	26.629
279.87	30.279
280.23	28.543
280.60	27.466
280.97	27.726
281.34	30.619
281.71	28.727
282.08	28.599
282.45	27.455
282.82	29.307
283.19	24.955
283.56	28.246
283.92	27.580
284.29	27.337
284.66	27.223
285.03	27.125
285.40	26.585
285.77	26.263
286.14	25.561
286.51	25.833
286.87	25.470
287.24	26.384
287.61	23.114
287.98	24.675
288.35	23.296
288.72	26.168
289.08	25.352
289.45	25.206
289.82	25.691
290.19	23.391
290.56	24.502
290.93	24.018
291.29	24.693
291.66	25.074
292.03	25.727
292.40	27.019
292.77	23.373
293.13	22.836
293.50	23.907
293.87	21.481
294.24	21.778
294.60	22.853
294.97	23.256
295.34	23.413
295.71	21.591
296.08	22.222
296.44	22.558
296.81	21.400
297.18	23.171
297.55	19.921
297.91	20.976
298.28	22.356
298.65	22.585
299.02	21.739
299.38	20.850
299.75	19.272
300.12	21.328
300.48	20.750
300.85	20.222
301.22	20.000
301.59	21.212
301.95	21.662
302.32	21.951
302.69	22.342
303.05	20.121
303.42	20.000
303.79	19.706
304.15	18.881
304.52	19.467
304.89	19.280
305.25	21.230
305.62	20.385
305.99	21.606
306.35	19.799
306.72	20.740
307.09	19.756
307.45	22.410
307.82	18.973
308.19	21.082
308.55	21.143
308.92	21.053
309.29	20.697
309.65	19.300
310.02	21.459
310.38	21.398
310.75	21.119
311.12	20.368
311.48	22.257
311.85	22.956
312.22	21.228
312.58	21.206
312.95	21.436
313.31	20.971
313.68	22.661
314.05	21.992
314.41	21.910
314.78	22.457
315.14	22.542
315.51	22.966
315.87	22.574
316.24	22.542
316.61	22.222
316.97	22.114
317.34	22.309
317.70	23.518
318.07	23.484
318.43	25.049
318.80	23.430
319.16	23.164
319.53	24.672
319.89	24.571
320.26	25.000
320.62	25.099
320.99	24.848
321.35	25.859
321.72	25.873
322.08	25.469
322.45	28.657
322.81	26.647
323.18	27.746
323.54	25.974
323.91	27.736
324.27	26.769
324.64	25.815
325.00	27.051
325.37	27.298
325.73	28.995
326.10	28.244
326.46	29.032
326.83	29.422
327.19	29.291
327.56	27.787
327.92	29.309
328.29	29.902
328.65	29.834
329.01	29.242
329.38	29.787
329.74	30.009
330.11	30.160
330.47	30.487
330.84	31.526
331.20	30.874
331.56	30.550
331.93	30.093
332.29	31.322
332.66	30.796
333.02	29.799
333.38	30.804
333.75	30.927
334.11	31.495
334.48	30.701
334.84	31.158
335.20	30.909
335.57	30.553
335.93	27.679
336.29	30.952
336.66	31.289
337.02	30.407
337.38	31.296
337.75	29.947
338.11	30.260
338.47	31.308
338.84	31.714
339.20	30.459
339.56	32.208
339.93	31.182
340.29	30.707
340.65	31.194
341.02	31.850
341.38	31.139
341.74	30.702
342.11	31.266
342.47	30.573
342.83	31.507
343.20	32.208
343.56	31.087
343.92	30.877
344.28	31.888
344.65	32.072
345.01	30.724
345.37	30.103
345.73	31.472
346.10	31.032
346.46	31.949
346.82	31.631
347.19	30.911
347.55	31.034
347.91	31.311
348.27	32.128
348.63	32.274
349.00	30.906
349.36	31.445
349.72	31.275
350.08	32.415
350.45	31.570
350.81	31.357
351.17	30.875
351.53	31.777
351.89	31.271
352.26	31.886
352.62	31.756
352.98	31.686
353.34	31.882
353.70	31.751
354.07	31.694
354.43	32.063
354.79	31.295
355.15	31.445
355.51	31.735
355.87	32.980
356.24	32.085
356.60	30.954
356.96	32.502
357.32	32.052
357.68	33.071
358.04	32.542
358.40	31.354
358.77	32.081
359.13	31.018
359.49	31.686
359.85	30.238
360.21	31.898
360.57	32.685
360.93	32.077
361.29	31.595
361.66	31.115
362.02	31.567
362.38	32.091
362.74	31.027
363.10	30.422
363.46	31.255
363.82	32.200
364.18	30.470
364.54	31.798
364.90	32.578
365.26	31.838
365.62	32.213
365.98	31.045
366.35	30.802
366.71	32.683
367.07	32.265
367.43	31.640
367.79	31.977
368.15	32.687
368.51	31.977
368.87	31.620
369.23	32.699
369.59	32.947
369.95	32.426
370.31	32.977
370.67	32.464
371.03	33.184
371.39	34.111
371.75	32.426
372.11	32.006
372.47	32.771
372.83	34.870
373.19	32.514
373.55	33.333
373.91	34.536
374.27	33.196
374.63	33.091
374.99	33.333
375.35	32.449
375.71	32.145
376.07	32.853
376.42	33.769
376.78	33.333
377.14	34.396
377.50	34.702
377.86	33.178
378.22	33.312
378.58	32.018
378.94	32.998
379.30	32.316
379.66	34.264
380.02	33.415
380.38	33.819
380.74	34.574
381.09	35.024
381.45	35.157
381.81	34.828
382.17	34.522
382.53	34.906
382.89	34.630
383.25	33.959
383.61	34.077
383.97	35.022
384.32	34.934
384.68	35.068
385.04	33.989
385.40	35.789
385.76	35.319
386.12	34.909
386.48	35.746
386.83	35.985
387.19	36.240
387.55	34.632
387.91	35.792
388.27	34.764
388.62	35.833
388.98	35.627
389.34	37.359
389.70	36.052
390.06	36.248
390.42	35.344
390.77	36.641
391.13	36.694
391.49	36.485
391.85	36.728
392.20	36.088
392.56	36.869
392.92	37.198
393.28	36.746
393.64	37.410
393.99	36.164
394.35	37.469
394.71	37.327
395.07	37.196
395.42	38.010
395.78	36.768
396.14	37.803
396.50	38.471
396.85	38.652
397.21	38.594
397.57	38.686
397.92	38.462
398.28	37.556
398.64	38.769
399.00	38.836
399.35	37.394
399.71	37.616
400.07	38.557
400.42	38.834
400.78	38.721
401.14	38.598
401.49	39.701
401.85	39.625
402.21	39.042
402.57	39.605
402.92	39.344
403.28	40.475
403.63	40.037
403.99	39.873
404.35	40.182
404.70	39.988
405.06	39.720
405.42	40.424
405.77	39.771
406.13	40.124
406.49	40.272
406.84	40.579
407.20	40.307
407.55	40.779
407.91	41.533
408.27	41.289
408.62	40.578
408.98	41.238
409.34	41.759
409.69	42.839
410.05	41.450
410.40	43.058
410.76	42.593
411.11	42.220
411.47	41.534
411.83	42.944
412.18	41.064
412.54	42.715
412.89	41.325
413.25	42.503
413.60	43.360
413.96	42.623
414.31	43.074
414.67	43.790
415.03	44.570
415.38	43.621
415.74	43.408
416.09	43.762
416.45	44.311
416.80	43.225
417.16	45.442
417.51	43.995
417.87	43.738
418.22	43.407
418.58	44.868
418.93	44.042
419.29	45.130
419.64	44.458
420.00	43.902
420.35	44.928
420.71	44.471
421.06	44.093
421.42	45.380
421.77	45.067
422.12	44.694
422.48	43.875
422.83	45.486
423.19	45.304
423.54	44.806
423.90	45.043
424.25	45.003
424.61	44.226
424.96	45.364
425.31	44.020
425.67	43.989
426.02	44.743
426.38	46.764
426.73	45.758
427.09	45.410
427.44	44.911
427.79	45.083
428.15	45.060
428.50	45.699
428.85	46.126
429.21	44.782
429.56	45.205
429.92	44.892
430.27	45.283
430.62	43.984
430.98	44.577
431.33	44.639
431.68	45.550
432.04	44.675
432.39	46.716
432.74	46.080
433.10	47.085
433.45	46.997
433.80	45.621
434.16	45.406
434.51	45.526
434.86	45.952
435.22	46.359
435.57	44.802
435.92	46.109
436.28	46.501
436.63	46.302
436.98	46.823
437.34	46.810
437.69	46.733
438.04	46.093
438.39	47.104
438.75	47.414
439.10	47.039
439.45	46.576
439.81	47.613
440.16	45.285
440.51	47.686
440.86	47.829
441.22	47.052
441.57	47.187
441.92	47.339
442.27	46.932
442.63	45.445
442.98	46.704
443.33	45.815
443.68	47.186
444.03	45.876
444.39	46.397
444.74	46.429
445.09	47.062
445.44	46.747
445.79	46.066
446.15	46.056
446.50	46.419
446.85	45.889
447.20	46.354
447.55	47.515
447.91	46.773
448.26	46.800
448.61	46.806
448.96	47.730
449.31	46.907
449.66	46.708
450.02	46.685
450.37	47.052
450.72	46.644
451.07	47.532
451.42	46.809
451.77	47.270
452.12	47.517
452.47	47.264
452.83	47.436
453.18	47.311
453.53	47.186
453.88	48.021
454.23	47.280
454.58	48.213
454.93	48.824
455.28	47.257
455.63	48.119
455.98	48.155
456.34	48.241
456.69	48.842
457.04	47.678
457.39	47.516
457.74	48.114
458.09	46.636
458.44	48.290
458.79	46.150
459.14	48.251
459.49	48.336
459.84	48.587
460.19	47.908
460.54	45.833
460.89	46.846
461.24	47.845
461.59	48.751
461.94	47.719
462.29	47.834
462.64	47.096
462.99	47.625
463.34	48.667
463.69	46.467
464.04	48.290
464.39	47.304
464.74	47.059
465.09	48.070
465.44	46.870
465.79	47.204
466.14	46.853
466.49	46.774
466.84	47.285
467.19	47.858
467.54	48.125
467.89	46.879
468.24	47.644
468.59	47.680
468.94	47.343
469.29	48.779
469.64	47.858
469.99	49.256
470.34	49.075
470.68	48.348
471.03	47.755
471.38	48.367
471.73	48.701
472.08	48.684
472.43	48.430
472.78	48.585
473.13	47.946
473.48	47.940
473.83	47.317
474.17	48.475
474.52	48.201
474.87	47.694
475.22	47.591
475.57	46.749
475.92	47.053
476.27	47.294
476.61	47.325
476.96	47.883
477.31	45.945
477.66	48.085
478.01	46.210
478.36	46.801
478.70	46.729
479.05	46.219
479.40	46.981
479.75	47.585
480.10	47.813
480.45	47.073
480.79	46.632
481.14	47.065
481.49	46.939
481.84	45.999
482.19	47.115
482.53	45.963
482.88	46.161
483.23	46.449
483.58	47.134
483.92	47.142
484.27	46.013
484.62	45.474
484.97	44.896
485.31	46.267
485.66	44.469
486.01	43.331
486.36	41.798
486.70	40.831
487.05	41.971
487.40	42.722
487.75	42.963
488.09	43.342
488.44	43.896
488.79	45.750
489.13	45.722
489.48	46.085
489.83	44.756
490.17	46.383
490.52	46.457
490.87	46.540
491.22	46.658
491.56	45.330
491.91	46.394
492.26	45.935
492.60	45.945
492.95	46.024
493.30	45.841
493.64	46.850
493.99	45.543
494.34	46.207
494.68	46.932
495.03	46.382
495.37	45.510
495.72	46.735
496.07	47.378
496.41	45.133
496.76	46.262
497.11	45.835
497.45	45.925
497.80	45.345
498.14	45.942
498.49	45.756
498.84	45.542
499.18	46.048
499.53	45.726
499.87	46.179
500.22	45.690
500.56	46.456
500.91	45.962
501.26	45.661
501.60	46.512
501.95	44.821
502.29	47.095
502.64	45.950
502.98	45.442
503.33	45.430
503.67	45.893
504.02	46.024
504.36	45.765
504.71	45.628
505.06	45.157
505.40	45.649
505.75	45.323
506.09	45.092
506.44	46.423
506.78	45.494
507.13	46.845
507.47	46.061
507.82	45.745
508.16	46.099
508.51	46.575
508.85	45.978
509.19	46.173
509.54	46.480
509.88	45.286
510.23	46.478
510.57	47.420
510.92	46.919
511.26	45.375
511.61	45.643
511.95	44.990
512.30	46.182
512.64	46.265
512.98	45.927
513.33	45.931
513.67	46.958
514.02	45.076
514.36	46.860
514.70	46.320
515.05	45.956
515.39	46.551
515.74	46.565
516.08	46.451
516.42	45.893
516.77	47.492
517.11	45.505
517.46	45.598
517.80	46.632
518.14	45.570
518.49	45.624
518.83	46.136
519.17	46.709
519.52	46.406
519.86	45.921
520.20	46.936
520.55	46.858
520.89	47.324
521.23	47.226
521.58	46.038
521.92	45.560
522.26	45.943
522.61	47.103
522.95	46.532
523.29	47.596
523.64	46.463
523.98	45.410
524.32	46.019
524.66	46.061
525.01	46.201
525.35	46.964
525.69	46.121
526.04	46.480
526.38	46.309
526.72	45.644
527.06	46.202
527.41	45.050
527.75	46.688
528.09	47.335
528.43	46.463
528.78	46.650
529.12	45.636
529.46	45.989
529.80	46.101
530.15	46.916
530.49	45.108
530.83	47.342
531.17	48.564
531.51	47.730
531.86	46.258
532.20	47.458
532.54	47.149
532.88	45.956
533.22	45.659
533.57	45.062
533.91	44.311
534.25	44.775
534.59	44.783
534.93	45.568
535.27	45.444
535.62	44.444
535.96	45.825
536.30	44.692
536.64	44.495
536.98	45.388
537.32	45.095
537.66	45.733
538.01	45.425
538.35	46.606
538.69	46.203
539.03	45.809
539.37	43.962
539.71	44.718
540.05	45.752
540.39	45.781
540.73	44.696
541.07	45.750
541.42	44.814
541.76	46.323
542.10	44.825
542.44	45.166
542.78	45.191
543.12	44.594
543.46	45.180
543.80	44.437
544.14	44.737
544.48	45.016
544.82	45.029
545.16	45.934
545.50	43.509
545.84	44.355
546.18	43.098
546.52	45.217
546.86	45.498
547.20	46.123
547.54	43.287
547.88	44.388
548.22	43.587
548.56	44.906
548.90	43.662
549.24	43.636
549.58	43.656
549.92	44.712
550.26	44.744
550.60	42.669
550.94	43.732
551.28	42.648
551.62	43.853
551.96	43.860
552.30	43.345
552.64	43.002
552.98	43.864
553.32	44.370
553.66	45.194
554.00	43.445
554.34	43.478
554.68	45.207
555.02	44.006
555.36	43.006
555.69	42.490
556.03	42.396
556.37	42.769
556.71	43.042
557.05	43.557
557.39	42.057
557.73	42.908
558.07	44.235
558.41	43.994
558.75	43.277
559.08	43.475
559.42	44.218
559.76	43.750
560.10	43.683
560.44	42.348
560.78	41.450
561.12	42.810
561.45	43.872
561.79	42.057
562.13	42.857
562.47	43.169
562.81	42.608
563.15	41.873
563.48	41.976
563.82	42.466
564.16	42.250
564.50	41.602
564.84	41.340
565.17	41.763
565.51	41.534
565.85	40.102
566.19	39.637
566.52	41.799
566.86	41.230
567.20	41.745
567.54	40.639
567.88	39.381
568.21	41.111
568.55	39.990
568.89	40.175
569.23	38.503
569.56	37.247
569.90	38.000
570.24	36.850
570.57	36.416
570.91	35.197
571.25	35.578
571.59	35.906
571.92	35.916
572.26	35.962
572.60	35.706
572.93	35.622
573.27	35.936
573.61	35.902
573.95	35.323
574.28	34.849
574.62	34.427
574.96	34.432
575.29	33.948
575.63	34.426
575.97	33.819
576.30	34.705
576.64	33.889
576.98	34.127
577.31	34.150
577.65	33.941
577.98	34.077
578.32	33.499
578.66	33.187
578.99	34.079
579.33	33.672
579.67	33.666
580.00	33.781
580.34	33.555
580.67	33.633
581.01	33.213
581.35	34.076
581.68	32.974
582.02	32.937
582.35	33.110
582.69	33.295
583.02	33.145
583.36	33.779
583.70	33.966
584.03	32.889
584.37	33.412
584.70	33.359
585.04	33.293
585.37	33.271
585.71	33.341
586.04	33.704
586.38	33.595
586.72	33.554
587.05	32.953
587.39	33.456
587.72	33.058
588.06	33.164
588.39	32.702
588.73	33.001
589.06	34.092
589.40	34.074
589.73	33.861
590.07	33.559
590.40	34.381
590.73	34.426
591.07	35.043
591.40	34.795
591.74	35.455
592.07	33.944
592.41	35.138
592.74	34.419
593.08	33.777
593.41	33.312
593.75	32.605
594.08	33.389
594.41	34.111
594.75	33.309
595.08	33.107
595.42	32.609
595.75	33.298
596.09	34.360
596.42	33.870
596.75	33.643
597.09	35.022
597.42	33.769
597.75	33.333
598.09	33.435
598.42	33.720
598.76	32.874
599.09	33.333
599.42	32.096
599.76	32.943
600.09	32.605
600.42	32.286
600.76	32.536
601.09	32.532
601.42	32.725
601.76	33.245
602.09	32.451
602.42	32.922
602.76	34.180
603.09	33.556
603.42	33.190
603.76	33.346
604.09	32.416
604.42	32.328
604.76	33.361
605.09	33.814
605.42	33.262
605.75	33.195
606.09	32.615
606.42	33.306
606.75	32.891
607.09	32.357
607.42	33.077
607.75	32.658
608.08	32.827
608.42	32.900
608.75	33.003
609.08	32.100
609.41	33.270
609.75	32.825
610.08	33.742
610.41	33.054
610.74	33.302
611.07	33.844
611.41	32.875
611.74	34.087
612.07	33.540
612.40	33.526
612.73	33.684
613.07	34.321
613.40	33.544
613.73	32.459
614.06	33.280
614.39	33.193
614.72	32.526
615.06	32.668
615.39	32.484
615.72	32.566
616.05	32.323
616.38	32.574
616.71	33.432
617.05	33.922
617.38	35.238
617.71	33.574
618.04	33.293
618.37	33.885
618.70	33.603
619.03	34.474
619.36	33.944
619.69	34.507
620.03	35.302
620.36	33.824
620.69	34.041
621.02	35.029
621.35	34.847
621.68	35.592
622.01	35.449
622.34	35.930
622.67	35.361
623.00	33.456
623.33	33.810
623.66	34.310
623.99	34.389
624.32	34.379
624.65	33.616
624.99	33.711
625.32	34.251
625.65	34.786
625.98	35.281
626.31	36.003
626.64	34.449
626.97	36.243
627.30	34.331
627.63	35.357
627.96	35.408
628.29	35.083
628.62	36.780
628.95	37.453
629.28	35.310
629.61	36.939
629.94	36.667
630.26	36.225
630.59	36.606
630.92	36.782
631.25	37.019
631.58	36.837
631.91	36.815
632.24	37.553
632.57	36.516
632.90	37.171
633.23	38.479
633.56	38.531
633.89	38.279
634.22	35.868
634.55	36.923
634.88	36.287
635.20	37.993
635.53	38.795
635.86	38.119
636.19	38.941
636.52	36.909
636.85	36.884
637.18	36.290
637.51	37.234
637.83	34.525
638.16	39.898
638.49	37.154
638.82	39.444
639.15	37.250
639.48	38.279
639.81	38.472
640.13	39.974
640.46	36.107
640.79	38.705
641.12	36.039
641.45	38.408
641.77	40.648
642.10	39.766
642.43	39.790
642.76	40.093
643.09	38.190
643.41	39.150
643.74	40.895
644.07	39.024
644.40	41.411
644.73	42.677
645.05	41.838
645.38	39.652
645.71	41.546
646.04	40.532
646.36	42.905
646.69	41.472
647.02	40.646
647.35	42.096
647.67	42.301
648.00	39.837
648.33	39.274
648.66	37.121
648.98	37.781
649.31	38.266
649.64	38.864
649.96	37.556
650.29	39.810
650.62	36.893
650.94	41.329
651.27	42.230
651.60	40.100
651.92	38.179
652.25	36.645
652.58	38.629
652.90	39.968
653.23	37.288
653.56	39.055
653.88	39.620
654.21	39.968
654.54	37.954
654.86	38.006
655.19	35.135
655.52	25.105
655.84	21.663
656.17	28.258
656.49	37.709
656.82	37.846
657.15	28.375
657.47	20.859
657.80	15.794
658.13	16.426
658.45	23.898
658.78	24.423
659.10	25.925
659.43	27.332
659.75	29.209
660.08	32.658
660.41	37.058
660.73	37.611
661.06	37.580
661.38	42.909
661.71	40.962
662.03	41.815
662.36	36.978
662.68	40.161
663.01	42.020
663.33	41.401
663.66	41.807
663.98	40.173
664.31	41.597
664.63	40.081
664.96	38.229
665.28	39.139
665.61	38.596
665.93	38.028
666.26	39.148
666.58	41.004
666.91	41.649
667.23	44.270
667.56	41.469
667.88	39.744
668.21	43.070
668.53	42.516
668.86	38.961
669.18	44.136
669.50	41.304
669.83	42.266
670.15	38.889
670.48	42.266
670.80	40.733
671.13	39.278
671.45	40.426
671.77	40.937
672.10	37.893
672.42	36.042
672.75	37.479
673.07	37.852
673.39	34.177
673.72	37.891
674.04	39.804
674.37	38.252
674.69	36.401
675.01	36.611
675.34	42.710
675.66	42.105
675.98	38.900
676.31	39.076
676.63	41.189
676.95	39.203
677.28	41.355
677.60	40.659
677.92	39.873
678.25	40.246
678.57	39.243
678.89	38.677
679.22	39.489
679.54	35.115
679.86	38.349
680.18	38.462
680.51	35.638
680.83	37.544
681.15	37.358
681.48	39.698
681.80	38.878
682.12	35.824
682.44	37.911
682.77	37.882
683.09	40.773
683.41	39.911
683.73	39.956
684.06	40.496
684.38	38.356
684.70	37.984
685.02	38.837
685.34	35.531
685.67	33.392
685.99	33.505
686.31	34.471
686.63	34.276
686.96	34.464
687.28	35.560
687.60	33.333
687.92	36.746
688.24	35.932
688.56	36.747
688.89	39.627
689.21	38.210
689.53	36.117
689.85	39.246
690.17	38.095
690.49	36.730
690.82	40.187
691.14	38.170
691.46	34.810
691.78	35.944
692.10	36.777
692.42	36.327
692.74	35.477
693.06	36.383
693.39	36.961
693.71	38.210
694.03	36.000
694.35	37.662
694.67	36.384
694.99	39.024
695.31	40.931
695.63	37.081
695.95	38.875
696.27	38.832
696.59	40.155
696.91	37.306
697.23	37.559
697.56	37.527
697.88	33.129
698.20	36.042
698.52	36.129
698.84	35.412
699.16	37.327
699.48	36.817
699.80	37.681
700.12	41.299
700.44	40.584
700.76	44.475
701.08	43.391
701.40	38.547
701.72	46.647
702.04	44.602
702.36	39.660
702.68	40.793
703.00	40.720
703.32	38.564
703.64	37.802
703.96	41.226
704.28	43.895
704.60	39.589
704.91	43.917
705.23	39.003
705.55	41.528
705.87	47.841
706.19	42.756
706.51	38.941
706.83	43.030
707.15	41.457
707.47	37.121
707.79	40.786
708.11	37.671
708.43	37.381
708.74	35.459
709.06	42.857
709.38	37.795
709.70	39.244
710.02	39.763
710.34	39.697
710.66	43.284
710.98	41.761
711.29	38.372
711.61	43.658
711.93	41.026
712.25	45.981
712.57	48.162
712.89	47.405
713.20	41.337
713.52	41.118
713.84	40.823
714.16	41.768
714.48	41.954
714.80	46.809
715.11	42.363
715.43	37.982
715.75	41.159
716.07	41.214
716.39	39.185
716.70	45.515
717.02	42.446
717.34	40.989
717.66	45.896
717.97	46.215
718.29	41.481
718.61	44.891
718.93	43.750
719.24	42.215
719.56	40.000
719.88	40.678
720.20	46.284
720.51	44.948
720.83	44.238
721.15	42.537
721.46	41.135
721.78	45.878
722.10	45.660
722.42	53.008
722.73	43.446
723.05	42.213
723.37	48.178
723.68	49.421
724.00	46.748
724.32	46.774
724.63	45.528
724.95	46.444
725.27	46.559
725.58	43.359
725.90	45.255
726.22	44.906
726.53	41.667
726.85	41.638
727.16	42.705
727.48	37.943
727.80	45.833
728.11	39.493
728.43	43.077
728.74	44.803
729.06	43.431
729.38	45.221
729.69	41.281
730.01	43.003
730.32	38.889
730.64	38.796
730.96	39.604
731.27	40.397
731.59	40.979
731.90	36.735
732.22	39.441
732.53	37.152
732.85	43.590
733.16	35.691
733.48	44.850
733.80	42.208
734.11	36.624
734.43	36.095
734.74	33.714
735.06	34.670
735.37	40.462
735.69	35.032
736.00	40.523
736.32	40.810
736.63	37.380
736.95	39.617
737.26	34.354
737.58	38.387
737.89	39.799
738.21	46.075
738.52	42.143
738.83	41.509
739.15	41.923
739.46	40.146
739.78	40.625
740.09	35.692
740.41	39.355
740.72	40.070
741.04	43.704
741.35	46.250
741.66	46.222
741.98	43.396
742.29	46.890
742.61	50.862
742.92	45.249
743.23	44.444
743.55	44.800
743.86	43.860
744.18	49.115
744.49	44.498
744.80	52.582
745.12	46.364
745.43	45.815
745.74	45.946
746.06	46.789
746.37	48.430
746.68	48.416
747.00	47.685
747.31	49.524
747.62	44.248
747.94	44.493
748.25	40.851
748.56	45.374
748.88	46.040
749.19	54.500
749.50	51.163
749.82	47.154
750.13	42.449
750.44	37.956
750.75	40.000
751.07	43.087
751.38	39.721
751.69	39.711
752.01	42.481
752.32	41.155
752.63	39.362
752.94	42.623
753.26	48.800
753.57	42.276
753.88	45.312
754.19	43.214
754.51	45.139
754.82	39.350
755.13	44.151
755.44	38.722
755.75	40.146
756.07	42.553
756.38	41.606
756.69	37.919
757.00	34.431
757.31	39.763
757.63	35.673
757.94	34.316
758.25	31.373
758.56	30.617
758.87	33.871
759.18	35.152
759.50	36.991
759.81	36.760
760.12	34.062
760.43	35.530
760.74	34.783
761.05	33.898
761.36	32.086
761.67	37.216
761.99	33.230
762.30	37.847
762.61	37.023
762.92	41.797
763.23	44.118
763.54	42.400
763.85	41.406
764.16	43.462
764.47	41.445
764.78	34.982
765.10	33.544
765.41	35.103
765.72	35.928
766.03	36.991
766.34	36.000
766.65	43.404
766.96	46.154
767.27	48.223
767.58	45.833
767.89	50.000
768.20	50.000
768.51	52.284
768.82	45.872
769.13	40.650
769.44	38.866
769.75	45.064
770.06	34.862
770.37	41.176
770.68	48.148
770.99	44.444
771.30	36.885
771.61	43.498
771.92	45.492
772.23	48.739
772.54	47.692
772.85	52.880
773.16	47.340
773.47	51.630
773.78	51.269
774.09	44.643
774.39	53.801
774.70	47.531
775.01	60.145
775.32	57.516
775.63	55.263
775.94	53.957
776.25	57.480
776.56	61.194
776.87	63.115
777.18	64.844
777.48	63.359
777.79	66.667
778.10	54.815
778.41	64.286
778.72	45.985
779.03	63.087
779.34	49.664
779.65	51.351
779.95	47.853
780.26	60.131
780.57	62.759
780.88	71.094
781.19	57.895
781.50	61.486
781.80	55.975
782.11	46.893
782.42	46.203
782.73	53.374
783.04	56.757
783.34	56.338
783.65	55.479
783.96	61.940
784.27	58.042
784.57	53.237
784.88	66.667
785.19	67.460
785.50	64.151
785.81	67.910
786.11	74.590
786.42	67.442
786.73	62.832
787.04	72.642
787.34	66.964
787.65	69.000
787.96	65.766
788.26	59.504
788.57	72.881
788.88	74.380
789.19	61.806
789.49	69.697
789.80	65.649
790.11	78.095
790.41	90.099
790.72	75.904
791.03	78.261
791.33	73.256
791.64	68.041
791.95	72.277
792.25	93.333
792.56	81.818
792.87	93.590
793.17	92.405
793.48	75.862
793.79	78.161
794.09	87.500
794.40	65.546
794.70	61.765
795.01	51.111
795.32	57.554
795.62	59.843
795.93	64.655
796.23	68.142
796.54	81.176
796.85	94.595
797.15	90.141
797.46	95.455
797.76	87.952
798.07	75.949
798.37	90.769
798.68	93.939
798.99	83.099
799.29	77.922
799.60	69.318
799.90	108.219
800.21	110.448
800.51	100.000
800.82	98.246
801.12	100.000
801.43	92.424
801.73	74.324
802.04	128.571
802.34	91.358
802.65	98.437
802.95	110.169
803.26	101.563
803.56	95.714
803.87	101.538
804.17	114.706
804.48	109.259
804.78	98.276
805.09	101.471
805.39	105.769
805.70	107.143
806.00	100.000
806.30	86.364
806.61	78.049
806.91	88.608
807.22	81.579
807.52	83.582
807.83	97.183
808.13	90.625
808.43	103.333
808.74	75.000
809.04	102.899
809.35	111.940
809.65	82.895
809.95	117.742
810.26	106.780
810.56	109.524
810.86	150.000
811.17	145.238
811.47	113.333
811.77	105.556
812.08	114.545
812.38	152.000
812.69	180.556
812.99	165.909
813.29	126.531
813.59	104.762
813.90	134.694
814.20	110.909
814.50	101.538
814.81	111.765
815.11	118.367
815.41	113.115
815.72	176.190
816.02	105.455
816.32	123.810
816.62	145.000
816.93	151.220
817.23	154.762
817.53	134.091
817.84	187.879
818.14	134.783
818.44	151.111
818.74	182.353
819.04	147.500
819.35	148.571
819.65	164.706
819.95	196.429
820.25	245.000
820.56	171.795
820.86	150.000
821.16	151.163
821.46	141.026
821.76	138.000
822.07	185.714
822.37	147.500
822.67	209.091
822.97	127.451
823.27	232.143
823.57	170.270
823.88	175.000
824.18	220.000
824.48	157.143
824.78	232.000
825.08	195.833
825.38	164.865
825.69	151.220
825.99	241.667
826.29	179.310
826.59	192.105
826.89	142.105
827.19	200.000
827.49	206.452
827.79	136.364
828.09	163.636
828.39	123.404
828.70	138.776
829.00	177.778
829.30	187.097
829.60	132.500
829.90	306.667
830.20	192.857
830.50	217.391
830.80	239.130
831.10	216.667
831.40	176.667
831.70	226.087
832.00	246.154
832.30	207.407
832.60	362.500
832.90	213.333
833.20	407.143
833.50	170.968
833.80	217.241
834.10	193.750
834.40	265.385
834.70	355.556
835.00	323.810
835.30	185.714
835.60	353.846
835.90	231.034
836.20	335.714
836.50	227.586
836.80	204.000
837.10	191.667
837.40	319.048
837.70	300.000
838.00	237.037
838.30	228.571
838.60	290.476
838.90	246.154
839.19	295.000
839.49	457.143
839.79	365.000
840.09	305.000
840.39	295.238
840.69	273.913
840.99	272.222
841.29	580.000
841.59	333.333
841.88	343.750
842.18	220.690
842.48	257.143
842.78	216.667
843.08	256.522
843.38	190.625
843.68	1083.333
843.97	273.077
844.27	231.034
844.57	328.571
844.87	450.000
845.17	237.037
845.47	1666.667
845.76	477.778
846.06	317.647
846.36	625.000
846.66	435.714
846.96	343.750
847.25	454.545
847.55	472.727
847.85	273.913
848.15	560.000
848.44	392.857
848.74	272.222
849.04	294.118
849.34	610.000
849.63	273.684
849.93	472.727
850.23	1000.000
850.53	442.857
850.82	2800.000
851.12	-4300.000
851.42	4400.000
851.71	285.000
852.01	-1466.667
852.31	241.667
852.61	2133.333
852.90	271.429
853.20	252.000
853.50	335.294
853.79	290.476
854.09	291.667
854.39	368.750
854.68	194.595
854.98	187.097
855.28	160.000
855.57	203.448
855.87	218.519
856.17	231.579
856.46	280.000
856.76	335.294
857.05	206.897
857.35	216.667
857.65	333.333
857.94	269.565
858.24	261.538
858.53	315.000
858.83	272.727
859.13	426.667
859.42	0.000
859.72	644.444
860.01	336.364
860.31	263.636
860.60	278.947
860.90	213.043
861.20	644.444
861.49	500.000
861.79	-4800.000
862.08	787.500
862.38	266.667
862.67	346.154
862.97	417.647
863.26	477.778
863.56	305.556
863.85	483.333
864.15	675.000
864.44	413.333
864.74	950.000
865.03	750.000
865.33	278.947
865.62	418.182
865.92	476.923
866.21	441.667
866.51	0.000
866.80	454.545
867.10	1080.000
867.39	530.769
867.69	518.182
867.98	300.000
868.27	600.000
868.57	284.211
868.86	-5600.000
869.16	375.000
869.45	2550.000
869.75	-4300.000
870.04	433.333
870.33	600.000
870.63	1100.000
870.92	3050.000
871.22	871.429
871.51	364.706
871.80	204.762
872.10	442.857
>>>>>End Processed Spectral Data<<<<<
