SpectraSuite Data File
++++++++++++++++++++++++++++++++++++
Date: Wed May 13 19:55:32 PDT 2015
User: schluterlab
Dark Spectrum Present: Yes
Reference Spectrum Present: Yes
Number of Sampled Component Spectra: 1
Spectrometers: USB2E3373
Integration Time (usec): 3000 (USB2E3373)
Spectra Averaged: 3 (USB2E3373)
Boxcar Smoothing: 0 (USB2E3373)
Correct for Electrical Dark: No (USB2E3373)
Strobe/Lamp Enabled: No (USB2E3373)
Correct for Detector Non-linearity: No (USB2E3373)
Correct for Stray Light: No (USB2E3373)
Number of Pixels in Processed Spectrum: 2048
>>>>>Begin Processed Spectral Data<<<<<
178.53	0.000
178.91	-1325.000
179.29	-1375.000
179.67	-238.889
180.04	-1225.000
180.42	2150.000
180.80	1040.000
181.18	-1000.000
181.56	671.429
181.94	0.000
182.31	-600.000
182.69	1900.000
183.07	-600.000
183.45	-611.111
183.83	536.364
184.20	-430.000
184.58	2250.000
184.96	6500.000
185.34	-920.000
185.72	-625.000
186.09	-2650.000
186.47	2650.000
186.85	2300.000
187.23	4100.000
187.61	-1866.667
187.98	1375.000
188.36	500.000
188.74	563.636
189.12	-860.000
189.49	560.000
189.87	-5600.000
190.25	-1375.000
190.63	464.286
191.00	438.462
191.38	900.000
191.76	-950.000
192.14	1375.000
192.51	725.000
192.89	966.667
193.27	637.500
193.65	-1150.000
194.02	500.000
194.40	1040.000
194.78	520.000
195.15	450.000
195.53	630.000
195.91	-2350.000
196.29	356.250
196.66	300.000
197.04	-330.000
197.42	0.000
197.79	660.000
198.17	-4800.000
198.55	785.714
198.92	800.000
199.30	880.000
199.68	0.000
200.05	316.667
200.43	614.286
200.81	4900.000
201.18	1600.000
201.56	-1600.000
201.94	600.000
202.31	688.889
202.69	491.667
203.07	650.000
203.44	0.000
203.82	1400.000
204.19	785.714
204.57	442.857
204.95	537.500
205.32	1500.000
205.70	536.364
206.08	450.000
206.45	3050.000
206.83	325.000
207.20	1000.000
207.58	900.000
207.96	316.667
208.33	600.000
208.71	-850.000
209.08	814.286
209.46	544.444
209.84	527.273
210.21	-1733.333
210.59	1375.000
210.96	-437.500
211.34	2900.000
211.71	570.000
212.09	850.000
212.46	0.000
212.84	1600.000
213.22	1550.000
213.59	-4600.000
213.97	850.000
214.34	814.286
214.72	536.364
215.09	900.000
215.47	-2000.000
215.84	-2400.000
216.22	1700.000
216.59	350.000
216.97	1475.000
217.34	472.727
217.72	-800.000
218.09	0.000
218.47	-5000.000
218.84	688.889
219.22	728.571
219.59	1666.667
219.97	-600.000
220.34	1060.000
220.72	-1700.000
221.09	400.000
221.47	1425.000
221.84	-766.667
222.22	0.000
222.59	1625.000
222.97	-2100.000
223.34	1060.000
223.72	438.462
224.09	1040.000
224.46	1700.000
224.84	-4700.000
225.21	-900.000
225.59	-5200.000
225.96	560.000
226.34	290.000
226.71	2900.000
227.08	750.000
227.46	460.000
227.83	-1050.000
228.21	-2100.000
228.58	633.333
228.95	-2600.000
229.33	-1950.000
229.70	1766.667
230.08	671.429
230.45	-860.000
230.82	433.333
231.20	900.000
231.57	671.429
231.95	400.000
232.32	254.545
232.69	445.455
233.07	657.143
233.44	376.923
233.81	-1566.667
234.19	300.000
234.56	341.667
234.93	500.000
235.31	409.091
235.68	330.769
236.05	364.286
236.43	163.636
236.80	263.158
237.17	3900.000
237.55	247.619
237.92	196.429
238.29	219.048
238.67	148.387
239.04	203.448
239.41	122.222
239.79	108.696
240.16	111.905
240.53	125.000
240.91	88.235
241.28	80.000
241.65	88.000
242.02	92.754
242.40	83.871
242.77	85.000
243.14	72.043
243.51	68.539
243.89	52.941
244.26	46.667
244.63	54.839
245.00	48.936
245.38	57.426
245.75	45.794
246.12	32.110
246.49	53.285
246.87	53.600
247.24	40.000
247.61	45.714
247.98	39.216
248.36	30.405
248.73	35.032
249.10	39.490
249.47	32.203
249.84	35.829
250.22	27.807
250.59	26.036
250.96	28.788
251.33	29.858
251.70	31.683
252.08	26.190
252.45	24.215
252.82	23.043
253.19	22.979
253.56	27.059
253.94	26.141
254.31	23.047
254.68	21.538
255.05	24.354
255.42	19.512
255.79	20.588
256.16	24.549
256.54	16.254
256.91	22.420
257.28	17.626
257.65	14.521
258.02	18.944
258.39	19.243
258.76	15.050
259.14	18.452
259.51	15.502
259.88	16.460
260.25	19.637
260.62	19.653
260.99	17.702
261.36	21.622
261.73	16.905
262.10	14.826
262.47	19.437
262.85	17.270
263.22	13.675
263.59	17.379
263.96	17.857
264.33	16.449
264.70	13.684
265.07	15.601
265.44	13.889
265.81	14.599
266.18	14.573
266.55	13.659
266.92	13.268
267.29	16.667
267.66	14.679
268.03	12.955
268.40	14.252
268.77	11.933
269.14	12.162
269.51	15.801
269.88	14.219
270.25	12.641
270.62	12.360
270.99	16.559
271.36	15.236
271.73	12.850
272.10	15.435
272.47	12.688
272.84	13.203
273.21	14.885
273.58	11.354
273.95	11.111
274.32	13.843
274.69	10.921
275.06	9.449
275.43	12.979
275.80	11.222
276.17	11.405
276.54	12.890
276.91	12.055
277.28	12.891
277.65	13.153
278.02	9.524
278.39	13.672
278.76	11.818
279.13	10.755
279.50	12.291
279.87	12.550
280.23	10.978
280.60	9.478
280.97	10.351
281.34	11.681
281.71	12.909
282.08	12.476
282.45	9.455
282.82	11.368
283.19	9.804
283.56	12.632
283.92	10.491
284.29	10.935
284.66	10.889
285.03	9.584
285.40	8.275
285.77	9.596
286.14	9.499
286.51	11.167
286.87	10.427
287.24	10.586
287.61	12.199
287.98	12.500
288.35	10.618
288.72	9.502
289.08	11.737
289.45	9.885
289.82	11.220
290.19	9.262
290.56	9.801
290.93	8.006
291.29	9.816
291.66	9.145
292.03	10.320
292.40	11.307
292.77	7.988
293.13	10.896
293.50	9.184
293.87	10.074
294.24	9.926
294.60	8.297
294.97	8.430
295.34	10.155
295.71	9.517
296.08	8.120
296.44	7.565
296.81	8.454
297.18	9.621
297.55	6.596
297.91	7.784
298.28	9.237
298.65	8.616
299.02	7.642
299.38	7.171
299.75	6.873
300.12	7.407
300.48	7.125
300.85	8.138
301.22	6.624
301.59	6.818
301.95	8.690
302.32	7.189
302.69	8.602
303.05	6.545
303.42	7.160
303.79	7.701
304.15	6.294
304.52	6.373
304.89	6.272
305.25	7.309
305.62	7.588
305.99	7.792
306.35	7.606
306.72	8.632
307.09	8.657
307.45	9.009
307.82	6.696
308.19	9.272
308.55	7.443
308.92	8.485
309.29	6.969
309.65	7.317
310.02	8.245
310.38	6.667
310.75	6.864
311.12	9.007
311.48	8.150
311.85	8.910
312.22	8.325
312.58	7.900
312.95	7.709
313.31	8.447
313.68	7.900
314.05	9.172
314.41	9.146
314.78	8.359
315.14	8.838
315.51	8.857
315.87	9.109
316.24	8.143
316.61	7.700
316.97	8.611
317.34	8.023
317.70	9.082
318.07	8.662
318.43	9.393
318.80	9.560
319.16	10.734
319.53	10.038
319.89	11.048
320.26	10.600
320.62	11.111
320.99	10.505
321.35	12.020
321.72	10.986
322.08	12.043
322.45	12.736
322.81	11.725
323.18	13.006
323.54	11.967
323.91	11.981
324.27	11.568
324.64	11.929
325.00	13.165
325.37	13.376
325.73	14.542
326.10	14.740
326.46	13.082
326.83	13.374
327.19	13.151
327.56	13.328
327.92	13.998
328.29	14.818
328.65	15.562
329.01	13.718
329.38	15.356
329.74	15.328
330.11	15.174
330.47	15.060
330.84	16.176
331.20	15.392
331.56	16.239
331.93	15.556
332.29	15.084
332.66	17.168
333.02	15.539
333.38	16.079
333.75	16.488
334.11	17.794
334.48	16.238
334.84	16.636
335.20	16.545
335.57	15.503
335.93	15.893
336.29	16.300
336.66	17.042
337.02	16.471
337.38	17.130
337.75	15.954
338.11	15.398
338.47	16.298
338.84	16.132
339.20	16.239
339.56	18.248
339.93	16.727
340.29	16.214
340.65	17.736
341.02	16.318
341.38	15.925
341.74	16.228
342.11	17.031
342.47	17.621
342.83	16.438
343.20	17.403
343.56	17.607
343.92	16.754
344.28	17.092
344.65	18.315
345.01	17.003
345.37	16.295
345.73	17.597
346.10	17.391
346.46	16.610
346.82	16.969
347.19	16.040
347.55	18.309
347.91	17.476
348.27	16.927
348.63	17.308
349.00	16.748
349.36	16.913
349.72	16.760
350.08	17.423
350.45	15.867
350.81	17.222
351.17	17.747
351.53	16.544
351.89	16.667
352.26	18.074
352.62	17.402
352.98	17.666
353.34	17.256
353.70	17.349
354.07	17.903
354.43	17.540
354.79	16.573
355.15	17.398
355.51	18.066
355.87	18.449
356.24	18.648
356.60	17.803
356.96	18.101
357.32	17.989
357.68	17.795
358.04	18.765
358.40	17.973
358.77	18.075
359.13	18.390
359.49	17.490
359.85	17.857
360.21	17.943
360.57	19.066
360.93	19.308
361.29	18.745
361.66	17.724
362.02	18.284
362.38	19.087
362.74	18.676
363.10	18.209
363.46	18.269
363.82	17.989
364.18	18.429
364.54	19.094
364.90	19.334
365.26	18.897
365.62	18.700
365.98	18.481
366.35	18.410
366.71	19.523
367.07	18.354
367.43	19.448
367.79	19.343
368.15	20.474
368.51	19.477
368.87	20.700
369.23	20.483
369.59	20.927
369.95	19.779
370.31	19.444
370.67	19.855
371.03	21.798
371.39	20.627
371.75	20.074
372.11	20.839
372.47	21.114
372.83	21.686
373.19	20.592
373.55	21.138
373.91	21.870
374.27	21.031
374.63	21.455
374.99	20.904
375.35	20.865
375.71	20.905
376.07	21.742
376.42	21.183
376.78	21.736
377.14	22.456
377.50	22.119
377.86	21.609
378.22	22.693
378.58	21.303
378.94	22.062
379.30	22.137
379.66	22.145
380.02	23.034
380.38	21.736
380.74	22.689
381.09	22.738
381.45	23.602
381.81	23.587
382.17	23.376
382.53	22.956
382.89	22.716
383.25	23.577
383.61	23.482
383.97	24.078
384.32	22.832
384.68	23.730
385.04	24.524
385.40	24.149
385.76	24.201
386.12	23.964
386.48	23.914
386.83	25.144
387.19	25.665
387.55	24.428
387.91	24.970
388.27	24.096
388.62	26.245
388.98	24.693
389.34	25.845
389.70	25.812
390.06	25.729
390.42	26.329
390.77	25.827
391.13	26.548
391.49	26.015
391.85	25.716
392.20	25.426
392.56	26.705
392.92	26.015
393.28	26.095
393.64	26.139
393.99	26.512
394.35	27.109
394.71	27.792
395.07	26.417
395.42	27.441
395.78	27.545
396.14	28.181
396.50	28.383
396.85	27.972
397.21	27.559
397.57	28.704
397.92	28.305
398.28	27.466
398.64	28.674
399.00	27.868
399.35	27.806
399.71	28.125
400.07	28.977
400.42	28.344
400.78	29.312
401.14	28.598
401.49	29.313
401.85	28.131
402.21	28.084
402.57	28.994
402.92	29.634
403.28	30.606
403.63	29.703
403.99	29.618
404.35	29.394
404.70	29.017
405.06	29.470
405.42	29.944
405.77	29.714
406.13	29.797
406.49	29.627
406.84	29.652
407.20	29.728
407.55	30.887
407.91	31.133
408.27	30.632
408.62	30.584
408.98	29.718
409.34	31.181
409.69	31.806
410.05	30.545
410.40	31.193
410.76	30.585
411.11	32.388
411.47	30.607
411.83	31.888
412.18	30.983
412.54	32.067
412.89	31.747
413.25	31.641
413.60	32.366
413.96	31.694
414.31	32.564
414.67	31.876
415.03	32.649
415.38	32.281
415.74	33.569
416.09	33.573
416.45	30.857
416.80	33.906
417.16	34.517
417.51	33.776
417.87	33.719
418.22	34.132
418.58	33.893
418.93	34.459
419.29	34.437
419.64	35.327
420.00	33.659
420.35	33.739
420.71	35.445
421.06	35.143
421.42	34.561
421.77	35.090
422.12	34.026
422.48	34.323
422.83	35.469
423.19	35.249
423.54	36.042
423.90	35.826
424.25	35.567
424.61	35.714
424.96	35.452
425.31	35.880
425.67	35.169
426.02	35.714
426.38	37.363
426.73	36.571
427.09	36.474
427.44	37.435
427.79	36.515
428.15	36.786
428.50	36.864
428.85	36.472
429.21	37.824
429.56	36.133
429.92	36.487
430.27	36.792
430.62	36.815
430.98	37.416
431.33	37.784
431.68	37.016
432.04	36.954
432.39	38.207
432.74	38.420
433.10	38.766
433.45	38.659
433.80	38.525
434.16	38.515
434.51	37.737
434.86	39.225
435.22	38.966
435.57	39.271
435.92	38.502
436.28	39.858
436.63	40.011
436.98	39.782
437.34	40.250
437.69	40.373
438.04	39.854
438.39	40.358
438.75	40.093
439.10	41.676
439.45	40.850
439.81	41.511
440.16	40.881
440.51	42.121
440.86	41.459
441.22	41.546
441.57	40.552
441.92	41.300
442.27	40.097
442.63	41.074
442.98	42.141
443.33	42.011
443.68	42.643
444.03	42.118
444.39	40.993
444.74	42.316
445.09	43.019
445.44	41.826
445.79	43.097
446.15	42.403
446.50	43.134
446.85	42.703
447.20	42.835
447.55	43.886
447.91	43.243
448.26	43.740
448.61	43.697
448.96	44.352
449.31	45.276
449.66	44.344
450.02	43.677
450.37	43.197
450.72	44.332
451.07	43.937
451.42	44.377
451.77	44.921
452.12	44.342
452.47	45.585
452.83	45.280
453.18	44.988
453.53	45.887
453.88	44.714
454.23	45.069
454.58	45.912
454.93	45.772
455.28	44.825
455.63	45.267
455.98	47.024
456.34	45.163
456.69	44.771
457.04	46.378
457.39	45.061
457.74	44.980
458.09	44.853
458.44	45.667
458.79	44.469
459.14	45.147
459.49	45.651
459.84	45.152
460.19	44.962
460.54	43.692
460.89	45.474
461.24	45.841
461.59	46.775
461.94	45.561
462.29	45.579
462.64	46.267
462.99	45.999
463.34	46.600
463.69	45.528
464.04	45.275
464.39	45.623
464.74	45.336
465.09	45.356
465.44	43.878
465.79	44.072
466.14	44.773
466.49	44.605
466.84	44.425
467.19	45.263
467.54	45.625
467.89	44.658
468.24	46.015
468.59	46.337
468.94	44.777
469.29	44.923
469.64	47.122
469.99	47.158
470.34	47.094
470.68	47.414
471.03	46.667
471.38	47.811
471.73	47.035
472.08	46.842
472.43	44.786
472.78	45.622
473.13	46.534
473.48	47.004
473.83	45.488
474.17	45.613
474.52	45.968
474.87	45.534
475.22	45.676
475.57	44.868
475.92	45.035
476.27	45.152
476.61	44.732
476.96	45.465
477.31	45.578
477.66	45.295
478.01	44.119
478.36	44.738
478.70	45.483
479.05	45.634
479.40	45.548
479.75	45.450
480.10	45.229
480.45	44.169
480.79	43.526
481.14	44.765
481.49	45.135
481.84	44.399
482.19	44.253
482.53	43.303
482.88	44.905
483.23	45.327
483.58	44.268
483.92	45.361
484.27	42.702
484.62	43.491
484.97	43.319
485.31	43.014
485.66	41.495
486.01	40.088
486.36	39.252
486.70	39.147
487.05	40.573
487.40	41.420
487.75	41.320
488.09	43.039
488.44	43.529
488.79	44.846
489.13	44.041
489.48	43.230
489.83	44.281
490.17	44.279
490.52	43.534
490.87	43.781
491.22	44.111
491.56	44.510
491.91	44.253
492.26	43.316
492.60	44.055
492.95	43.452
493.30	43.925
493.64	43.910
493.99	44.104
494.34	43.663
494.68	44.368
495.03	43.750
495.37	43.555
495.72	44.298
496.07	43.712
496.41	42.655
496.76	43.140
497.11	43.044
497.45	43.503
497.80	43.810
498.14	42.947
498.49	43.805
498.84	43.480
499.18	43.143
499.53	43.067
499.87	43.243
500.22	43.759
500.56	43.592
500.91	42.885
501.26	42.769
501.60	44.423
501.95	43.126
502.29	43.721
502.64	43.063
502.98	43.432
503.33	42.733
503.67	42.738
504.02	42.937
504.36	42.677
504.71	43.429
505.06	42.602
505.40	43.316
505.75	42.382
506.09	42.857
506.44	44.055
506.78	43.205
507.13	43.261
507.47	44.394
507.82	43.668
508.16	42.806
508.51	44.597
508.85	42.354
509.19	44.541
509.54	43.163
509.88	42.658
510.23	43.959
510.57	44.582
510.92	43.708
511.26	44.245
511.61	43.932
511.95	43.058
512.30	43.531
512.64	43.525
512.98	43.891
513.33	43.951
513.67	43.490
514.02	43.669
514.36	44.020
514.70	43.664
515.05	45.120
515.39	45.093
515.74	44.369
516.08	44.494
516.42	45.172
516.77	45.708
517.11	43.618
517.46	44.470
517.80	44.832
518.14	44.412
518.49	45.391
518.83	43.864
519.17	44.515
519.52	43.860
519.86	45.123
520.20	44.566
520.55	45.661
520.89	45.195
521.23	44.873
521.58	45.078
521.92	44.581
522.26	42.709
522.61	45.545
522.95	43.892
523.29	44.187
523.64	44.634
523.98	43.993
524.32	45.476
524.66	44.738
525.01	44.669
525.35	45.725
525.69	44.335
526.04	44.673
526.38	44.356
526.72	44.110
527.06	43.817
527.41	43.564
527.75	45.145
528.09	44.894
528.43	45.762
528.78	44.376
529.12	44.424
529.46	44.642
529.80	44.926
530.15	44.611
530.49	43.877
530.83	45.190
531.17	45.888
531.51	45.785
531.86	45.355
532.20	46.349
532.54	46.188
532.88	45.379
533.22	42.973
533.57	42.963
533.91	42.806
534.25	43.499
534.59	43.563
534.93	42.653
535.27	44.116
535.62	43.712
535.96	44.068
536.30	44.437
536.64	44.366
536.98	44.526
537.32	44.371
537.66	44.800
538.01	43.976
538.35	43.568
538.69	44.544
539.03	42.820
539.37	43.259
539.71	42.644
540.05	42.288
540.39	43.654
540.73	43.338
541.07	44.127
541.42	44.357
541.76	44.258
542.10	43.661
542.44	43.709
542.78	43.347
543.12	43.122
543.46	43.934
543.80	43.461
544.14	43.582
544.48	43.365
544.82	42.720
545.16	42.485
545.50	43.123
545.84	42.944
546.18	43.838
546.52	44.391
546.86	44.948
547.20	43.358
547.54	43.019
547.88	43.176
548.22	42.341
548.56	41.824
548.90	41.229
549.24	42.559
549.58	43.520
549.92	43.063
550.26	44.744
550.60	42.600
550.94	42.958
551.28	41.770
551.62	42.919
551.96	41.544
552.30	42.935
552.64	42.529
552.98	44.000
553.32	42.347
553.66	43.354
554.00	42.485
554.34	42.788
554.68	43.562
555.02	42.736
555.36	43.076
555.69	42.219
556.03	42.530
556.37	42.292
556.71	41.269
557.05	43.067
557.39	41.568
557.73	42.555
558.07	43.437
558.41	42.258
558.75	42.248
559.08	42.655
559.42	43.008
559.76	42.868
560.10	41.613
560.44	41.859
560.78	39.854
561.12	41.425
561.45	41.982
561.79	39.881
562.13	39.705
562.47	41.189
562.81	41.004
563.15	39.933
563.48	40.252
563.82	41.096
564.16	39.961
564.50	40.820
564.84	40.202
565.17	41.313
565.51	40.575
565.85	39.404
566.19	39.324
566.52	40.912
566.86	38.939
567.20	40.035
567.54	40.011
567.88	36.991
568.21	39.418
568.55	37.563
568.89	36.722
569.23	36.230
569.56	35.061
569.90	35.283
570.24	34.338
570.57	34.172
570.91	33.226
571.25	33.323
571.59	33.196
571.92	33.439
572.26	33.304
572.60	33.814
572.93	32.924
573.27	33.452
573.61	33.417
573.95	32.481
574.28	32.437
574.62	31.584
574.96	31.900
575.29	31.426
575.63	31.911
575.97	32.205
576.30	32.501
576.64	31.514
576.98	31.721
577.31	31.701
577.65	31.726
577.98	30.941
578.32	30.441
578.66	30.482
578.99	30.838
579.33	31.203
579.67	31.160
580.00	31.479
580.34	31.039
580.67	31.269
581.01	31.212
581.35	30.722
581.68	30.426
582.02	29.508
582.35	30.127
582.69	30.339
583.02	30.927
583.36	31.058
583.70	31.818
584.03	30.956
584.37	32.596
584.70	31.479
585.04	31.091
585.37	30.289
585.71	30.428
586.04	30.176
586.38	31.531
586.72	31.511
587.05	30.590
587.39	30.185
587.72	30.688
588.06	31.003
588.39	31.056
588.73	31.270
589.06	31.941
589.40	32.424
589.73	32.876
590.07	32.278
590.40	31.458
590.73	32.319
591.07	32.804
591.40	32.982
591.74	33.074
592.07	32.286
592.41	31.625
592.74	30.899
593.08	30.813
593.41	30.212
593.75	29.419
594.08	30.439
594.41	30.718
594.75	30.980
595.08	31.711
595.42	31.208
595.75	30.805
596.09	31.994
596.42	32.299
596.75	31.659
597.09	32.554
597.42	31.071
597.75	31.695
598.09	31.435
598.42	31.873
598.76	31.253
599.09	30.141
599.42	30.750
599.76	29.941
600.09	30.200
600.42	29.620
600.76	30.179
601.09	29.836
601.42	30.061
601.76	29.943
602.09	30.316
602.42	31.250
602.76	31.681
603.09	30.173
603.42	30.652
603.76	30.335
604.09	29.818
604.42	30.697
604.76	30.915
605.09	30.625
605.42	30.953
605.75	30.671
606.09	29.606
606.42	29.832
606.75	29.034
607.09	29.678
607.42	30.124
607.75	29.072
608.08	30.829
608.42	31.152
608.75	29.576
609.08	29.186
609.41	30.795
609.75	30.062
610.08	31.433
610.41	29.842
610.74	30.416
611.07	30.385
611.41	30.177
611.74	30.920
612.07	31.573
612.40	31.112
612.73	31.316
613.07	31.250
613.40	31.438
613.73	29.680
614.06	30.054
614.39	30.309
614.72	29.895
615.06	30.410
615.39	29.565
615.72	29.857
616.05	29.665
616.38	30.183
616.71	30.582
617.05	31.272
617.38	30.607
617.71	31.712
618.04	31.010
618.37	30.455
618.70	31.674
619.03	31.118
619.36	31.297
619.69	32.465
620.03	32.143
620.36	31.150
620.69	31.781
621.02	33.038
621.35	32.341
621.68	31.231
622.01	32.895
622.34	32.678
622.67	32.015
623.00	31.842
623.33	30.593
623.66	31.665
623.99	32.106
624.32	31.669
624.65	29.944
624.99	30.666
625.32	30.485
625.65	31.480
625.98	31.822
626.31	32.037
626.64	32.816
626.97	33.250
627.30	31.671
627.63	32.814
627.96	32.632
628.29	32.721
628.62	33.760
628.95	35.189
629.28	32.755
629.61	33.822
629.94	34.857
630.26	32.888
630.59	32.412
630.92	32.663
631.25	31.392
631.58	33.333
631.91	34.483
632.24	33.228
632.57	32.949
632.90	34.211
633.23	35.011
633.56	35.480
633.89	35.674
634.22	33.144
634.55	36.805
634.88	33.892
635.20	37.276
635.53	35.060
635.86	33.416
636.19	34.588
636.52	33.795
636.85	33.677
637.18	34.217
637.51	35.461
637.83	33.169
638.16	34.527
638.49	34.887
638.82	35.777
639.15	34.625
639.48	35.037
639.81	35.791
640.13	35.547
640.46	34.765
640.79	34.214
641.12	35.351
641.45	36.453
641.77	37.113
642.10	35.965
642.43	35.886
642.76	36.378
643.09	35.890
643.41	33.839
643.74	39.198
644.07	36.433
644.40	37.730
644.73	37.323
645.05	36.926
645.38	36.651
645.71	37.359
646.04	39.867
646.36	37.229
646.69	37.960
647.02	37.925
647.35	37.801
647.67	39.823
648.00	38.374
648.33	34.653
648.66	35.909
648.98	34.633
649.31	32.436
649.64	34.978
649.96	35.469
650.29	35.703
650.62	34.790
650.94	36.143
651.27	37.838
651.60	35.774
651.92	35.463
652.25	35.831
652.58	36.293
652.90	33.649
653.23	32.974
653.56	35.906
653.88	36.926
654.21	34.281
654.54	36.799
654.86	33.333
655.19	32.027
655.52	20.861
655.84	17.060
656.17	21.899
656.49	29.478
656.82	30.564
657.15	23.686
657.47	17.744
657.80	13.894
658.13	14.712
658.45	22.131
658.78	23.018
659.10	23.705
659.43	25.255
659.75	27.200
660.08	29.177
660.41	33.147
660.73	33.037
661.06	34.713
661.38	37.636
661.71	39.423
662.03	37.673
662.36	35.785
662.68	37.751
663.01	35.354
663.33	38.004
663.66	37.605
663.98	37.581
664.31	36.345
664.63	37.449
664.96	34.608
665.28	37.295
665.61	35.088
665.93	34.809
666.26	36.511
666.58	35.565
666.91	37.844
667.23	38.427
667.56	35.637
667.88	36.752
668.21	38.806
668.53	36.876
668.86	38.312
669.18	38.806
669.50	38.478
669.83	40.523
670.15	38.889
670.48	35.730
670.80	37.931
671.13	37.580
671.45	37.447
671.77	35.642
672.10	35.860
672.42	31.802
672.75	31.841
673.07	32.746
673.39	31.465
673.72	31.836
674.04	34.118
674.37	35.728
674.69	35.787
675.01	36.611
675.34	37.988
675.66	37.895
675.98	34.012
676.31	37.815
676.63	37.792
676.95	34.801
677.28	35.981
677.60	38.022
677.92	37.764
678.25	34.702
678.57	35.657
678.89	36.072
679.22	33.202
679.54	33.397
679.86	33.578
680.18	33.095
680.51	32.270
680.83	31.495
681.15	35.472
681.48	34.594
681.80	34.043
682.12	33.142
682.44	29.400
682.77	36.253
683.09	36.910
683.41	35.033
683.73	37.307
684.06	34.711
684.38	33.659
684.70	32.558
685.02	33.396
685.34	32.051
685.67	29.720
685.99	31.443
686.31	30.546
686.63	29.329
686.96	32.321
687.28	30.866
687.60	29.891
687.92	32.176
688.24	31.179
688.56	32.932
688.89	31.328
689.21	35.371
689.53	33.612
689.85	33.038
690.17	30.228
690.49	34.607
690.82	35.981
691.14	31.250
691.46	33.755
691.78	31.526
692.10	33.058
692.42	33.333
692.74	30.913
693.06	33.191
693.39	34.497
693.71	32.533
694.03	31.579
694.35	32.251
694.67	32.952
694.99	33.659
695.31	33.088
695.63	33.254
695.95	34.474
696.27	33.756
696.59	38.342
696.91	36.010
697.23	32.160
697.56	31.557
697.88	29.039
698.20	31.250
698.52	32.688
698.84	33.185
699.16	30.645
699.48	31.116
699.80	32.609
700.12	34.545
700.44	37.401
700.76	35.912
701.08	37.069
701.40	37.430
701.72	40.525
702.04	40.341
702.36	32.861
702.68	37.960
703.00	34.626
703.32	37.500
703.64	35.121
703.96	36.769
704.28	38.372
704.60	36.657
704.91	36.202
705.23	34.018
705.55	40.199
705.87	41.196
706.19	38.869
706.51	34.579
706.83	38.788
707.15	34.734
707.47	33.081
707.79	33.661
708.11	33.333
708.43	31.190
708.74	33.418
709.06	36.364
709.38	32.546
709.70	35.756
710.02	36.499
710.34	33.030
710.66	35.522
710.98	36.648
711.29	36.919
711.61	37.463
711.93	35.577
712.25	41.158
712.57	40.441
712.89	35.986
713.20	36.170
713.52	34.868
713.84	35.759
714.16	34.756
714.48	33.621
714.80	39.514
715.11	31.988
715.43	33.234
715.75	35.362
716.07	36.741
716.39	36.677
716.70	41.196
717.02	38.489
717.34	38.869
717.66	38.806
717.97	41.434
718.29	38.148
718.61	35.401
718.93	42.279
719.24	37.024
719.56	37.288
719.88	35.254
720.20	36.486
720.51	39.721
720.83	37.175
721.15	38.060
721.46	36.170
721.78	38.710
722.10	41.509
722.42	38.346
722.73	43.071
723.05	40.164
723.37	36.437
723.68	40.541
724.00	41.870
724.32	37.500
724.63	40.650
724.95	35.146
725.27	38.462
725.58	35.937
725.90	40.511
726.22	37.736
726.53	36.806
726.85	38.908
727.16	37.011
727.48	36.170
727.80	37.121
728.11	35.507
728.43	36.538
728.74	39.068
729.06	37.956
729.38	38.603
729.69	38.434
730.01	35.154
730.32	32.986
730.64	35.452
730.96	35.974
731.27	36.093
731.59	32.416
731.90	32.070
732.22	34.472
732.53	28.793
732.85	33.974
733.16	30.868
733.48	35.216
733.80	31.494
734.11	37.898
734.43	34.911
734.74	29.429
735.06	28.080
735.37	34.971
735.69	29.618
736.00	35.621
736.32	33.956
736.63	32.588
736.95	35.783
737.26	32.313
737.58	29.355
737.89	33.110
738.21	36.177
738.52	33.929
738.83	36.226
739.15	38.462
739.46	36.496
739.78	35.417
740.09	33.846
740.41	32.581
740.72	32.753
741.04	38.519
741.35	28.750
741.66	40.889
741.98	33.962
742.29	43.062
742.61	41.379
742.92	35.747
743.23	39.744
743.55	36.800
743.86	38.596
744.18	40.708
744.49	44.019
744.80	45.540
745.12	41.818
745.43	38.326
745.74	44.144
746.06	39.450
746.37	45.291
746.68	42.534
747.00	42.130
747.31	47.619
747.62	37.168
747.94	36.564
748.25	40.000
748.56	39.648
748.88	41.089
749.19	46.000
749.50	45.116
749.82	38.618
750.13	34.694
750.44	35.036
750.75	34.035
751.07	40.193
751.38	34.495
751.69	34.657
752.01	32.331
752.32	29.964
752.63	32.624
752.94	35.246
753.26	40.800
753.57	38.211
753.88	39.453
754.19	33.571
754.51	35.764
754.82	31.047
755.13	36.604
755.44	36.090
755.75	31.387
756.07	34.397
756.38	31.752
756.69	28.188
757.00	31.737
757.31	29.674
757.63	30.409
757.94	27.614
758.25	30.147
758.56	27.901
758.87	27.419
759.18	29.697
759.50	30.408
759.81	29.595
760.12	27.500
760.43	30.086
760.74	27.174
761.05	26.554
761.36	28.610
761.67	30.966
761.99	30.124
762.30	32.986
762.61	31.298
762.92	36.328
763.23	33.613
763.54	40.000
763.85	33.984
764.16	36.538
764.47	37.643
764.78	32.155
765.10	27.532
765.41	29.204
765.72	30.838
766.03	30.408
766.34	28.667
766.65	37.021
766.96	35.043
767.27	47.208
767.58	38.021
767.89	50.000
768.20	44.253
768.51	39.086
768.82	42.202
769.13	32.520
769.44	38.866
769.75	39.485
770.06	34.404
770.37	42.986
770.68	38.426
770.99	37.333
771.30	29.918
771.61	41.704
771.92	34.016
772.23	42.017
772.54	36.410
772.85	46.073
773.16	45.213
773.47	44.022
773.78	44.162
774.09	35.119
774.39	47.368
774.70	42.593
775.01	42.754
775.32	54.902
775.63	46.711
775.94	46.763
776.25	59.055
776.56	53.731
776.87	54.098
777.18	52.344
777.48	58.779
777.79	48.485
778.10	51.852
778.41	49.107
778.72	50.365
779.03	41.611
779.34	42.953
779.65	48.649
779.95	44.785
780.26	49.673
780.57	53.793
780.88	57.031
781.19	51.128
781.50	56.081
781.80	42.767
782.11	44.633
782.42	47.468
782.73	38.037
783.04	52.027
783.34	43.662
783.65	55.479
783.96	54.478
784.27	49.650
784.57	53.957
784.88	50.926
785.19	61.905
785.50	62.264
785.81	57.463
786.11	61.475
786.42	59.690
786.73	55.752
787.04	60.377
787.34	66.071
787.65	62.000
787.96	60.360
788.26	52.893
788.57	56.780
788.88	66.942
789.19	52.083
789.49	56.061
789.80	53.435
790.11	59.048
790.41	68.317
790.72	75.904
791.03	73.913
791.33	81.395
791.64	65.979
791.95	62.376
792.25	61.111
792.56	71.429
792.87	89.744
793.17	89.873
793.48	65.517
793.79	71.264
794.09	73.864
794.40	56.303
794.70	58.824
795.01	45.926
795.32	46.043
795.62	57.480
795.93	64.655
796.23	53.982
796.54	64.706
796.85	66.216
797.15	94.366
797.46	77.273
797.76	69.880
798.07	75.949
798.37	96.923
798.68	80.303
798.99	78.873
799.29	76.623
799.60	70.455
799.90	87.671
800.21	95.522
800.51	108.621
800.82	114.035
801.12	103.279
801.43	93.939
801.73	81.081
802.04	92.063
802.34	90.123
802.65	95.312
802.95	98.305
803.26	98.438
803.56	84.286
803.87	95.385
804.17	94.118
804.48	118.519
804.78	87.931
805.09	98.529
805.39	109.615
805.70	94.643
806.00	98.361
806.30	93.939
806.61	79.268
806.91	65.823
807.22	85.526
807.52	74.627
807.83	81.690
808.13	84.375
808.43	95.000
808.74	68.421
809.04	71.014
809.35	97.015
809.65	98.684
809.95	93.548
810.26	91.525
810.56	71.429
810.86	150.000
811.17	130.952
811.47	111.667
811.77	109.259
812.08	103.636
812.38	130.000
812.69	141.667
812.99	143.182
813.29	130.612
813.59	111.905
813.90	118.367
814.20	112.727
814.50	92.308
814.81	104.412
815.11	120.408
815.41	104.918
815.72	147.619
816.02	118.182
816.32	142.857
816.62	135.000
816.93	136.585
817.23	145.238
817.53	145.455
817.84	193.939
818.14	126.087
818.44	131.111
818.74	135.294
819.04	120.000
819.35	157.143
819.65	176.471
819.95	182.143
820.25	280.000
820.56	146.154
820.86	122.727
821.16	127.907
821.46	135.897
821.76	142.000
822.07	137.143
822.37	137.500
822.67	178.788
822.97	100.000
823.27	207.143
823.57	118.919
823.88	152.500
824.18	216.667
824.48	157.143
824.78	220.000
825.08	212.500
825.38	159.459
825.69	141.463
825.99	216.667
826.29	137.931
826.59	163.158
826.89	150.000
827.19	176.471
827.49	177.419
827.79	150.000
828.09	131.818
828.39	104.255
828.70	124.490
829.00	170.370
829.30	170.968
829.60	137.500
829.90	393.333
830.20	203.571
830.50	234.783
830.80	239.130
831.10	226.667
831.40	180.000
831.70	200.000
832.00	219.231
832.30	185.185
832.60	343.750
832.90	210.000
833.20	342.857
833.50	200.000
833.80	213.793
834.10	218.750
834.40	215.385
834.70	316.667
835.00	333.333
835.30	137.143
835.60	330.769
835.90	172.414
836.20	328.571
836.50	224.138
836.80	224.000
837.10	186.111
837.40	300.000
837.70	341.176
838.00	211.111
838.30	257.143
838.60	290.476
838.90	250.000
839.19	295.000
839.49	371.429
839.79	295.000
840.09	270.000
840.39	309.524
840.69	273.913
840.99	283.333
841.29	440.000
841.59	441.667
841.88	387.500
842.18	193.103
842.48	280.952
842.78	196.667
843.08	234.783
843.38	203.125
843.68	833.333
843.97	223.077
844.27	203.448
844.57	300.000
844.87	368.750
845.17	207.407
845.47	1633.333
845.76	477.778
846.06	294.118
846.36	575.000
846.66	328.571
846.96	343.750
847.25	390.909
847.55	472.727
847.85	273.913
848.15	440.000
848.44	385.714
848.74	244.444
849.04	341.176
849.34	540.000
849.63	257.895
849.93	490.909
850.23	1100.000
850.53	400.000
850.82	2350.000
851.12	-4600.000
851.42	5700.000
851.71	290.000
852.01	-1466.667
852.31	216.667
852.61	1833.333
852.90	247.619
853.20	232.000
853.50	311.765
853.79	266.667
854.09	229.167
854.39	343.750
854.68	170.270
854.98	174.194
855.28	176.667
855.57	224.138
855.87	244.444
856.17	226.316
856.46	280.000
856.76	264.706
857.05	203.448
857.35	233.333
857.65	386.667
857.94	208.696
858.24	234.615
858.53	280.000
858.83	290.909
859.13	373.333
859.42	0.000
859.72	644.444
860.01	418.182
860.31	254.545
860.60	294.737
860.90	226.087
861.20	533.333
861.49	525.000
861.79	-4800.000
862.08	700.000
862.38	323.810
862.67	369.231
862.97	317.647
863.26	588.889
863.56	316.667
863.85	358.333
864.15	575.000
864.44	433.333
864.74	866.667
865.03	650.000
865.33	273.684
865.62	518.182
865.92	376.923
866.21	433.333
866.51	0.000
866.80	536.364
867.10	960.000
867.39	476.923
867.69	472.727
867.98	321.053
868.27	481.818
868.57	284.211
868.86	-4100.000
869.16	368.750
869.45	2200.000
869.75	-4300.000
870.04	383.333
870.33	600.000
870.63	1050.000
870.92	2800.000
871.22	728.571
871.51	347.059
871.80	204.762
872.10	400.000
>>>>>End Processed Spectral Data<<<<<
