SpectraSuite Data File
++++++++++++++++++++++++++++++++++++
Date: Wed May 13 19:37:32 PDT 2015
User: schluterlab
Dark Spectrum Present: Yes
Reference Spectrum Present: Yes
Number of Sampled Component Spectra: 1
Spectrometers: USB2E3373
Integration Time (usec): 3000 (USB2E3373)
Spectra Averaged: 3 (USB2E3373)
Boxcar Smoothing: 0 (USB2E3373)
Correct for Electrical Dark: No (USB2E3373)
Strobe/Lamp Enabled: No (USB2E3373)
Correct for Detector Non-linearity: No (USB2E3373)
Correct for Stray Light: No (USB2E3373)
Number of Pixels in Processed Spectrum: 2048
>>>>>Begin Processed Spectral Data<<<<<
178.53	0.000
178.91	-1375.000
179.29	-1150.000
179.67	-227.778
180.04	-1300.000
180.42	2700.000
180.80	1080.000
181.18	-975.000
181.56	714.286
181.94	0.000
182.31	-685.714
182.69	1633.333
183.07	-837.500
183.45	-566.667
183.83	590.909
184.20	-450.000
184.58	2600.000
184.96	6100.000
185.34	-1020.000
185.72	-625.000
186.09	-2600.000
186.47	3100.000
186.85	2900.000
187.23	5600.000
187.61	-2033.333
187.98	1450.000
188.36	545.455
188.74	663.636
189.12	-960.000
189.49	630.000
189.87	-5400.000
190.25	-1300.000
190.63	407.143
191.00	430.769
191.38	950.000
191.76	-1450.000
192.14	1475.000
192.51	687.500
192.89	1200.000
193.27	662.500
193.65	-1250.000
194.02	520.000
194.40	900.000
194.78	560.000
195.15	541.667
195.53	660.000
195.91	-2850.000
196.29	381.250
196.66	326.316
197.04	-450.000
197.42	0.000
197.79	680.000
198.17	-4800.000
198.55	814.286
198.92	737.500
199.30	1040.000
199.68	0.000
200.05	388.889
200.43	828.571
200.81	5300.000
201.18	1666.667
201.56	-1866.667
201.94	611.111
202.31	644.444
202.69	466.667
203.07	520.000
203.44	0.000
203.82	975.000
204.19	800.000
204.57	450.000
204.95	650.000
205.32	1600.000
205.70	590.909
206.08	385.714
206.45	2700.000
206.83	368.750
207.20	933.333
207.58	1140.000
207.96	311.111
208.33	812.500
208.71	-850.000
209.08	785.714
209.46	688.889
209.84	554.545
210.21	-1933.333
210.59	1700.000
210.96	-700.000
211.34	2900.000
211.71	600.000
212.09	816.667
212.46	0.000
212.84	1833.333
213.22	1825.000
213.59	-4500.000
213.97	866.667
214.34	785.714
214.72	654.545
215.09	1160.000
215.47	-2800.000
215.84	-2800.000
216.22	2133.333
216.59	450.000
216.97	1525.000
217.34	572.727
217.72	-816.667
218.09	0.000
218.47	-6100.000
218.84	566.667
219.22	700.000
219.59	1866.667
219.97	-728.571
220.34	1180.000
220.72	-2100.000
221.09	450.000
221.47	1500.000
221.84	-1016.667
222.22	0.000
222.59	1300.000
222.97	-2650.000
223.34	1140.000
223.72	476.923
224.09	1340.000
224.46	2450.000
224.84	-4900.000
225.21	-1160.000
225.59	-5700.000
225.96	690.000
226.34	340.000
226.71	3100.000
227.08	787.500
227.46	610.000
227.83	-1075.000
228.21	-2450.000
228.58	666.667
228.95	-2700.000
229.33	-3000.000
229.70	1900.000
230.08	742.857
230.45	-920.000
230.82	466.667
231.20	850.000
231.57	771.429
231.95	558.333
232.32	286.364
232.69	490.909
233.07	771.429
233.44	430.769
233.81	-1966.667
234.19	326.316
234.56	516.667
234.93	400.000
235.31	536.364
235.68	392.308
236.05	378.571
236.43	196.970
236.80	300.000
237.17	5200.000
237.55	261.905
237.92	214.286
238.29	290.476
238.67	170.968
239.04	206.897
239.41	188.889
239.79	119.565
240.16	166.667
240.53	156.818
240.91	129.412
241.28	122.000
241.65	114.000
242.02	108.696
242.40	95.161
242.77	115.000
243.14	78.495
243.51	88.764
243.89	75.294
244.26	74.444
244.63	73.118
245.00	65.957
245.38	79.208
245.75	69.159
246.12	58.716
246.49	68.613
246.87	63.200
247.24	58.462
247.61	57.857
247.98	49.020
248.36	48.649
248.73	55.414
249.10	54.777
249.47	50.282
249.84	54.545
250.22	45.455
250.59	47.929
250.96	49.495
251.33	48.815
251.70	46.535
252.08	46.190
252.45	45.291
252.82	40.870
253.19	39.574
253.56	42.353
253.94	43.568
254.31	42.969
254.68	40.000
255.05	42.435
255.42	38.618
255.79	38.971
256.16	39.711
256.54	37.456
256.91	38.078
257.28	38.129
257.65	36.634
258.02	36.025
258.39	32.492
258.76	34.783
259.14	35.417
259.51	35.562
259.88	36.335
260.25	35.650
260.62	31.503
260.99	33.851
261.36	37.237
261.73	32.378
262.10	30.523
262.47	36.901
262.85	33.983
263.22	30.484
263.59	36.182
263.96	33.516
264.33	32.637
264.70	33.947
265.07	32.481
265.44	32.828
265.81	30.657
266.18	34.673
266.55	30.732
266.92	30.958
267.29	28.009
267.66	26.147
268.03	32.273
268.40	31.542
268.77	31.026
269.14	31.081
269.51	32.506
269.88	30.536
270.25	27.314
270.62	28.315
270.99	33.333
271.36	29.614
271.73	30.607
272.10	31.957
272.47	29.462
272.84	29.437
273.21	31.656
273.58	26.856
273.95	27.044
274.32	27.273
274.69	28.694
275.06	29.134
275.43	31.702
275.80	27.255
276.17	27.902
276.54	27.443
276.91	29.842
277.28	27.148
277.65	28.046
278.02	26.915
278.39	28.906
278.76	29.636
279.13	28.113
279.50	28.864
279.87	26.494
280.23	26.148
280.60	27.853
280.97	25.878
281.34	29.204
281.71	29.273
282.08	27.831
282.45	26.182
282.82	28.597
283.19	26.381
283.56	27.368
283.92	27.411
284.29	26.102
284.66	24.864
285.03	26.221
285.40	25.880
285.77	24.579
286.14	25.561
286.51	24.167
286.87	25.812
287.24	26.384
287.61	26.485
287.98	25.000
288.35	24.247
288.72	24.922
289.08	25.196
289.45	23.064
289.82	23.740
290.19	22.920
290.56	23.124
290.93	22.961
291.29	23.466
291.66	23.599
292.03	23.837
292.40	24.523
292.77	21.450
293.13	24.030
293.50	22.595
293.87	22.074
294.24	21.481
294.60	20.961
294.97	22.674
295.34	24.401
295.71	22.585
296.08	20.370
296.44	20.908
296.81	20.343
297.18	21.274
297.55	18.470
297.91	19.657
298.28	20.214
298.65	20.888
299.02	20.026
299.38	20.717
299.75	18.733
300.12	20.307
300.48	20.500
300.85	20.592
301.22	19.363
301.59	19.571
301.95	20.151
302.32	20.282
302.69	19.713
303.05	20.121
303.42	19.753
303.79	20.272
304.15	18.881
304.52	18.192
304.89	17.886
305.25	17.749
305.62	19.819
305.99	17.828
306.35	17.450
306.72	19.395
307.09	19.867
307.45	19.032
307.82	16.741
308.19	19.536
308.55	19.849
308.92	17.723
309.29	17.740
309.65	17.603
310.02	18.499
310.38	18.817
310.75	19.007
311.12	18.526
311.48	18.809
311.85	19.497
312.22	18.418
312.58	17.879
312.95	18.902
313.31	18.350
313.68	19.751
314.05	20.611
314.41	20.101
314.78	20.040
315.14	19.265
315.51	20.185
315.87	21.782
316.24	18.967
316.61	19.688
316.97	19.667
317.34	20.059
317.70	22.658
318.07	22.522
318.43	23.581
318.80	22.962
319.16	23.258
319.53	23.077
319.89	24.667
320.26	26.100
320.62	24.802
320.99	26.970
321.35	26.566
321.72	26.694
322.08	27.345
322.45	30.249
322.81	30.039
323.18	31.888
323.54	30.519
323.91	32.170
324.27	33.078
324.64	33.644
325.00	33.634
325.37	34.759
325.73	36.086
326.10	36.099
326.46	36.559
326.83	37.274
327.19	37.831
327.56	38.937
327.92	40.420
328.29	42.236
328.65	42.081
329.01	41.336
329.38	43.571
329.74	42.936
330.11	44.204
330.47	45.271
330.84	44.485
331.20	43.898
331.56	44.495
331.93	47.315
332.29	46.229
332.66	46.549
333.02	46.984
333.38	48.419
333.75	48.663
334.11	49.466
334.48	47.294
334.84	48.070
335.20	49.000
335.57	48.957
335.93	48.125
336.29	48.810
336.66	49.955
337.02	48.507
337.38	50.741
337.75	49.198
338.11	50.134
338.47	50.737
338.84	48.396
339.20	50.550
339.56	52.372
339.93	51.636
340.29	50.453
340.65	51.159
341.02	50.698
341.38	51.068
341.74	51.579
342.11	51.703
342.47	51.366
342.83	51.027
343.20	52.554
343.56	50.885
343.92	52.544
344.28	52.041
344.65	51.763
345.01	51.263
345.37	51.372
345.73	51.438
346.10	51.918
346.46	52.119
346.82	53.707
347.19	53.968
347.55	52.709
347.91	53.317
348.27	53.081
348.63	52.425
349.00	53.155
349.36	54.598
349.72	53.809
350.08	51.459
350.45	53.865
350.81	53.128
351.17	54.376
351.53	54.054
351.89	53.218
352.26	53.197
352.62	54.210
352.98	53.079
353.34	54.889
353.70	54.010
354.07	54.194
354.43	52.381
354.79	54.143
355.15	54.988
355.51	56.675
355.87	56.408
356.24	55.212
356.60	56.536
356.96	56.154
357.32	56.337
357.68	56.457
358.04	56.057
358.40	56.374
358.77	57.355
359.13	56.827
359.49	56.235
359.85	55.556
360.21	56.778
360.57	58.210
360.93	57.846
361.29	56.160
361.66	55.418
362.02	57.313
362.38	57.110
362.74	55.878
363.10	56.995
363.46	56.860
363.82	58.277
364.18	58.737
364.54	58.544
364.90	59.490
365.26	58.971
365.62	59.386
365.98	57.706
366.35	58.596
366.71	59.074
367.07	58.121
367.43	60.450
367.79	58.530
368.15	58.261
368.51	59.230
368.87	59.886
369.23	59.985
369.59	60.898
369.95	60.588
370.31	60.328
370.67	59.783
371.03	60.974
371.39	58.892
371.75	59.853
372.11	59.602
372.47	61.070
372.83	61.599
373.19	60.838
373.55	62.602
373.91	63.328
374.27	58.144
374.63	60.945
374.99	61.582
375.35	60.293
375.71	60.384
376.07	60.905
376.42	61.210
376.78	61.299
377.14	62.212
377.50	60.927
377.86	60.572
378.22	62.642
378.58	61.466
378.94	61.974
379.30	62.150
379.66	62.881
380.02	62.654
380.38	61.263
380.74	62.545
381.09	61.736
381.45	62.385
381.81	62.592
382.17	62.866
382.53	63.396
382.89	63.210
383.25	63.039
383.61	64.374
383.97	62.914
384.32	62.633
384.68	63.135
385.04	62.569
385.40	63.096
385.76	62.469
386.12	62.953
386.48	63.625
386.83	64.464
387.19	63.389
387.55	63.451
387.91	63.059
388.27	61.741
388.62	62.569
388.98	62.899
389.34	63.642
389.70	62.968
390.06	63.371
390.42	64.332
390.77	63.868
391.13	65.029
391.49	64.340
391.85	64.099
392.20	62.208
392.56	62.753
392.92	64.803
393.28	63.018
393.64	62.710
393.99	63.225
394.35	61.787
394.71	62.986
395.07	62.118
395.42	63.164
395.78	63.550
396.14	63.377
396.50	63.095
396.85	64.717
397.21	61.776
397.57	63.112
397.92	62.861
398.28	61.659
398.64	62.425
399.00	61.612
399.35	61.985
399.71	61.806
400.07	63.099
400.42	62.699
400.78	63.631
401.14	62.622
401.49	62.507
401.85	61.585
402.21	60.240
402.57	62.986
402.92	62.043
403.28	62.586
403.63	63.057
403.99	61.592
404.35	61.939
404.70	61.751
405.06	60.804
405.42	62.570
405.77	60.800
406.13	60.666
406.49	61.561
406.84	60.189
407.20	60.875
407.55	61.902
407.91	64.067
408.27	63.114
408.62	60.807
408.98	61.949
409.34	61.747
409.69	62.774
410.05	60.967
410.40	60.245
410.76	61.231
411.11	59.710
411.47	60.447
411.83	61.515
412.18	60.359
412.54	60.897
412.89	60.542
413.25	60.980
413.60	62.199
413.96	59.988
414.31	60.510
414.67	61.153
415.03	59.470
415.38	61.082
415.74	60.193
416.09	61.724
416.45	60.174
416.80	61.599
417.16	61.796
417.51	61.314
417.87	60.180
418.22	59.621
418.58	61.846
418.93	59.889
419.29	59.071
419.64	61.209
420.00	61.280
420.35	59.884
420.71	60.610
421.06	60.740
421.42	61.111
421.77	60.762
422.12	59.966
422.48	60.874
422.83	60.163
423.19	60.552
423.54	61.579
423.90	60.696
424.25	59.408
424.61	60.655
424.96	61.983
425.31	60.465
425.67	58.876
426.02	60.400
426.38	62.515
426.73	60.503
427.09	60.000
427.44	60.897
427.79	61.645
428.15	60.952
428.50	60.328
428.85	61.979
429.21	59.856
429.56	61.897
429.92	60.594
430.27	60.576
430.62	60.010
430.98	60.664
431.33	59.897
431.68	60.890
432.04	59.744
432.39	61.051
432.74	62.118
433.10	61.686
433.45	61.516
433.80	61.142
434.16	60.897
434.51	60.053
434.86	60.832
435.22	61.201
435.57	62.492
435.92	61.439
436.28	62.159
436.63	61.369
436.98	61.591
437.34	61.419
437.69	62.894
438.04	60.877
438.39	61.373
438.75	61.534
439.10	62.961
439.45	61.511
439.81	61.692
440.16	60.587
440.51	61.219
440.86	61.610
441.22	61.624
441.57	60.563
441.92	61.617
442.27	61.895
442.63	61.401
442.98	62.254
443.33	59.728
443.68	60.867
444.03	60.908
444.39	60.029
444.74	60.335
445.09	59.730
445.44	60.470
445.79	60.564
446.15	59.132
446.50	61.712
446.85	61.614
447.20	59.816
447.55	60.860
447.91	60.783
448.26	61.046
448.61	60.543
448.96	62.182
449.31	61.811
449.66	60.720
450.02	60.223
450.37	59.751
450.72	59.842
451.07	60.207
451.42	60.243
451.77	61.773
452.12	60.219
452.47	60.945
452.83	60.548
453.18	59.780
453.53	59.926
453.88	59.598
454.23	60.909
454.58	60.812
454.93	61.856
455.28	60.162
455.63	60.194
455.98	61.131
456.34	60.553
456.69	60.927
457.04	60.991
457.39	59.439
457.74	59.141
458.09	59.344
458.44	59.863
458.79	58.134
459.14	59.537
459.49	59.136
459.84	58.670
460.19	57.867
460.54	57.523
460.89	59.627
461.24	59.502
461.59	59.617
461.94	57.090
462.29	59.466
462.64	59.030
462.99	58.686
463.34	59.000
463.69	60.225
464.04	59.478
464.39	57.565
464.74	58.170
465.09	58.082
465.44	57.507
465.79	57.271
466.14	56.322
466.49	56.507
466.84	57.443
467.19	57.393
467.54	57.812
467.89	56.483
468.24	57.243
468.59	57.875
468.94	55.895
469.29	58.098
469.64	57.564
469.99	58.863
470.34	57.860
470.68	57.543
471.03	57.007
471.38	58.721
471.73	56.429
472.08	58.026
472.43	55.716
472.78	56.024
473.13	57.253
473.48	56.492
473.83	55.915
474.17	56.067
474.52	56.452
474.87	55.984
475.22	55.949
475.57	55.239
475.92	55.178
476.27	55.017
476.61	56.095
476.96	56.075
477.31	55.207
477.66	56.127
478.01	54.208
478.36	55.843
478.70	55.452
479.05	55.431
479.40	55.322
479.75	54.957
480.10	55.517
480.45	54.069
480.79	53.082
481.14	53.816
481.49	53.156
481.84	54.184
482.19	53.430
482.53	53.303
482.88	53.467
483.23	55.000
483.58	53.367
483.92	53.889
484.27	52.549
484.62	52.802
484.97	52.542
485.31	52.637
485.66	51.622
486.01	50.074
486.36	48.340
486.70	47.621
487.05	48.489
487.40	49.898
487.75	50.685
488.09	51.774
488.44	51.701
488.79	52.658
489.13	53.132
489.48	52.243
489.83	51.316
490.17	52.477
490.52	51.107
490.87	52.148
491.22	51.432
491.56	50.387
491.91	51.885
492.26	51.493
492.60	50.829
492.95	50.374
493.30	50.187
493.64	51.423
493.99	50.511
494.34	51.249
494.68	51.282
495.03	51.598
495.37	49.791
495.72	52.242
496.07	50.812
496.41	50.619
496.76	50.616
497.11	50.563
497.45	49.744
497.80	51.200
498.14	49.179
498.49	50.488
498.84	50.575
499.18	49.524
499.53	49.668
499.87	49.674
500.22	48.893
500.56	50.340
500.91	49.375
501.26	49.265
501.60	51.400
501.95	49.450
502.29	50.141
502.64	49.721
502.98	49.462
503.33	48.218
503.67	48.817
504.02	49.579
504.36	48.292
504.71	48.803
505.06	48.771
505.40	48.955
505.75	47.878
506.09	47.570
506.44	49.926
506.78	49.635
507.13	50.530
507.47	48.636
507.82	50.152
508.16	48.936
508.51	49.924
508.85	48.560
509.19	48.367
509.54	49.082
509.88	47.913
510.23	48.946
510.57	49.742
510.92	48.783
511.26	47.996
511.61	48.444
511.95	47.756
512.30	48.303
512.64	47.501
512.98	49.357
513.33	48.126
513.67	47.599
514.02	46.483
514.36	49.208
514.70	47.537
515.05	47.407
515.39	47.841
515.74	47.917
516.08	48.072
516.42	48.224
516.77	47.492
517.11	48.002
517.46	47.630
517.80	48.955
518.14	47.713
518.49	47.141
518.83	47.955
519.17	47.171
519.52	48.048
519.86	47.519
520.20	47.399
520.55	48.235
520.89	47.749
521.23	49.638
521.58	46.218
521.92	48.377
522.26	46.492
522.61	48.723
522.95	46.225
523.29	47.048
523.64	48.171
523.98	47.813
524.32	46.864
524.66	46.542
525.01	45.895
525.35	45.911
525.69	45.998
526.04	47.227
526.38	45.272
526.72	45.521
527.06	47.207
527.41	45.606
527.75	47.331
528.09	46.949
528.43	46.208
528.78	47.511
529.12	44.424
529.46	46.908
529.80	45.297
530.15	45.919
530.49	45.046
530.83	45.696
531.17	47.520
531.51	46.563
531.86	45.548
532.20	46.480
532.54	45.676
532.88	44.994
533.22	45.659
533.57	45.000
533.91	43.588
534.25	45.018
534.59	45.210
534.93	44.735
535.27	44.599
535.62	44.872
535.96	45.198
536.30	44.882
536.64	44.881
536.98	45.189
537.32	44.832
537.66	44.733
538.01	45.030
538.35	44.861
538.69	44.671
539.03	43.925
539.37	43.323
539.71	43.422
540.05	44.575
540.39	44.385
540.73	44.825
541.07	44.452
541.42	44.749
541.76	44.452
542.10	44.567
542.44	44.570
542.78	43.742
543.12	42.738
543.46	44.525
543.80	45.348
544.14	43.774
544.48	43.238
544.82	43.682
545.16	44.242
545.50	43.059
545.84	44.220
546.18	44.512
546.52	44.253
546.86	44.399
547.20	43.358
547.54	42.285
547.88	44.133
548.22	42.964
548.56	43.333
548.90	41.421
549.24	43.973
549.58	44.270
549.92	44.231
550.26	44.318
550.60	41.909
550.94	43.099
551.28	43.965
551.62	44.644
551.96	43.439
552.30	43.072
552.64	44.490
552.98	43.119
553.32	42.751
553.66	43.354
554.00	43.445
554.34	42.098
554.68	43.848
555.02	42.948
555.36	42.937
555.69	42.490
556.03	42.194
556.37	42.087
556.71	42.019
557.05	42.507
557.39	41.917
557.73	42.272
558.07	42.495
558.41	42.692
558.75	41.954
559.08	42.207
559.42	43.840
559.76	43.235
560.10	42.256
560.44	41.719
560.78	40.719
561.12	41.623
561.45	40.808
561.79	41.859
562.13	41.650
562.47	42.008
562.81	41.702
563.15	40.535
563.48	40.981
563.82	41.748
564.16	40.942
564.50	40.690
564.84	40.961
565.17	41.892
565.51	41.534
565.85	39.848
566.19	39.637
566.52	40.722
566.86	40.145
567.20	41.922
567.54	40.297
567.88	38.729
568.21	40.159
568.55	39.838
568.89	39.883
569.23	38.770
569.56	38.138
569.90	37.698
570.24	37.890
570.57	36.858
570.91	36.942
571.25	37.461
571.59	36.907
571.92	36.780
572.26	36.684
572.60	36.486
572.93	36.372
573.27	37.030
573.61	37.800
573.95	36.589
574.28	36.256
574.62	36.224
574.96	35.484
575.29	35.912
575.63	36.331
575.97	36.319
576.30	36.245
576.64	36.063
576.98	35.975
577.31	35.906
577.65	35.461
577.98	35.485
578.32	35.008
578.66	35.556
578.99	35.266
579.33	35.802
579.67	34.639
580.00	35.939
580.34	36.402
580.67	35.334
581.01	35.979
581.35	35.754
581.68	35.336
582.02	34.966
582.35	35.118
582.69	34.395
583.02	35.196
583.36	36.016
583.70	36.414
584.03	35.502
584.37	36.337
584.70	36.233
585.04	35.274
585.37	35.857
585.71	35.714
586.04	35.371
586.38	36.416
586.72	36.426
587.05	35.289
587.39	35.145
587.72	35.661
588.06	36.073
588.39	35.473
588.73	35.905
589.06	35.743
589.40	36.061
589.73	37.064
590.07	36.797
590.40	35.915
590.73	36.924
591.07	37.485
591.40	36.862
591.74	37.662
592.07	36.998
592.41	36.213
592.74	36.180
593.08	35.376
593.41	35.717
593.75	34.510
594.08	35.065
594.41	35.737
594.75	36.414
595.08	35.326
595.42	35.867
595.75	35.648
596.09	36.575
596.42	36.660
596.75	35.922
597.09	37.576
597.42	35.708
597.75	36.050
598.09	36.217
598.42	36.040
598.76	35.063
599.09	34.778
599.42	34.716
599.76	35.066
600.09	34.608
600.42	35.062
600.76	34.643
601.09	35.009
601.42	34.932
601.76	34.877
602.09	35.455
602.42	35.311
602.76	36.155
603.09	35.090
603.42	35.689
603.76	34.870
604.09	34.703
604.42	35.793
604.76	35.512
605.09	35.955
605.42	34.716
605.75	35.803
606.09	35.055
606.42	34.900
606.75	35.297
607.09	35.077
607.42	34.917
607.75	34.473
608.08	34.607
608.42	35.589
608.75	35.122
609.08	35.153
609.41	35.317
609.75	34.636
610.08	36.475
610.41	34.451
610.74	35.620
611.07	35.721
611.41	34.200
611.74	36.099
612.07	36.439
612.40	35.572
612.73	35.737
613.07	36.422
613.40	35.545
613.73	34.819
614.06	34.785
614.39	34.504
614.72	35.000
615.06	35.819
615.39	35.350
615.72	34.356
616.05	34.662
616.38	35.909
616.71	35.511
617.05	36.101
617.38	36.140
617.71	35.736
618.04	36.418
618.37	35.896
618.70	35.594
619.03	36.842
619.36	35.234
619.69	36.549
620.03	37.363
620.36	36.564
620.69	36.301
621.02	37.758
621.35	36.492
621.68	36.059
622.01	36.997
622.34	36.914
622.67	35.894
623.00	34.996
623.33	35.525
623.66	35.954
623.99	36.524
624.32	36.234
624.65	35.664
624.99	35.907
625.32	35.844
625.65	36.138
625.98	36.741
626.31	36.470
626.64	36.735
626.97	36.243
627.30	35.993
627.63	37.080
627.96	38.940
628.29	37.620
628.62	37.786
628.95	40.000
629.28	36.588
629.61	37.947
629.94	38.381
630.26	37.655
630.59	36.320
630.92	36.494
631.25	37.512
631.58	36.737
631.91	38.032
632.24	36.920
632.57	37.041
632.90	39.583
633.23	38.591
633.56	36.949
633.89	37.712
634.22	39.501
634.55	38.817
634.88	37.844
635.20	38.112
635.53	38.193
635.86	39.109
636.19	37.412
636.52	37.832
636.85	38.259
637.18	36.866
637.51	37.234
637.83	37.855
638.16	39.514
638.49	39.295
638.82	39.823
639.15	38.625
639.48	39.401
639.81	39.812
640.13	37.240
640.46	37.584
640.79	37.649
641.12	38.652
641.45	39.106
641.77	41.384
642.10	39.035
642.43	37.988
642.76	36.997
643.09	41.104
643.41	38.240
643.74	40.432
644.07	39.787
644.40	39.571
644.73	41.732
645.05	40.571
645.38	39.021
645.71	41.224
646.04	38.040
646.36	40.401
646.69	40.468
647.02	40.306
647.35	41.065
647.67	40.354
648.00	39.675
648.33	38.944
648.66	38.182
648.98	40.030
649.31	37.967
649.64	37.668
649.96	40.089
650.29	40.126
650.62	36.731
650.94	41.005
651.27	39.696
651.60	39.268
651.92	39.776
652.25	38.436
652.58	39.564
652.90	39.968
653.23	36.826
653.56	38.583
653.88	39.303
654.21	37.915
654.54	37.459
654.86	38.629
655.19	36.892
655.52	25.702
655.84	24.745
656.17	32.164
656.49	43.428
656.82	44.797
657.15	33.981
657.47	25.603
657.80	19.781
658.13	20.985
658.45	31.592
658.78	32.308
659.10	33.853
659.43	35.875
659.75	37.963
660.08	40.949
660.41	43.296
660.73	43.075
661.06	41.561
661.38	42.000
661.71	40.385
662.03	43.393
662.36	38.767
662.68	40.964
663.01	42.424
663.33	41.826
663.66	40.126
663.98	41.685
664.31	40.336
664.63	40.081
664.96	39.839
665.28	40.574
665.61	38.596
665.93	39.235
666.26	40.162
666.58	41.213
666.91	42.072
667.23	42.472
667.56	39.093
667.88	39.103
668.21	41.791
668.53	41.432
668.86	39.177
669.18	42.004
669.50	41.087
669.83	44.662
670.15	43.111
670.48	39.216
670.80	41.379
671.13	43.312
671.45	39.362
671.77	40.937
672.10	38.447
672.42	36.219
672.75	37.645
673.07	37.324
673.39	38.517
673.72	36.914
674.04	40.392
674.37	39.223
674.69	41.718
675.01	38.703
675.34	39.836
675.66	42.526
675.98	39.919
676.31	40.966
676.63	42.251
676.95	38.784
677.28	38.318
677.60	40.220
677.92	42.194
678.25	41.068
678.57	42.430
678.89	39.479
679.22	40.668
679.54	38.168
679.86	37.798
680.18	38.283
680.51	38.298
680.83	37.011
681.15	39.057
681.48	38.563
681.80	37.524
682.12	37.356
682.44	35.977
682.77	40.733
683.09	41.845
683.41	41.907
683.73	43.709
684.06	40.909
684.38	38.356
684.70	40.891
685.02	37.336
685.34	36.447
685.67	37.587
685.99	36.770
686.31	36.177
686.63	34.452
686.96	40.179
687.28	40.433
687.60	37.138
687.92	40.402
688.24	41.255
688.56	39.960
688.89	40.456
689.21	41.921
689.53	40.919
689.85	40.133
690.17	37.474
690.49	40.977
690.82	41.121
691.14	39.509
691.46	36.920
691.78	37.149
692.10	40.289
692.42	41.517
692.74	38.174
693.06	36.596
693.39	39.014
693.71	41.266
694.03	39.579
694.35	39.177
694.67	34.783
694.99	40.488
695.31	39.216
695.63	40.191
695.95	41.320
696.27	37.817
696.59	38.601
696.91	42.228
697.23	37.559
697.56	40.085
697.88	35.787
698.20	37.708
698.52	39.140
698.84	40.757
699.16	38.249
699.48	38.480
699.80	39.614
700.12	43.377
700.44	42.175
700.76	44.199
701.08	39.368
701.40	44.693
701.72	45.773
702.04	44.886
702.36	39.093
702.68	41.360
703.00	40.720
703.32	38.032
703.64	39.678
703.96	42.340
704.28	39.826
704.60	42.229
704.91	41.840
705.23	41.349
705.55	44.850
705.87	47.841
706.19	48.057
706.51	41.745
706.83	44.242
707.15	42.297
707.47	36.869
707.79	38.575
708.11	36.986
708.43	38.571
708.74	42.347
709.06	40.779
709.38	38.845
709.70	47.674
710.02	42.730
710.34	43.333
710.66	38.209
710.98	43.182
711.29	41.860
711.61	42.773
711.93	39.744
712.25	43.408
712.57	45.221
712.89	46.713
713.20	38.298
713.52	44.079
713.84	44.304
714.16	40.854
714.48	39.080
714.80	42.553
715.11	42.363
715.43	39.466
715.75	37.101
716.07	43.131
716.39	45.141
716.70	42.525
717.02	45.683
717.34	44.523
717.66	44.403
717.97	49.004
718.29	44.815
718.61	44.526
718.93	42.647
719.24	43.945
719.56	42.034
719.88	45.424
720.20	43.243
720.51	43.554
720.83	50.558
721.15	45.522
721.46	43.617
721.78	46.953
722.10	46.792
722.42	50.752
722.73	43.071
723.05	45.492
723.37	44.939
723.68	46.332
724.00	46.748
724.32	44.355
724.63	43.089
724.95	47.280
725.27	49.393
725.58	44.141
725.90	47.080
726.22	45.283
726.53	45.139
726.85	41.980
727.16	43.772
727.48	40.071
727.80	45.455
728.11	43.478
728.43	47.308
728.74	41.577
729.06	48.905
729.38	50.368
729.69	41.281
730.01	44.369
730.32	39.931
730.64	44.147
730.96	41.254
731.27	43.709
731.59	44.037
731.90	42.274
732.22	40.683
732.53	38.390
732.85	37.179
733.16	41.801
733.48	41.528
733.80	46.104
734.11	41.083
734.43	39.053
734.74	38.571
735.06	39.542
735.37	44.509
735.69	39.809
736.00	42.484
736.32	41.745
736.63	40.256
736.95	39.936
737.26	35.714
737.58	40.645
737.89	39.799
738.21	43.345
738.52	42.500
738.83	42.264
739.15	41.154
739.46	45.985
739.78	39.931
740.09	38.462
740.41	40.968
740.72	38.328
741.04	40.000
741.35	44.583
741.66	53.333
741.98	43.868
742.29	49.282
742.61	52.586
742.92	45.701
743.23	41.453
743.55	44.400
743.86	48.684
744.18	49.115
744.49	49.282
744.80	50.704
745.12	51.364
745.43	46.696
745.74	47.297
746.06	50.917
746.37	48.430
746.68	51.131
747.00	50.463
747.31	47.143
747.62	43.363
747.94	47.137
748.25	45.532
748.56	48.899
748.88	51.485
749.19	52.000
749.50	45.116
749.82	43.496
750.13	42.041
750.44	41.241
750.75	42.456
751.07	42.444
751.38	47.038
751.69	42.960
752.01	41.353
752.32	39.711
752.63	41.489
752.94	46.311
753.26	47.600
753.57	43.496
753.88	45.312
754.19	36.429
754.51	45.139
754.82	41.155
755.13	40.377
755.44	40.977
755.75	45.620
756.07	40.426
756.38	39.051
756.69	36.913
757.00	39.820
757.31	38.279
757.63	38.889
757.94	34.853
758.25	35.784
758.56	36.790
758.87	35.753
759.18	40.000
759.50	39.812
759.81	38.629
760.12	37.187
760.43	38.395
760.74	36.413
761.05	38.136
761.36	37.968
761.67	40.625
761.99	37.578
762.30	41.667
762.61	38.550
762.92	45.312
763.23	52.521
763.54	40.400
763.85	44.141
764.16	46.923
764.47	45.247
764.78	39.223
765.10	36.709
765.41	41.593
765.72	38.922
766.03	40.752
766.34	42.000
766.65	45.957
766.96	44.872
767.27	49.746
767.58	50.521
767.89	50.526
768.20	52.299
768.51	45.685
768.82	48.624
769.13	44.715
769.44	44.939
769.75	44.635
770.06	41.743
770.37	51.131
770.68	46.759
770.99	45.333
771.30	42.623
771.61	48.879
771.92	46.311
772.23	47.899
772.54	48.718
772.85	55.497
773.16	54.255
773.47	57.065
773.78	46.701
774.09	50.000
774.39	54.971
774.70	47.531
775.01	60.145
775.32	58.170
775.63	57.237
775.94	61.871
776.25	69.291
776.56	67.164
776.87	59.836
777.18	60.938
777.48	63.359
777.79	65.152
778.10	54.074
778.41	58.036
778.72	58.394
779.03	57.718
779.34	60.403
779.65	54.054
779.95	53.988
780.26	59.477
780.57	59.310
780.88	75.781
781.19	65.414
781.50	65.541
781.80	51.572
782.11	52.542
782.42	48.734
782.73	42.945
783.04	60.811
783.34	64.789
783.65	71.918
783.96	63.433
784.27	53.846
784.57	56.835
784.88	63.889
785.19	64.286
785.50	73.585
785.81	69.403
786.11	69.672
786.42	65.116
786.73	68.142
787.04	70.755
787.34	67.857
787.65	78.000
787.96	68.468
788.26	71.901
788.57	78.814
788.88	70.248
789.19	59.028
789.49	66.667
789.80	60.305
790.11	75.238
790.41	80.198
790.72	79.518
791.03	70.652
791.33	83.721
791.64	79.381
791.95	81.188
792.25	84.444
792.56	90.909
792.87	94.872
793.17	96.203
793.48	80.460
793.79	81.609
794.09	70.455
794.40	63.866
794.70	61.765
795.01	57.037
795.32	58.993
795.62	66.929
795.93	67.241
796.23	67.257
796.54	94.118
796.85	87.838
797.15	100.000
797.46	95.455
797.76	93.976
798.07	94.937
798.37	96.923
798.68	95.455
798.99	84.507
799.29	93.506
799.60	87.500
799.90	109.589
800.21	101.493
800.51	106.897
800.82	126.316
801.12	98.361
801.43	112.121
801.73	90.541
802.04	115.873
802.34	93.827
802.65	103.125
802.95	108.475
803.26	125.000
803.56	108.571
803.87	98.462
804.17	102.941
804.48	124.074
804.78	115.517
805.09	104.412
805.39	115.385
805.70	98.214
806.00	118.033
806.30	103.030
806.61	78.049
806.91	77.215
807.22	86.842
807.52	82.090
807.83	94.366
808.13	107.812
808.43	113.333
808.74	75.000
809.04	100.000
809.35	116.418
809.65	103.947
809.95	132.258
810.26	103.390
810.56	107.937
810.86	170.455
811.17	169.048
811.47	125.000
811.77	118.519
812.08	127.273
812.38	134.000
812.69	186.111
812.99	154.545
813.29	151.020
813.59	130.952
813.90	138.776
814.20	110.909
814.50	100.000
814.81	105.882
815.11	132.653
815.41	116.393
815.72	178.571
816.02	123.636
816.32	154.762
816.62	155.000
816.93	129.268
817.23	166.667
817.53	138.636
817.84	206.061
818.14	136.957
818.44	108.889
818.74	182.353
819.04	140.000
819.35	168.571
819.65	208.824
819.95	217.857
820.25	220.000
820.56	169.231
820.86	150.000
821.16	155.814
821.46	146.154
821.76	152.000
822.07	171.429
822.37	152.500
822.67	178.788
822.97	135.294
823.27	221.429
823.57	151.351
823.88	152.500
824.18	210.000
824.48	171.429
824.78	232.000
825.08	179.167
825.38	162.162
825.69	131.707
825.99	245.833
826.29	206.897
826.59	165.789
826.89	157.895
827.19	208.824
827.49	174.194
827.79	186.364
828.09	138.636
828.39	136.170
828.70	136.735
829.00	196.296
829.30	174.194
829.60	167.500
829.90	313.333
830.20	217.857
830.50	247.826
830.80	252.174
831.10	223.333
831.40	243.333
831.70	243.478
832.00	242.308
832.30	192.593
832.60	362.500
832.90	213.333
833.20	414.286
833.50	229.032
833.80	179.310
834.10	184.375
834.40	234.615
834.70	327.778
835.00	280.952
835.30	194.286
835.60	315.385
835.90	193.103
836.20	350.000
836.50	193.103
836.80	188.000
837.10	202.778
837.40	271.429
837.70	335.294
838.00	262.963
838.30	295.238
838.60	304.762
838.90	211.538
839.19	325.000
839.49	414.286
839.79	320.000
840.09	270.000
840.39	323.810
840.69	295.652
840.99	338.889
841.29	490.000
841.59	458.333
841.88	362.500
842.18	210.345
842.48	328.571
842.78	243.333
843.08	260.870
843.38	215.625
843.68	983.333
843.97	215.385
844.27	206.897
844.57	319.048
844.87	400.000
845.17	270.370
845.47	1700.000
845.76	555.556
846.06	347.059
846.36	612.500
846.66	450.000
846.96	275.000
847.25	509.091
847.55	527.273
847.85	282.609
848.15	530.000
848.44	392.857
848.74	283.333
849.04	376.471
849.34	540.000
849.63	284.211
849.93	518.182
850.23	1040.000
850.53	435.714
850.82	2550.000
851.12	-4600.000
851.42	5400.000
851.71	300.000
852.01	-1600.000
852.31	258.333
852.61	1933.333
852.90	276.190
853.20	256.000
853.50	370.588
853.79	314.286
854.09	208.333
854.39	375.000
854.68	186.486
854.98	196.774
855.28	203.333
855.57	241.379
855.87	222.222
856.17	268.421
856.46	326.667
856.76	364.706
857.05	220.690
857.35	225.000
857.65	406.667
857.94	239.130
858.24	300.000
858.53	345.000
858.83	304.545
859.13	406.667
859.42	0.000
859.72	644.444
860.01	500.000
860.31	268.182
860.60	305.263
860.90	239.130
861.20	677.778
861.49	466.667
861.79	-5700.000
862.08	675.000
862.38	323.810
862.67	315.385
862.97	347.059
863.26	500.000
863.56	388.889
863.85	391.667
864.15	675.000
864.44	420.000
864.74	1083.333
865.03	675.000
865.33	336.842
865.62	500.000
865.92	476.923
866.21	333.333
866.51	0.000
866.80	581.818
867.10	1060.000
867.39	492.308
867.69	545.455
867.98	305.263
868.27	554.545
868.57	357.895
868.86	-4600.000
869.16	406.250
869.45	2550.000
869.75	-5100.000
870.04	466.667
870.33	671.429
870.63	1375.000
870.92	2600.000
871.22	785.714
871.51	376.471
871.80	247.619
872.10	385.714
>>>>>End Processed Spectral Data<<<<<
