SpectraSuite Data File
++++++++++++++++++++++++++++++++++++
Date: Wed May 13 19:54:37 PDT 2015
User: schluterlab
Dark Spectrum Present: Yes
Reference Spectrum Present: Yes
Number of Sampled Component Spectra: 1
Spectrometers: USB2E3373
Integration Time (usec): 3000 (USB2E3373)
Spectra Averaged: 3 (USB2E3373)
Boxcar Smoothing: 0 (USB2E3373)
Correct for Electrical Dark: No (USB2E3373)
Strobe/Lamp Enabled: No (USB2E3373)
Correct for Detector Non-linearity: No (USB2E3373)
Correct for Stray Light: No (USB2E3373)
Number of Pixels in Processed Spectrum: 2048
>>>>>Begin Processed Spectral Data<<<<<
178.53	0.000
178.91	-1100.000
179.29	-1625.000
179.67	-233.333
180.04	-1375.000
180.42	2750.000
180.80	1040.000
181.18	-1275.000
181.56	742.857
181.94	0.000
182.31	-657.143
182.69	1800.000
183.07	-600.000
183.45	-611.111
183.83	645.455
184.20	-400.000
184.58	2300.000
184.96	6400.000
185.34	-900.000
185.72	-587.500
186.09	-3000.000
186.47	2600.000
186.85	2700.000
187.23	5200.000
187.61	-1500.000
187.98	1475.000
188.36	509.091
188.74	545.455
189.12	-880.000
189.49	580.000
189.87	-5200.000
190.25	-1350.000
190.63	414.286
191.00	453.846
191.38	900.000
191.76	-1425.000
192.14	1550.000
192.51	662.500
192.89	933.333
193.27	612.500
193.65	-875.000
194.02	570.000
194.40	1140.000
194.78	580.000
195.15	566.667
195.53	640.000
195.91	-2550.000
196.29	393.750
196.66	326.316
197.04	-300.000
197.42	0.000
197.79	610.000
198.17	-5200.000
198.55	842.857
198.92	800.000
199.30	980.000
199.68	0.000
200.05	388.889
200.43	742.857
200.81	5800.000
201.18	1766.667
201.56	-2000.000
201.94	633.333
202.31	600.000
202.69	500.000
203.07	670.000
203.44	0.000
203.82	1000.000
204.19	814.286
204.57	457.143
204.95	775.000
205.32	1333.333
205.70	481.818
206.08	457.143
206.45	3100.000
206.83	356.250
207.20	966.667
207.58	820.000
207.96	305.556
208.33	750.000
208.71	-900.000
209.08	842.857
209.46	655.556
209.84	509.091
210.21	-1600.000
210.59	1475.000
210.96	-537.500
211.34	2800.000
211.71	580.000
212.09	700.000
212.46	0.000
212.84	1766.667
213.22	1500.000
213.59	-5100.000
213.97	916.667
214.34	942.857
214.72	554.545
215.09	1060.000
215.47	-2550.000
215.84	-2650.000
216.22	1833.333
216.59	400.000
216.97	1450.000
217.34	518.182
217.72	-650.000
218.09	0.000
218.47	-4300.000
218.84	611.111
219.22	814.286
219.59	1533.333
219.97	-685.714
220.34	1000.000
220.72	-1700.000
221.09	414.286
221.47	1675.000
221.84	-1150.000
222.22	0.000
222.59	1350.000
222.97	-2450.000
223.34	1400.000
223.72	461.538
224.09	1020.000
224.46	2250.000
224.84	-4400.000
225.21	-880.000
225.59	-4300.000
225.96	600.000
226.34	320.000
226.71	2900.000
227.08	562.500
227.46	470.000
227.83	-1300.000
228.21	-2350.000
228.58	544.444
228.95	-2450.000
229.33	-2100.000
229.70	1800.000
230.08	800.000
230.45	-880.000
230.82	383.333
231.20	816.667
231.57	828.571
231.95	508.333
232.32	295.455
232.69	490.909
233.07	514.286
233.44	407.692
233.81	-1966.667
234.19	326.316
234.56	408.333
234.93	416.667
235.31	572.727
235.68	346.154
236.05	328.571
236.43	212.121
236.80	315.789
237.17	4800.000
237.55	195.238
237.92	207.143
238.29	261.905
238.67	141.935
239.04	182.759
239.41	138.889
239.79	130.435
240.16	157.143
240.53	127.273
240.91	105.882
241.28	122.000
241.65	92.000
242.02	101.449
242.40	111.290
242.77	100.000
243.14	75.269
243.51	89.888
243.89	75.294
244.26	63.333
244.63	74.194
245.00	67.021
245.38	72.277
245.75	56.075
246.12	58.716
246.49	64.964
246.87	59.200
247.24	59.231
247.61	43.571
247.98	50.980
248.36	46.622
248.73	47.134
249.10	45.860
249.47	37.853
249.84	41.176
250.22	40.107
250.59	39.645
250.96	40.404
251.33	44.076
251.70	45.545
252.08	40.952
252.45	44.395
252.82	35.652
253.19	40.000
253.56	38.824
253.94	37.344
254.31	32.422
254.68	37.692
255.05	35.055
255.42	36.179
255.79	35.662
256.16	35.018
256.54	35.689
256.91	35.587
257.28	25.540
257.65	34.983
258.02	31.056
258.39	31.546
258.76	31.773
259.14	34.226
259.51	27.964
259.88	29.814
260.25	32.024
260.62	31.503
260.99	29.503
261.36	32.132
261.73	30.946
262.10	27.035
262.47	28.451
262.85	29.805
263.22	26.781
263.59	33.048
263.96	27.747
264.33	28.460
264.70	25.000
265.07	26.854
265.44	28.535
265.81	27.737
266.18	28.141
266.55	30.000
266.92	27.027
267.29	30.787
267.66	23.853
268.03	25.227
268.40	26.636
268.77	26.492
269.14	27.928
269.51	28.442
269.88	27.040
270.25	29.120
270.62	26.292
270.99	27.312
271.36	24.464
271.73	25.234
272.10	27.174
272.47	24.516
272.84	24.892
273.21	26.625
273.58	22.489
273.95	25.157
274.32	24.793
274.69	24.839
275.06	22.244
275.43	25.319
275.80	25.451
276.17	25.662
276.54	25.988
276.91	25.692
277.28	24.805
277.65	23.211
278.02	21.946
278.39	25.000
278.76	24.364
279.13	23.396
279.50	24.581
279.87	25.299
280.23	22.355
280.60	22.631
280.97	22.181
281.34	22.478
281.71	25.273
282.08	25.912
282.45	22.909
282.82	21.492
283.19	20.856
283.56	21.930
283.92	24.535
284.29	22.399
284.66	22.142
285.03	22.604
285.40	23.944
285.77	20.707
286.14	21.416
286.51	19.500
286.87	22.222
287.24	20.195
287.61	22.151
287.98	21.104
288.35	21.870
288.72	20.249
289.08	21.283
289.45	19.934
289.82	21.301
290.19	20.879
290.56	20.214
290.93	18.731
291.29	19.939
291.66	20.501
292.03	22.093
292.40	21.586
292.77	19.379
293.13	22.090
293.50	19.096
293.87	19.407
294.24	16.889
294.60	19.505
294.97	18.023
295.34	20.028
295.71	19.602
296.08	17.236
296.44	18.982
296.81	17.173
297.18	19.106
297.55	15.040
297.91	17.810
298.28	17.938
298.65	17.755
299.02	18.445
299.38	17.663
299.75	14.151
300.12	15.837
300.48	17.125
300.85	16.646
301.22	17.325
301.59	16.035
301.95	17.003
302.32	16.560
302.69	17.324
303.05	16.485
303.42	15.802
303.79	16.308
304.15	14.802
304.52	16.338
304.89	15.447
305.25	13.805
305.62	14.723
305.99	15.821
306.35	16.443
306.72	16.816
307.09	15.316
307.45	17.793
307.82	13.839
308.19	15.563
308.55	15.426
308.92	14.501
309.29	14.572
309.65	13.892
310.02	15.011
310.38	13.978
310.75	14.784
311.12	15.865
311.48	15.569
311.85	15.514
312.22	14.776
312.58	15.385
312.95	15.312
313.31	14.466
313.68	16.112
314.05	16.272
314.41	16.080
314.78	15.811
315.14	14.598
315.51	15.036
315.87	15.050
316.24	16.683
316.61	15.887
316.97	15.558
317.34	16.634
317.70	16.252
318.07	16.843
318.43	16.341
318.80	16.870
319.16	16.761
319.53	16.792
319.89	17.714
320.26	19.000
320.62	19.048
320.99	18.283
321.35	18.384
321.72	19.713
322.08	19.250
322.45	19.104
322.81	20.252
323.18	22.254
323.54	20.501
323.91	21.132
324.27	20.937
324.64	19.664
325.00	20.649
325.37	21.838
325.73	22.172
326.10	20.741
326.46	23.297
326.83	22.865
327.19	23.570
327.56	22.648
327.92	23.710
328.29	24.224
328.65	24.862
329.01	24.819
329.38	25.347
329.74	25.854
330.11	24.317
330.47	25.895
330.84	26.930
331.20	25.319
331.56	26.881
331.93	26.204
332.29	26.087
332.66	26.283
333.02	27.148
333.38	27.371
333.75	26.471
334.11	27.580
334.48	27.063
334.84	28.217
335.20	27.727
335.57	26.473
335.93	27.589
336.29	27.839
336.66	28.404
337.02	27.511
337.38	28.796
337.75	27.540
338.11	29.096
338.47	28.821
338.84	29.698
339.20	27.982
339.56	29.745
339.93	27.636
340.29	29.257
340.65	28.699
341.02	30.105
341.38	29.982
341.74	28.070
342.11	29.782
342.47	29.692
342.83	28.853
343.20	31.342
343.56	29.907
343.92	29.123
344.28	28.741
344.65	30.868
345.01	29.209
345.37	29.245
345.73	29.103
346.10	30.350
346.46	29.407
346.82	30.643
347.19	29.657
347.55	29.475
347.91	30.583
348.27	30.649
348.63	29.933
349.00	29.773
349.36	31.117
349.72	30.072
350.08	29.984
350.45	31.326
350.81	31.113
351.17	30.956
351.53	30.385
351.89	29.538
352.26	31.018
352.62	30.794
352.98	31.280
353.34	31.224
353.70	29.051
354.07	31.290
354.43	30.159
354.79	30.169
355.15	29.529
355.51	31.255
355.87	31.510
356.24	31.270
356.60	30.473
356.96	30.973
357.32	31.643
357.68	31.496
358.04	30.879
358.40	31.196
358.77	32.081
359.13	30.939
359.49	31.294
359.85	29.524
360.21	29.904
360.57	31.907
360.93	31.923
361.29	31.670
361.66	30.650
362.02	30.970
362.38	31.635
362.74	31.696
363.10	30.348
363.46	30.741
363.82	31.897
364.18	31.351
364.54	31.649
364.90	31.870
365.26	30.662
365.62	31.921
365.98	31.264
366.35	30.372
366.71	31.960
367.07	31.682
367.43	30.842
367.79	31.977
368.15	32.471
368.51	31.395
368.87	31.549
369.23	32.480
369.59	31.282
369.95	30.662
370.31	32.194
370.67	30.725
371.03	31.985
371.39	31.851
371.75	31.544
372.11	31.366
372.47	32.845
372.83	32.349
373.19	31.286
373.55	31.633
373.91	33.505
374.27	31.203
374.63	32.145
374.99	31.427
375.35	31.542
375.71	31.323
376.07	32.373
376.42	32.393
376.78	32.273
377.14	33.039
377.50	32.649
377.86	31.649
378.22	31.226
378.58	31.328
378.94	32.181
379.30	31.616
379.66	32.868
380.02	32.310
380.38	32.058
380.74	31.873
381.09	32.518
381.45	32.084
381.81	32.248
382.17	31.911
382.53	32.453
382.89	32.469
383.25	31.582
383.61	32.900
383.97	32.833
384.32	31.878
384.68	32.528
385.04	32.268
385.40	32.012
385.76	32.617
386.12	32.513
386.48	32.851
386.83	32.457
387.19	33.457
387.55	32.035
387.91	32.104
388.27	32.434
388.62	32.452
388.98	32.432
389.34	33.104
389.70	33.109
390.06	33.840
390.42	33.333
390.77	32.634
391.13	33.631
391.49	32.487
391.85	33.036
392.20	31.672
392.56	33.207
392.92	32.961
393.28	32.426
393.64	32.434
393.99	32.682
394.35	33.127
394.71	32.246
395.07	32.835
395.42	32.695
395.78	32.824
396.14	32.775
396.50	33.835
396.85	33.249
397.21	32.737
397.57	32.672
397.92	32.392
398.28	32.511
398.64	32.616
399.00	32.009
399.35	32.318
399.71	33.391
400.07	33.176
400.42	33.374
400.78	33.836
401.14	33.720
401.49	32.239
401.85	32.426
402.21	33.353
402.57	33.251
402.92	33.544
403.28	32.730
403.63	32.921
403.99	32.611
404.35	32.848
404.70	32.074
405.06	31.858
405.42	33.313
405.77	32.514
406.13	32.506
406.49	31.875
406.84	32.428
407.20	31.738
407.55	32.929
407.91	33.800
408.27	32.291
408.62	32.992
408.98	31.495
409.34	33.026
409.69	32.839
410.05	33.024
410.40	31.927
410.76	32.258
411.11	32.569
411.47	31.629
411.83	32.437
412.18	31.602
412.54	32.316
412.89	31.867
413.25	31.582
413.60	33.230
413.96	32.058
414.31	31.896
414.67	32.510
415.03	32.384
415.38	31.765
415.74	31.768
416.09	32.266
416.45	32.195
416.80	32.056
417.16	32.507
417.51	32.449
417.87	32.177
418.22	32.808
418.58	32.537
418.93	31.818
419.29	31.954
419.64	31.927
420.00	31.524
420.35	31.478
420.71	32.815
421.06	30.668
421.42	30.819
421.77	31.110
422.12	30.713
422.48	30.599
422.83	31.450
423.19	31.934
423.54	31.283
423.90	30.609
424.25	31.044
424.61	31.310
424.96	32.070
425.31	31.063
425.67	29.944
426.02	30.171
426.38	31.929
426.73	30.135
427.09	29.909
427.44	30.247
427.79	30.822
428.15	30.833
428.50	29.959
428.85	30.274
429.21	29.542
429.56	30.067
429.92	29.139
430.27	29.643
430.62	29.595
430.98	30.150
431.33	28.866
431.68	29.372
432.04	29.766
432.39	29.469
432.74	30.102
433.10	30.108
433.45	30.087
433.80	29.379
434.16	28.953
434.51	29.421
434.86	29.590
435.22	29.238
435.57	29.787
435.92	29.257
436.28	29.478
436.63	30.022
436.98	28.849
437.34	28.921
437.69	29.405
438.04	29.005
438.39	29.134
438.75	28.879
439.10	29.162
439.45	29.457
439.81	28.701
440.16	28.741
440.51	29.057
440.86	28.431
441.22	27.976
441.57	28.185
441.92	28.608
442.27	28.364
442.63	28.120
442.98	28.620
443.33	27.609
443.68	27.672
444.03	28.258
444.39	27.702
444.74	27.976
445.09	28.787
445.44	27.884
445.79	27.412
446.15	28.216
446.50	28.218
446.85	27.749
447.20	27.894
447.55	27.917
447.91	27.468
448.26	28.214
448.61	27.417
448.96	29.236
449.31	28.178
449.66	27.968
450.02	27.409
450.37	26.644
450.72	27.468
451.07	26.752
451.42	27.720
451.77	27.305
452.12	27.425
452.47	27.861
452.83	27.156
453.18	26.711
453.53	27.458
453.88	26.580
454.23	27.256
454.58	27.801
454.93	28.353
455.28	27.057
455.63	26.335
455.98	28.155
456.34	26.696
456.69	27.426
457.04	26.935
457.39	26.943
457.74	26.930
458.09	26.452
458.44	26.055
458.79	25.434
459.14	26.862
459.49	26.562
459.84	25.374
460.19	25.987
460.54	25.058
460.89	24.959
461.24	26.533
461.59	27.542
461.94	25.524
462.29	26.231
462.64	25.463
462.99	25.179
463.34	26.600
463.69	25.328
464.04	25.333
464.39	24.638
464.74	25.609
465.09	25.151
465.44	24.211
465.79	24.609
466.14	24.412
466.49	24.416
466.84	25.161
467.19	25.407
467.54	25.625
467.89	24.670
468.24	24.898
468.59	26.129
468.94	24.313
469.29	24.743
469.64	25.502
469.99	25.507
470.34	24.240
470.68	24.928
471.03	25.306
471.38	25.434
471.73	24.983
472.08	25.263
472.43	24.246
472.78	24.621
473.13	25.546
473.48	24.469
473.83	24.451
474.17	23.709
474.52	24.380
474.87	24.110
475.22	23.680
475.57	22.998
475.92	23.420
476.27	22.943
476.61	23.331
476.96	22.650
477.31	22.397
477.66	22.867
478.01	23.105
478.36	23.638
478.70	22.845
479.05	23.269
479.40	23.286
479.75	23.132
480.10	22.366
480.45	22.037
480.79	22.026
481.14	21.869
481.49	22.117
481.84	21.994
482.19	22.308
482.53	22.018
482.88	21.824
483.23	22.523
483.58	22.247
483.92	22.165
484.27	20.697
484.62	21.509
484.97	21.285
485.31	21.438
485.66	20.059
486.01	19.289
486.36	18.595
486.70	18.594
487.05	19.238
487.40	19.765
487.75	19.496
488.09	20.291
488.44	20.380
488.79	20.832
489.13	20.741
489.48	20.718
489.83	20.889
490.17	21.526
490.52	21.036
490.87	21.710
491.22	21.191
491.56	20.547
491.91	20.940
492.26	20.257
492.60	21.152
492.95	20.486
493.30	20.421
493.64	20.905
493.99	20.427
494.34	19.935
494.68	21.108
495.03	21.241
495.37	20.568
495.72	21.101
496.07	20.046
496.41	20.044
496.76	20.536
497.11	19.811
497.45	20.401
497.80	20.585
498.14	19.758
498.49	20.146
498.84	20.470
499.18	20.286
499.53	19.706
499.87	19.758
500.22	20.349
500.56	20.874
500.91	19.567
501.26	20.247
501.60	20.740
501.95	20.165
502.29	20.478
502.64	20.438
502.98	19.776
503.33	19.561
503.67	19.861
504.02	19.551
504.36	19.186
504.71	19.883
505.06	20.048
505.40	18.960
505.75	18.611
506.09	19.485
506.44	19.980
506.78	19.922
507.13	19.687
507.47	20.505
507.82	20.466
508.16	19.959
508.51	19.939
508.85	19.662
509.19	19.439
509.54	19.796
509.88	19.320
510.23	19.229
510.57	20.021
510.92	20.300
511.26	19.681
511.61	19.606
511.95	19.207
512.30	19.353
512.64	19.828
512.98	19.185
513.33	20.289
513.67	19.584
514.02	19.589
514.36	19.989
514.70	19.480
515.05	19.353
515.39	19.854
515.74	19.764
516.08	19.061
516.42	20.588
516.77	19.287
517.11	19.645
517.46	19.865
517.80	19.454
518.14	18.703
518.49	19.837
518.83	19.489
519.17	19.457
519.52	20.430
519.86	19.681
520.20	19.884
520.55	19.090
520.89	19.161
521.23	20.386
521.58	20.108
521.92	20.024
522.26	19.341
522.61	20.374
522.95	19.644
523.29	19.355
523.64	20.061
523.98	19.100
524.32	18.637
524.66	19.242
525.01	19.669
525.35	19.393
525.69	18.842
526.04	19.128
526.38	19.402
526.72	19.571
527.06	20.402
527.41	17.946
527.75	18.521
528.09	20.617
528.43	19.248
528.78	18.808
529.12	19.455
529.46	19.657
529.80	20.235
530.15	19.751
530.49	19.138
530.83	19.684
531.17	19.909
531.51	20.752
531.86	19.032
532.20	20.469
532.54	19.090
532.88	19.448
533.22	18.676
533.57	19.321
533.91	18.603
534.25	19.320
534.59	18.243
534.93	18.798
535.27	18.648
535.62	18.803
535.96	19.083
536.30	18.945
536.64	18.867
536.98	19.443
537.32	18.697
537.66	18.867
538.01	19.026
538.35	18.811
538.69	19.592
539.03	18.389
539.37	18.403
539.71	17.628
540.05	18.366
540.39	18.738
540.73	18.047
541.07	19.208
541.42	18.265
541.76	19.613
542.10	18.564
542.44	18.477
542.78	18.906
543.12	18.042
543.46	19.082
543.80	18.347
544.14	18.357
544.48	19.873
544.82	17.575
545.16	18.217
545.50	17.866
545.84	18.414
546.18	19.259
546.52	18.513
546.86	18.557
547.20	18.139
547.54	17.702
547.88	18.878
548.22	17.995
548.56	19.057
548.90	18.502
549.24	18.788
549.58	18.895
549.92	18.338
550.26	19.602
550.60	17.773
550.94	18.310
551.28	17.922
551.62	18.620
551.96	19.158
552.30	19.317
552.64	18.999
552.98	18.237
553.32	18.341
553.66	18.814
554.00	18.531
554.34	18.496
554.68	19.099
555.02	18.618
555.36	17.884
555.69	17.727
556.03	17.631
556.37	18.622
556.71	18.008
557.05	19.328
557.39	18.684
557.73	18.278
558.07	18.999
558.41	17.077
558.75	18.442
559.08	18.941
559.42	18.896
559.76	18.603
560.10	18.630
560.44	18.099
560.78	17.232
561.12	17.480
561.45	17.992
561.79	17.469
562.13	18.243
562.47	16.872
562.81	17.992
563.15	17.860
563.48	17.440
563.82	17.743
564.16	17.201
564.50	16.536
564.84	17.699
565.17	17.696
565.51	18.339
565.85	17.576
566.19	17.658
566.52	17.163
566.86	16.637
567.20	17.748
567.54	17.237
567.88	16.784
568.21	16.614
568.55	16.684
568.89	16.002
569.23	15.820
569.56	15.951
569.90	15.472
570.24	15.501
570.57	15.267
570.91	14.447
571.25	14.608
571.59	14.698
571.92	14.545
572.26	14.529
572.60	14.775
572.93	14.303
573.27	14.759
573.61	15.131
573.95	14.341
574.28	14.095
574.62	14.383
574.96	13.668
575.29	13.919
575.63	14.761
575.97	14.475
576.30	14.445
576.64	14.304
576.98	14.390
577.31	14.187
577.65	13.637
577.98	13.731
578.32	13.701
578.66	13.732
578.99	13.832
579.33	13.871
579.67	14.181
580.00	13.930
580.34	13.930
580.67	13.874
581.01	14.032
581.35	13.725
581.68	13.688
582.02	13.416
582.35	13.779
582.69	13.872
583.02	13.664
583.36	14.180
583.70	14.261
584.03	14.237
584.37	14.625
584.70	13.819
585.04	13.821
585.37	13.653
585.71	14.215
586.04	14.158
586.38	13.819
586.72	14.195
587.05	14.099
587.39	13.588
587.72	13.991
588.06	13.821
588.39	14.239
588.73	14.227
589.06	14.615
589.40	14.848
589.73	14.572
590.07	15.125
590.40	14.505
590.73	14.754
591.07	15.629
591.40	15.900
591.74	15.281
592.07	15.401
592.41	14.551
592.74	14.794
593.08	14.124
593.41	14.331
593.75	13.554
594.08	14.381
594.41	14.422
594.75	14.750
595.08	14.460
595.42	14.606
595.75	14.850
596.09	14.870
596.42	15.442
596.75	15.323
597.09	15.887
597.42	14.334
597.75	15.438
598.09	14.522
598.42	14.648
598.76	14.593
599.09	14.367
599.42	14.119
599.76	14.275
600.09	13.953
600.42	13.952
600.76	14.071
601.09	14.390
601.42	14.954
601.76	14.725
602.09	14.822
602.42	14.689
602.76	15.437
603.09	14.516
603.42	14.994
603.76	14.520
604.09	14.192
604.42	14.635
604.76	15.057
605.09	14.417
605.42	14.365
605.75	14.901
606.09	14.274
606.42	14.426
606.75	14.144
607.09	14.943
607.42	14.335
607.75	13.882
608.08	14.850
608.42	14.971
608.75	15.059
609.08	14.755
609.41	14.755
609.75	15.007
610.08	15.410
610.41	14.292
610.74	14.853
611.07	15.119
611.41	14.769
611.74	15.535
612.07	15.217
612.40	15.740
612.73	15.105
613.07	15.356
613.40	15.903
613.73	14.945
614.06	15.645
614.39	14.997
614.72	15.105
615.06	15.704
615.39	14.384
615.72	15.593
616.05	14.567
616.38	15.564
616.71	15.855
617.05	16.372
617.38	15.634
617.71	15.916
618.04	16.887
618.37	15.553
618.70	16.553
619.03	17.500
619.36	16.361
619.69	15.986
620.03	17.239
620.36	16.644
620.69	17.123
621.02	16.888
621.35	16.601
621.68	16.121
622.01	17.492
622.34	17.247
622.67	17.262
623.00	16.288
623.33	15.654
623.66	16.798
623.99	15.979
624.32	16.690
624.65	16.384
624.99	16.006
625.32	15.786
625.65	16.153
625.98	17.679
626.31	17.341
626.64	17.633
626.97	17.041
627.30	17.539
627.63	17.719
627.96	17.241
628.29	16.885
628.62	18.024
628.95	18.774
629.28	18.157
629.61	18.332
629.94	17.238
630.26	18.494
630.59	18.398
630.92	17.625
631.25	17.868
631.58	18.619
631.91	17.546
632.24	18.460
632.57	18.888
632.90	18.750
633.23	19.911
633.56	18.757
633.89	18.800
634.22	18.842
634.55	19.882
634.88	17.964
635.20	20.311
635.53	19.880
635.86	20.050
636.19	19.412
636.52	19.723
636.85	18.671
637.18	18.088
637.51	19.740
637.83	17.633
638.16	19.949
638.49	19.773
638.82	20.228
639.15	19.375
639.48	22.195
639.81	21.314
640.13	21.484
640.46	20.537
640.79	21.004
641.12	19.532
641.45	19.553
641.77	21.944
642.10	21.053
642.43	19.670
642.76	20.279
643.09	20.859
643.41	21.396
643.74	23.302
644.07	21.951
644.40	21.472
644.73	21.102
645.05	21.553
645.38	20.063
645.71	22.705
646.04	21.761
646.36	22.871
646.69	23.746
647.02	20.748
647.35	21.821
647.67	20.177
648.00	23.089
648.33	19.967
648.66	22.424
648.98	21.889
649.31	20.179
649.64	20.777
649.96	21.013
650.29	21.327
650.62	22.168
650.94	22.366
651.27	24.324
651.60	21.797
651.92	24.281
652.25	19.870
652.58	22.430
652.90	22.117
653.23	19.569
653.56	20.787
653.88	21.395
654.21	21.959
654.54	19.142
654.86	21.807
655.19	18.784
655.52	12.493
655.84	10.213
656.17	12.703
656.49	17.353
656.82	17.629
657.15	13.730
657.47	10.200
657.80	7.957
658.13	8.245
658.45	12.595
658.78	13.244
659.10	13.953
659.43	14.329
659.75	15.364
660.08	17.405
660.41	18.901
660.73	19.060
661.06	20.064
661.38	22.727
661.71	24.423
662.03	24.655
662.36	23.459
662.68	22.490
663.01	26.263
663.33	23.355
663.66	25.630
663.98	23.110
664.31	23.319
664.63	21.660
664.96	21.730
665.28	24.795
665.61	23.977
665.93	22.736
666.26	23.327
666.58	24.268
666.91	23.467
667.23	24.270
667.56	22.894
667.88	22.650
668.21	25.160
668.53	25.163
668.86	22.944
669.18	25.800
669.50	25.217
669.83	27.451
670.15	24.444
670.48	23.747
670.80	24.138
671.13	23.992
671.45	24.468
671.77	23.014
672.10	23.660
672.42	22.085
672.75	21.725
673.07	21.831
673.39	20.796
673.72	20.898
674.04	22.745
674.37	22.718
674.69	22.086
675.01	22.803
675.34	25.667
675.66	24.421
675.98	23.218
676.31	24.160
676.63	24.416
676.95	23.899
677.28	25.000
677.60	26.593
677.92	24.684
678.25	25.462
678.57	22.510
678.89	23.447
679.22	22.986
679.54	21.374
679.86	22.569
680.18	22.361
680.51	20.567
680.83	21.886
681.15	22.642
681.48	22.873
681.80	24.178
682.12	21.648
682.44	20.696
682.77	24.644
683.09	26.395
683.41	25.055
683.73	24.945
684.06	23.760
684.38	23.092
684.70	24.612
685.02	22.514
685.34	23.260
685.67	18.881
685.99	22.680
686.31	20.307
686.63	21.201
686.96	19.286
687.28	22.563
687.60	21.196
687.92	23.035
688.24	21.293
688.56	23.494
688.89	24.689
689.21	25.983
689.53	24.843
689.85	26.386
690.17	21.946
690.49	26.115
690.82	26.168
691.14	22.768
691.46	21.097
691.78	23.494
692.10	23.347
692.42	25.349
692.74	23.444
693.06	24.255
693.39	24.641
693.71	22.707
694.03	23.579
694.35	23.593
694.67	25.629
694.99	25.366
695.31	24.265
695.63	24.163
695.95	25.183
696.27	25.127
696.59	22.539
696.91	26.943
697.23	21.127
697.56	25.160
697.88	20.450
698.20	23.125
698.52	21.935
698.84	23.831
699.16	22.581
699.48	24.941
699.80	26.087
700.12	29.351
700.44	25.995
700.76	26.519
701.08	24.425
701.40	25.978
701.72	25.656
702.04	28.409
702.36	23.229
702.68	27.195
703.00	26.870
703.32	25.798
703.64	25.201
703.96	25.070
704.28	28.198
704.60	28.739
704.91	28.487
705.23	29.912
705.55	28.239
705.87	31.894
706.19	27.915
706.51	30.530
706.83	29.697
707.15	29.972
707.47	24.495
707.79	26.290
708.11	24.886
708.43	24.048
708.74	24.490
709.06	28.831
709.38	26.772
709.70	26.163
710.02	26.706
710.34	30.606
710.66	31.343
710.98	26.705
711.29	27.035
711.61	30.383
711.93	26.603
712.25	30.547
712.57	29.779
712.89	30.450
713.20	30.699
713.52	31.250
713.84	27.215
714.16	27.134
714.48	29.023
714.80	32.219
715.11	28.242
715.43	27.003
715.75	28.986
716.07	26.837
716.39	26.332
716.70	26.910
717.02	29.137
717.34	26.855
717.66	35.448
717.97	39.841
718.29	29.630
718.61	31.752
718.93	31.985
719.24	33.218
719.56	26.102
719.88	29.831
720.20	30.405
720.51	31.359
720.83	32.342
721.15	29.104
721.46	28.369
721.78	34.409
722.10	29.434
722.42	28.947
722.73	32.584
723.05	33.607
723.37	32.794
723.68	30.116
724.00	33.333
724.32	37.097
724.63	33.333
724.95	34.728
725.27	34.413
725.58	32.031
725.90	32.117
726.22	26.415
726.53	28.125
726.85	31.058
727.16	30.249
727.48	31.206
727.80	30.682
728.11	32.609
728.43	32.308
728.74	31.183
729.06	35.036
729.38	33.824
729.69	32.028
730.01	29.010
730.32	27.778
730.64	31.773
730.96	28.713
731.27	31.126
731.59	28.746
731.90	27.988
732.22	27.640
732.53	30.341
732.85	29.167
733.16	28.617
733.48	28.571
733.80	25.325
734.11	31.210
734.43	30.473
734.74	28.857
735.06	24.642
735.37	28.324
735.69	27.389
736.00	31.046
736.32	29.283
736.63	24.920
736.95	30.671
737.26	25.170
737.58	27.097
737.89	31.773
738.21	32.423
738.52	32.143
738.83	30.943
739.15	29.231
739.46	31.022
739.78	34.722
740.09	29.231
740.41	27.097
740.72	26.132
741.04	31.111
741.35	31.667
741.66	40.889
741.98	30.189
742.29	40.670
742.61	37.931
742.92	34.842
743.23	34.188
743.55	32.400
743.86	31.140
744.18	38.938
744.49	36.842
744.80	35.211
745.12	40.909
745.43	33.921
745.74	38.288
746.06	36.239
746.37	38.565
746.68	36.199
747.00	36.574
747.31	36.667
747.62	34.956
747.94	32.599
748.25	34.043
748.56	36.564
748.88	34.653
749.19	43.000
749.50	33.488
749.82	34.553
750.13	31.429
750.44	29.562
750.75	29.825
751.07	30.547
751.38	28.571
751.69	30.686
752.01	33.835
752.32	31.047
752.63	30.851
752.94	30.328
753.26	42.000
753.57	29.268
753.88	32.422
754.19	31.071
754.51	29.861
754.82	27.798
755.13	32.075
755.44	30.827
755.75	31.022
756.07	28.014
756.38	29.197
756.69	28.859
757.00	27.844
757.31	27.003
757.63	23.392
757.94	26.273
758.25	26.471
758.56	22.222
758.87	24.731
759.18	27.879
759.50	24.138
759.81	23.364
760.12	25.625
760.43	29.513
760.74	26.359
761.05	28.249
761.36	24.599
761.67	28.693
761.99	26.708
762.30	32.639
762.61	32.443
762.92	32.031
763.23	33.193
763.54	34.800
763.85	30.078
764.16	31.538
764.47	30.798
764.78	25.442
765.10	24.367
765.41	28.909
765.72	29.341
766.03	27.900
766.34	25.333
766.65	34.043
766.96	32.051
767.27	40.102
767.58	42.188
767.89	43.158
768.20	40.805
768.51	37.056
768.82	38.991
769.13	34.553
769.44	31.579
769.75	31.330
770.06	26.606
770.37	38.462
770.68	34.722
770.99	34.667
771.30	33.607
771.61	34.978
771.92	32.377
772.23	35.294
772.54	38.462
772.85	37.173
773.16	42.021
773.47	44.022
773.78	40.609
774.09	41.667
774.39	43.860
774.70	40.741
775.01	46.377
775.32	47.059
775.63	42.763
775.94	45.324
776.25	52.756
776.56	52.985
776.87	57.377
777.18	56.250
777.48	56.489
777.79	50.758
778.10	53.333
778.41	58.036
778.72	44.526
779.03	44.295
779.34	34.899
779.65	46.622
779.95	34.356
780.26	56.209
780.57	50.345
780.88	50.781
781.19	49.624
781.50	51.351
781.80	43.396
782.11	38.418
782.42	44.937
782.73	39.877
783.04	47.973
783.34	47.183
783.65	52.740
783.96	47.015
784.27	41.958
784.57	41.007
784.88	62.037
785.19	57.937
785.50	54.717
785.81	55.970
786.11	57.377
786.42	54.264
786.73	49.558
787.04	60.377
787.34	50.000
787.65	67.000
787.96	54.054
788.26	58.678
788.57	60.169
788.88	55.372
789.19	56.250
789.49	62.121
789.80	49.618
790.11	65.714
790.41	71.287
790.72	63.855
791.03	54.348
791.33	68.605
791.64	68.041
791.95	55.446
792.25	71.111
792.56	81.818
792.87	80.769
793.17	83.544
793.48	77.011
793.79	70.115
794.09	75.000
794.40	56.303
794.70	48.529
795.01	42.963
795.32	45.324
795.62	51.181
795.93	51.724
796.23	58.407
796.54	68.235
796.85	63.514
797.15	88.732
797.46	75.758
797.76	73.494
798.07	81.013
798.37	86.154
798.68	78.788
798.99	80.282
799.29	79.221
799.60	65.909
799.90	80.822
800.21	86.567
800.51	110.345
800.82	110.526
801.12	88.525
801.43	89.394
801.73	78.378
802.04	103.175
802.34	83.951
802.65	87.500
802.95	100.000
803.26	118.750
803.56	72.857
803.87	73.846
804.17	94.118
804.48	124.074
804.78	82.759
805.09	97.059
805.39	100.000
805.70	96.429
806.00	104.918
806.30	95.455
806.61	79.268
806.91	73.418
807.22	69.737
807.52	65.672
807.83	88.732
808.13	90.625
808.43	93.333
808.74	89.474
809.04	89.855
809.35	95.522
809.65	75.000
809.95	109.677
810.26	88.136
810.56	107.937
810.86	104.545
811.17	169.048
811.47	115.000
811.77	98.148
812.08	98.182
812.38	122.000
812.69	127.778
812.99	163.636
813.29	124.490
813.59	100.000
813.90	128.571
814.20	101.818
814.50	80.000
814.81	92.647
815.11	116.327
815.41	113.115
815.72	140.476
816.02	130.909
816.32	128.571
816.62	137.500
816.93	121.951
817.23	145.238
817.53	140.909
817.84	157.576
818.14	123.913
818.44	133.333
818.74	132.353
819.04	127.500
819.35	151.429
819.65	167.647
819.95	178.571
820.25	225.000
820.56	151.282
820.86	127.273
821.16	132.558
821.46	148.718
821.76	132.000
822.07	168.571
822.37	142.500
822.67	175.758
822.97	103.922
823.27	203.571
823.57	140.541
823.88	157.500
824.18	196.667
824.48	164.286
824.78	212.000
825.08	187.500
825.38	164.865
825.69	124.390
825.99	233.333
826.29	182.759
826.59	173.684
826.89	150.000
827.19	182.353
827.49	222.581
827.79	138.636
828.09	115.909
828.39	114.894
828.70	128.571
829.00	162.963
829.30	180.645
829.60	140.000
829.90	306.667
830.20	189.286
830.50	221.739
830.80	269.565
831.10	196.667
831.40	200.000
831.70	182.609
832.00	246.154
832.30	214.815
832.60	337.500
832.90	190.000
833.20	435.714
833.50	212.903
833.80	189.655
834.10	221.875
834.40	215.385
834.70	294.444
835.00	290.476
835.30	160.000
835.60	369.231
835.90	200.000
836.20	407.143
836.50	200.000
836.80	200.000
837.10	191.667
837.40	242.857
837.70	329.412
838.00	211.111
838.30	285.714
838.60	290.476
838.90	223.077
839.19	285.000
839.49	400.000
839.79	300.000
840.09	315.000
840.39	252.381
840.69	282.609
840.99	294.444
841.29	520.000
841.59	300.000
841.88	325.000
842.18	165.517
842.48	266.667
842.78	183.333
843.08	247.826
843.38	162.500
843.68	850.000
843.97	246.154
844.27	175.862
844.57	280.952
844.87	318.750
845.17	214.815
845.47	1733.333
845.76	466.667
846.06	358.824
846.36	587.500
846.66	442.857
846.96	318.750
847.25	363.636
847.55	554.545
847.85	295.652
848.15	500.000
848.44	371.429
848.74	300.000
849.04	264.706
849.34	550.000
849.63	226.316
849.93	409.091
850.23	1060.000
850.53	371.429
850.82	2850.000
851.12	-4500.000
851.42	4300.000
851.71	270.000
852.01	-1200.000
852.31	254.167
852.61	1633.333
852.90	261.905
853.20	276.000
853.50	276.471
853.79	290.476
854.09	208.333
854.39	362.500
854.68	167.568
854.98	174.194
855.28	206.667
855.57	196.552
855.87	211.111
856.17	268.421
856.46	293.333
856.76	252.941
857.05	234.483
857.35	270.833
857.65	286.667
857.94	234.783
858.24	276.923
858.53	320.000
858.83	227.273
859.13	340.000
859.42	0.000
859.72	633.333
860.01	481.818
860.31	236.364
860.60	284.211
860.90	234.783
861.20	611.111
861.49	558.333
861.79	-3600.000
862.08	650.000
862.38	300.000
862.67	330.769
862.97	347.059
863.26	544.444
863.56	300.000
863.85	433.333
864.15	662.500
864.44	286.667
864.74	866.667
865.03	662.500
865.33	347.368
865.62	500.000
865.92	438.462
866.21	391.667
866.51	0.000
866.80	390.909
867.10	1120.000
867.39	438.462
867.69	445.455
867.98	305.263
868.27	509.091
868.57	300.000
868.86	-4500.000
869.16	337.500
869.45	2000.000
869.75	-5700.000
870.04	433.333
870.33	614.286
870.63	925.000
870.92	2800.000
871.22	671.429
871.51	282.353
871.80	247.619
872.10	364.286
>>>>>End Processed Spectral Data<<<<<
