SpectraSuite Data File
++++++++++++++++++++++++++++++++++++
Date: Wed May 13 19:17:07 PDT 2015
User: schluterlab
Dark Spectrum Present: Yes
Reference Spectrum Present: Yes
Number of Sampled Component Spectra: 1
Spectrometers: USB2E3373
Integration Time (usec): 3000 (USB2E3373)
Spectra Averaged: 3 (USB2E3373)
Boxcar Smoothing: 0 (USB2E3373)
Correct for Electrical Dark: No (USB2E3373)
Strobe/Lamp Enabled: No (USB2E3373)
Correct for Detector Non-linearity: No (USB2E3373)
Correct for Stray Light: No (USB2E3373)
Number of Pixels in Processed Spectrum: 2048
>>>>>Begin Processed Spectral Data<<<<<
178.53	0.000
178.91	-1550.000
179.29	-1425.000
179.67	-300.000
180.04	-1450.000
180.42	2600.000
180.80	1220.000
181.18	-1275.000
181.56	671.429
181.94	0.000
182.31	-828.571
182.69	2133.333
183.07	-775.000
183.45	-633.333
183.83	581.818
184.20	-430.000
184.58	2450.000
184.96	5100.000
185.34	-840.000
185.72	-712.500
186.09	-2650.000
186.47	3150.000
186.85	2700.000
187.23	5400.000
187.61	-1900.000
187.98	1500.000
188.36	572.727
188.74	545.455
189.12	-1040.000
189.49	560.000
189.87	-5000.000
190.25	-1425.000
190.63	407.143
191.00	523.077
191.38	966.667
191.76	-1100.000
192.14	1675.000
192.51	725.000
192.89	1100.000
193.27	725.000
193.65	-1350.000
194.02	600.000
194.40	1080.000
194.78	660.000
195.15	600.000
195.53	680.000
195.91	-2150.000
196.29	393.750
196.66	347.368
197.04	-410.000
197.42	0.000
197.79	590.000
198.17	-5800.000
198.55	671.429
198.92	787.500
199.30	1020.000
199.68	0.000
200.05	377.778
200.43	785.714
200.81	4800.000
201.18	2166.667
201.56	-1733.333
201.94	533.333
202.31	766.667
202.69	483.333
203.07	730.000
203.44	0.000
203.82	1550.000
204.19	857.143
204.57	500.000
204.95	725.000
205.32	1833.333
205.70	536.364
206.08	385.714
206.45	2500.000
206.83	400.000
207.20	916.667
207.58	820.000
207.96	333.333
208.33	812.500
208.71	-983.333
209.08	957.143
209.46	677.778
209.84	618.182
210.21	-1700.000
210.59	1750.000
210.96	-650.000
211.34	3100.000
211.71	680.000
212.09	866.667
212.46	0.000
212.84	1933.333
213.22	1350.000
213.59	-6200.000
213.97	1066.667
214.34	1014.286
214.72	590.909
215.09	860.000
215.47	-2650.000
215.84	-3050.000
216.22	2033.333
216.59	471.429
216.97	1325.000
217.34	509.091
217.72	-900.000
218.09	0.000
218.47	-6000.000
218.84	755.556
219.22	928.571
219.59	1900.000
219.97	-857.143
220.34	1000.000
220.72	-1566.667
221.09	485.714
221.47	1650.000
221.84	-1050.000
222.22	0.000
222.59	1500.000
222.97	-2750.000
223.34	1260.000
223.72	523.077
224.09	1220.000
224.46	2500.000
224.84	-5500.000
225.21	-1120.000
225.59	-6100.000
225.96	600.000
226.34	330.000
226.71	3300.000
227.08	750.000
227.46	680.000
227.83	-1375.000
228.21	-2600.000
228.58	711.111
228.95	-2500.000
229.33	-2950.000
229.70	1900.000
230.08	885.714
230.45	-920.000
230.82	500.000
231.20	1016.667
231.57	942.857
231.95	541.667
232.32	318.182
232.69	536.364
233.07	700.000
233.44	430.769
233.81	-1966.667
234.19	368.421
234.56	550.000
234.93	458.333
235.31	463.636
235.68	438.462
236.05	435.714
236.43	203.030
236.80	331.579
237.17	4600.000
237.55	357.143
237.92	267.857
238.29	328.571
238.67	229.032
239.04	275.862
239.41	208.333
239.79	169.565
240.16	183.333
240.53	168.182
240.91	137.255
241.28	154.000
241.65	142.000
242.02	126.087
242.40	150.000
242.77	140.000
243.14	115.054
243.51	119.101
243.89	115.294
244.26	107.778
244.63	112.903
245.00	101.064
245.38	103.960
245.75	98.131
246.12	103.670
246.49	90.511
246.87	94.400
247.24	90.000
247.61	93.571
247.98	84.314
248.36	89.189
248.73	81.529
249.10	84.076
249.47	82.486
249.84	79.144
250.22	79.144
250.59	81.657
250.96	77.778
251.33	79.147
251.70	76.733
252.08	78.571
252.45	71.300
252.82	75.217
253.19	71.489
253.56	70.196
253.94	75.934
254.31	75.391
254.68	69.615
255.05	73.801
255.42	77.236
255.79	70.221
256.16	67.870
256.54	63.958
256.91	70.819
257.28	64.748
257.65	64.686
258.02	68.012
258.39	70.032
258.76	68.562
259.14	65.774
259.51	65.350
259.88	64.596
260.25	65.559
260.62	62.139
260.99	67.391
261.36	66.667
261.73	64.470
262.10	65.407
262.47	65.915
262.85	62.396
263.22	61.823
263.59	65.812
263.96	59.615
264.33	59.791
264.70	65.789
265.07	63.427
265.44	63.889
265.81	56.448
266.18	63.065
266.55	62.439
266.92	63.636
267.29	60.185
267.66	55.734
268.03	58.182
268.40	57.243
268.77	57.757
269.14	56.982
269.51	58.916
269.88	62.937
270.25	55.079
270.62	57.079
270.99	58.065
271.36	58.155
271.73	61.682
272.10	58.696
272.47	59.140
272.84	58.658
273.21	54.717
273.58	56.769
273.95	54.507
274.32	55.579
274.69	56.959
275.06	56.890
275.43	57.234
275.80	54.509
276.17	55.601
276.54	59.044
276.91	56.126
277.28	54.492
277.65	53.965
278.02	60.870
278.39	59.375
278.76	51.091
279.13	54.151
279.50	52.142
279.87	53.586
280.23	53.693
280.60	55.126
280.97	54.898
281.34	54.513
281.71	51.636
282.08	55.854
282.45	52.182
282.82	52.575
283.19	51.693
283.56	52.105
283.92	54.484
284.29	53.263
284.66	53.902
285.03	51.175
285.40	51.232
285.77	51.852
286.14	51.813
286.51	50.500
286.87	50.598
287.24	52.280
287.61	52.006
287.98	49.188
288.35	51.030
288.72	49.688
289.08	48.670
289.45	48.929
289.82	50.244
290.19	48.980
290.56	46.401
290.93	46.979
291.29	49.693
291.66	47.640
292.03	48.401
292.40	49.046
292.77	46.006
293.13	45.373
293.50	46.501
293.87	46.370
294.24	44.296
294.60	43.959
294.97	43.023
295.34	46.262
295.71	43.750
296.08	42.308
296.44	43.879
296.81	42.536
297.18	42.818
297.55	41.557
297.91	41.689
298.28	43.106
298.65	42.950
299.02	42.029
299.38	43.028
299.75	39.757
300.12	39.974
300.48	37.750
300.85	40.321
301.22	40.127
301.59	39.646
301.95	40.806
302.32	38.896
302.69	40.024
303.05	39.758
303.42	39.136
303.79	38.052
304.15	37.413
304.52	38.818
304.89	39.141
305.25	40.139
305.62	36.920
305.99	40.378
306.35	38.255
306.72	39.238
307.09	37.847
307.45	37.725
307.82	36.161
308.19	37.417
308.55	36.138
308.92	37.701
309.29	36.114
309.65	36.585
310.02	36.681
310.38	36.882
310.75	37.276
311.12	36.745
311.48	37.304
311.85	37.002
312.22	36.004
312.58	35.343
312.95	36.748
313.31	35.146
313.68	36.798
314.05	35.897
314.41	34.673
314.78	36.657
315.14	36.445
315.51	36.869
315.87	34.257
316.24	35.353
316.61	35.283
316.97	35.029
317.34	35.421
317.70	35.564
318.07	33.975
318.43	36.399
318.80	34.864
319.16	34.746
319.53	32.645
319.89	34.762
320.26	35.300
320.62	35.813
320.99	35.960
321.35	35.556
321.72	34.805
322.08	35.143
322.45	33.433
322.81	33.818
323.18	34.778
323.54	34.137
323.91	33.491
324.27	34.799
324.64	33.830
325.00	32.913
325.37	34.304
325.73	34.291
326.10	33.539
326.46	33.065
326.83	35.203
327.19	32.536
327.56	32.317
327.92	32.896
328.29	33.097
328.65	33.978
329.01	32.581
329.38	33.302
329.74	33.426
330.11	33.459
330.47	33.242
330.84	32.996
331.20	33.060
331.56	32.844
331.93	32.222
332.29	32.564
332.66	32.478
333.02	32.267
333.38	33.062
333.75	32.888
334.11	32.206
334.48	30.967
334.84	32.445
335.20	32.545
335.57	30.734
335.93	30.357
336.29	32.143
336.66	31.740
337.02	31.584
337.38	32.407
337.75	30.481
338.11	30.349
338.47	30.847
338.84	31.622
339.20	30.367
339.56	31.204
339.93	31.182
340.29	29.801
340.65	29.679
341.02	31.937
341.38	30.872
341.74	30.702
342.11	31.703
342.47	30.485
342.83	31.935
343.20	30.996
343.56	29.149
343.92	30.789
344.28	29.762
344.65	30.782
345.01	29.209
345.37	31.132
345.73	29.272
346.10	30.179
346.46	30.763
346.82	30.807
347.19	28.989
347.55	30.296
347.91	30.340
348.27	30.485
348.63	29.766
349.00	29.612
349.36	30.378
349.72	30.313
350.08	29.903
350.45	29.618
350.81	29.894
351.17	30.227
351.53	30.303
351.89	28.383
352.26	28.808
352.62	29.030
352.98	27.715
353.34	29.170
353.70	27.823
354.07	29.516
354.43	27.540
354.79	27.836
355.15	28.332
355.51	30.296
355.87	28.898
356.24	28.909
356.60	28.308
356.96	27.595
357.32	27.392
357.68	28.110
358.04	27.633
358.40	28.345
358.77	28.091
359.13	28.098
359.49	28.627
359.85	26.825
360.21	27.592
360.57	28.093
360.93	28.308
361.29	26.909
361.66	25.929
362.02	27.836
362.38	27.452
362.74	28.274
363.10	27.535
363.46	27.366
363.82	26.984
364.18	26.946
364.54	26.746
364.90	27.266
365.26	27.132
365.62	27.465
365.98	25.712
366.35	26.791
366.71	26.392
367.07	27.094
367.43	26.923
367.79	27.480
368.15	26.580
368.51	25.945
368.87	26.624
369.23	27.432
369.59	27.299
369.95	26.618
370.31	27.422
370.67	27.174
371.03	27.416
371.39	27.187
371.75	26.838
372.11	25.605
372.47	27.053
372.83	27.233
373.19	25.072
373.55	25.868
373.91	25.626
374.27	25.773
374.63	25.309
374.99	26.554
375.35	26.029
375.71	25.840
376.07	26.337
376.42	26.341
376.78	25.514
377.14	25.102
377.50	26.689
377.86	24.801
378.22	25.727
378.58	25.063
378.94	25.079
379.30	25.700
379.66	25.952
380.02	25.000
380.38	24.590
380.74	25.510
381.09	25.183
381.45	25.999
381.81	25.307
382.17	25.159
382.53	25.031
382.89	25.926
383.25	24.203
383.61	25.527
383.97	24.765
384.32	24.766
384.68	23.916
385.04	24.032
385.40	23.901
385.76	23.894
386.12	24.482
386.48	24.418
386.83	25.144
387.19	25.108
387.55	24.861
387.91	24.486
388.27	24.280
388.62	25.138
388.98	25.000
389.34	25.532
389.70	24.341
390.06	24.778
390.42	24.903
390.77	23.791
391.13	24.442
391.49	24.746
391.85	24.443
392.20	23.028
392.56	23.990
392.92	24.073
393.28	23.373
393.64	24.640
393.99	23.152
394.35	24.318
394.71	23.588
395.07	23.614
395.42	24.042
395.78	23.919
396.14	24.767
396.50	24.561
396.85	23.713
397.21	23.613
397.57	23.311
397.92	23.618
398.28	22.870
398.64	23.536
399.00	23.727
399.35	22.730
399.71	22.627
400.07	23.596
400.42	23.558
400.78	24.246
401.14	23.354
401.49	23.582
401.85	22.807
402.21	23.114
402.57	22.640
402.92	23.897
403.28	23.548
403.63	23.639
403.99	23.758
404.35	23.939
404.70	23.561
405.06	22.598
405.42	23.518
405.77	24.057
406.13	22.912
406.49	22.827
406.84	22.918
407.20	22.281
407.55	22.399
407.91	23.467
408.27	23.038
408.62	24.383
408.98	22.549
409.34	23.678
409.69	24.065
410.05	23.172
410.40	22.997
410.76	23.238
411.11	23.402
411.47	22.875
411.83	22.786
412.18	23.067
412.54	23.101
412.89	23.253
413.25	23.495
413.60	22.977
413.96	22.101
414.31	23.026
414.67	22.687
415.03	22.318
415.38	23.389
415.74	22.444
416.09	23.383
416.45	22.356
416.80	23.463
417.16	23.458
417.51	23.358
417.87	22.672
418.22	22.902
418.58	23.886
418.93	22.912
419.29	22.342
419.64	24.118
420.00	22.866
420.35	23.594
420.71	23.072
421.06	23.210
421.42	22.456
421.77	23.374
422.12	22.403
422.48	21.587
422.83	23.471
423.19	22.376
423.54	22.693
423.90	22.145
424.25	22.836
424.61	22.619
424.96	22.799
425.31	21.595
425.67	21.910
426.02	21.886
426.38	21.673
426.73	22.235
427.09	21.702
427.44	22.197
427.79	22.599
428.15	22.976
428.50	22.294
428.85	23.540
429.21	21.922
429.56	21.669
429.92	21.892
430.27	21.847
430.62	21.557
430.98	21.899
431.33	21.443
431.68	21.937
432.04	21.512
432.39	21.759
432.74	22.681
433.10	22.071
433.45	22.624
433.80	21.341
434.16	22.543
434.51	21.684
434.86	22.007
435.22	22.068
435.57	23.161
435.92	21.767
436.28	22.716
436.63	23.068
436.98	22.038
437.34	22.361
437.69	21.412
438.04	22.372
438.39	21.970
438.75	23.591
439.10	21.844
439.45	22.196
439.81	22.356
440.16	21.118
440.51	22.261
440.86	22.003
441.22	21.802
441.57	22.452
441.92	21.853
442.27	22.067
442.63	21.274
442.98	22.817
443.33	22.120
443.68	21.631
444.03	21.376
444.39	21.130
444.74	21.807
445.09	21.833
445.44	21.378
445.79	21.425
446.15	22.128
446.50	21.594
446.85	21.326
447.20	21.928
447.55	22.278
447.91	21.511
448.26	21.480
448.61	21.820
448.96	21.982
449.31	22.328
449.66	22.510
450.02	20.724
450.37	21.599
450.72	21.658
451.07	21.207
451.42	21.945
451.77	21.374
452.12	21.651
452.47	21.393
452.83	21.620
453.18	21.271
453.53	22.202
453.88	20.851
454.23	20.861
454.58	22.471
454.93	22.759
455.28	20.698
455.63	21.541
455.98	22.321
456.34	22.362
456.69	22.354
457.04	22.043
457.39	21.099
457.74	21.416
458.09	21.449
458.44	21.152
458.79	21.258
459.14	21.727
459.49	22.592
459.84	21.496
460.19	20.801
460.54	21.238
460.89	21.997
461.24	21.494
461.59	21.848
461.94	21.147
462.29	20.831
462.64	21.442
462.99	21.210
463.34	22.667
463.69	21.388
464.04	20.870
464.39	21.449
464.74	20.974
465.09	21.411
465.44	20.443
465.79	21.029
466.14	21.182
466.49	20.745
466.84	21.191
467.19	20.459
467.54	21.500
467.89	20.888
468.24	20.593
468.59	21.734
468.94	21.014
469.29	21.851
469.64	21.352
469.99	21.448
470.34	20.938
470.68	19.899
471.03	20.952
471.38	21.056
471.73	21.386
472.08	20.592
472.43	21.106
472.78	20.276
473.13	20.411
473.48	21.036
473.83	21.951
474.17	20.535
474.52	21.464
474.87	21.366
475.22	20.952
475.57	19.989
475.92	20.393
476.27	20.406
476.61	20.518
476.96	20.671
477.31	20.408
477.66	20.350
478.01	20.125
478.36	20.836
478.70	20.197
479.05	20.554
479.40	20.010
479.75	20.996
480.10	20.278
480.45	19.800
480.79	20.258
481.14	20.254
481.49	20.598
481.84	20.622
482.19	19.809
482.53	20.642
482.88	20.335
483.23	20.093
483.58	19.927
483.92	20.478
484.27	18.954
484.62	19.828
484.97	19.827
485.31	20.240
485.66	21.386
486.01	20.486
486.36	19.836
486.70	18.631
487.05	19.147
487.40	18.718
487.75	18.894
488.09	18.350
488.44	18.112
488.79	19.024
489.13	18.869
489.48	18.923
489.83	18.947
490.17	19.684
490.52	19.309
490.87	19.539
491.22	19.236
491.56	18.497
491.91	19.218
492.26	19.109
492.60	19.124
492.95	18.990
493.30	19.393
493.64	19.645
493.99	19.174
494.34	19.981
494.68	19.414
495.03	19.596
495.37	19.591
495.72	19.639
496.07	19.536
496.41	18.850
496.76	19.305
497.11	18.730
497.45	19.329
497.80	19.530
498.14	18.744
498.49	19.024
498.84	19.080
499.18	19.429
499.53	18.993
499.87	18.966
500.22	18.747
500.56	19.709
500.91	18.846
501.26	19.393
501.60	19.364
501.95	18.653
502.29	19.541
502.64	19.553
502.98	19.121
503.33	19.561
503.67	19.211
504.02	18.616
504.36	19.420
504.71	19.345
505.06	18.940
505.40	19.008
505.75	18.708
506.09	19.048
506.44	19.092
506.78	18.558
507.13	18.476
507.47	19.747
507.82	19.402
508.16	18.997
508.51	19.127
508.85	18.918
509.19	18.776
509.54	18.878
509.88	19.062
510.23	19.332
510.57	19.556
510.92	19.109
511.26	19.065
511.61	18.413
511.95	18.789
512.30	18.399
512.64	18.592
512.98	18.971
513.33	19.165
513.67	18.250
514.02	18.290
514.36	18.842
514.70	18.594
515.05	18.293
515.39	18.508
515.74	18.919
516.08	19.173
516.42	19.367
516.77	19.287
517.11	18.590
517.46	18.567
517.80	19.048
518.14	17.776
518.49	18.436
518.83	19.148
519.17	18.303
519.52	18.563
519.86	18.825
520.20	18.671
520.55	18.671
520.89	18.917
521.23	18.878
521.58	18.968
521.92	18.983
522.26	17.511
522.61	18.193
522.95	18.048
523.29	18.624
523.64	18.720
523.98	19.039
524.32	18.094
524.66	18.761
525.01	18.750
525.35	17.844
525.69	17.672
526.04	18.006
526.38	17.755
526.72	18.466
527.06	18.456
527.41	17.079
527.75	18.650
528.09	18.240
528.43	18.866
528.78	19.484
529.12	18.000
529.46	19.780
529.80	18.998
530.15	19.377
530.49	18.031
530.83	18.544
531.17	19.974
531.51	19.066
531.86	18.903
532.20	19.948
532.54	19.411
532.88	19.448
533.22	18.551
533.57	18.765
533.91	19.085
534.25	19.137
534.59	18.914
534.93	19.155
535.27	18.648
535.62	19.353
535.96	19.335
536.30	18.754
536.64	18.416
536.98	18.646
537.32	18.960
537.66	18.933
538.01	19.355
538.35	18.875
538.69	20.166
539.03	18.583
539.37	18.594
539.71	18.082
540.05	19.608
540.39	18.605
540.73	18.693
541.07	19.403
541.42	18.591
541.76	19.548
542.10	19.082
542.44	17.881
542.78	19.960
543.12	19.130
543.46	20.590
543.80	19.193
544.14	18.421
544.48	18.984
544.82	19.243
545.16	19.453
545.50	19.152
545.84	18.817
546.18	18.923
546.52	19.270
546.86	19.450
547.20	19.555
547.54	19.706
547.88	20.026
548.22	18.991
548.56	19.308
548.90	18.310
549.24	19.057
549.58	19.645
549.92	18.956
550.26	19.815
550.60	18.949
550.94	18.732
551.28	18.508
551.62	19.554
551.96	18.947
552.30	20.068
552.64	19.675
552.98	19.593
553.32	18.678
553.66	19.155
554.00	19.080
554.34	20.152
554.68	19.599
555.02	18.195
555.36	19.624
555.69	18.945
556.03	19.448
556.37	18.759
556.71	19.645
557.05	18.908
557.39	19.804
557.73	18.349
558.07	19.579
558.41	18.379
558.75	19.912
559.08	19.090
559.42	18.594
559.76	19.926
560.10	19.629
560.44	19.008
560.78	19.162
561.12	19.261
561.45	20.339
561.79	19.183
562.13	19.651
562.47	19.331
562.81	19.456
563.15	19.398
563.48	17.971
563.82	18.656
564.16	19.817
564.50	18.685
564.84	18.268
565.17	18.662
565.51	19.489
565.85	19.289
566.19	19.662
566.52	18.999
566.86	19.168
567.20	20.283
567.54	19.692
567.88	19.283
568.21	19.206
568.55	19.110
568.89	19.309
569.23	19.831
569.56	19.676
569.90	20.491
570.24	19.842
570.57	20.401
570.91	19.619
571.25	19.734
571.59	19.794
571.92	19.470
572.26	19.728
572.60	19.550
572.93	18.921
573.27	19.846
573.61	20.324
573.95	19.535
574.28	20.101
574.62	19.971
574.96	19.857
575.29	19.253
575.63	19.512
575.97	18.693
576.30	19.915
576.64	19.105
576.98	19.373
577.31	19.986
577.65	19.696
577.98	19.562
578.32	19.519
578.66	19.686
578.99	19.448
579.33	19.632
579.67	18.925
580.00	19.156
580.34	19.839
580.67	19.263
581.01	20.103
581.35	19.513
581.68	20.086
582.02	19.976
582.35	19.801
582.69	19.803
583.02	19.565
583.36	19.276
583.70	19.281
584.03	18.992
584.37	19.368
584.70	19.592
585.04	19.716
585.37	20.154
585.71	20.066
586.04	20.150
586.38	19.854
586.72	20.215
587.05	19.533
587.39	19.235
587.72	19.918
588.06	19.664
588.39	19.671
588.73	19.449
589.06	19.601
589.40	19.798
589.73	20.380
590.07	19.822
590.40	19.510
590.73	19.360
591.07	19.902
591.40	19.696
591.74	19.957
592.07	19.459
592.41	19.926
592.74	19.850
593.08	20.187
593.41	19.772
593.75	19.644
594.08	19.980
594.41	20.361
594.75	20.000
595.08	19.936
595.42	20.315
595.75	19.409
596.09	20.015
596.42	20.039
596.75	20.388
597.09	20.346
597.42	19.477
597.75	19.879
598.09	19.652
598.42	18.814
598.76	20.065
599.09	19.840
599.42	20.342
599.76	19.949
600.09	19.271
600.42	20.453
600.76	19.821
601.09	19.891
601.42	19.977
601.76	19.013
602.09	19.526
602.42	20.143
602.76	20.032
603.09	19.748
603.42	20.305
603.76	19.817
604.09	19.581
604.42	19.853
604.76	20.034
605.09	19.659
605.42	19.966
605.75	20.240
606.09	19.683
606.42	19.657
606.75	19.784
607.09	20.301
607.42	19.726
607.75	19.156
608.08	19.279
608.42	19.632
608.75	19.522
609.08	19.935
609.41	19.657
609.75	20.152
610.08	19.981
610.41	19.693
610.74	19.962
611.07	19.911
611.41	19.823
611.74	20.211
612.07	20.290
612.40	20.094
612.73	20.263
613.07	20.151
613.40	19.853
613.73	19.874
614.06	19.946
614.39	19.979
614.72	19.895
615.06	20.011
615.39	19.639
615.72	19.683
616.05	19.830
616.38	20.011
616.71	19.834
617.05	20.612
617.38	19.302
617.71	20.240
618.04	20.974
618.37	19.633
618.70	20.784
619.03	20.197
619.36	20.706
619.69	19.648
620.03	20.948
620.36	20.789
620.69	20.616
621.02	20.723
621.35	20.282
621.68	18.847
622.01	20.046
622.34	20.802
622.67	20.913
623.00	19.883
623.33	19.657
623.66	20.586
623.99	19.661
624.32	20.542
624.65	19.774
624.99	19.901
625.32	19.913
625.65	19.008
625.98	20.369
626.31	20.062
626.64	20.490
626.97	19.784
627.30	19.119
627.63	19.934
627.96	19.933
628.29	20.297
628.62	19.945
628.95	21.981
629.28	19.982
629.61	21.173
629.94	20.476
630.26	20.400
630.59	19.733
630.92	19.923
631.25	20.434
631.58	20.420
631.91	19.473
632.24	20.464
632.57	19.517
632.90	19.518
633.23	20.917
633.56	20.678
633.89	19.592
634.22	19.523
634.55	21.302
634.88	19.880
635.20	20.311
635.53	21.205
635.86	21.163
636.19	19.882
636.52	20.069
636.85	20.160
637.18	20.507
637.51	20.804
637.83	17.879
638.16	21.995
638.49	22.040
638.82	21.997
639.15	21.500
639.48	21.945
639.81	21.046
640.13	21.875
640.46	20.134
640.79	20.608
641.12	21.045
641.45	20.670
641.77	20.177
642.10	24.269
642.43	21.321
642.76	21.362
643.09	22.546
643.41	21.244
643.74	22.840
644.07	21.646
644.40	22.393
644.73	24.094
645.05	24.406
645.38	20.695
645.71	21.095
646.04	21.595
646.36	22.705
646.69	22.241
647.02	23.639
647.35	20.619
647.67	21.416
648.00	22.764
648.33	21.122
648.66	21.515
648.98	21.589
649.31	21.226
649.64	21.973
649.96	22.206
650.29	21.801
650.62	21.359
650.94	22.204
651.27	24.493
651.60	24.958
651.92	22.364
652.25	20.684
652.58	21.651
652.90	20.537
653.23	21.263
653.56	20.630
653.88	23.930
654.21	22.749
654.54	20.792
654.86	21.963
655.19	21.216
655.52	18.051
655.84	19.278
656.17	26.102
656.49	34.714
656.82	34.239
657.15	24.457
657.47	17.541
657.80	13.258
658.13	13.225
658.45	18.712
658.78	17.900
659.10	17.680
659.43	18.754
659.75	19.026
660.08	20.823
660.41	22.719
660.73	22.999
661.06	22.452
661.38	22.909
661.71	23.462
662.03	25.247
662.36	23.857
662.68	24.096
663.01	23.434
663.33	25.690
663.66	25.840
663.98	22.246
664.31	22.899
664.63	21.053
664.96	20.724
665.28	23.156
665.61	22.612
665.93	22.736
666.26	22.515
666.58	22.385
666.91	27.696
667.23	23.820
667.56	23.110
667.88	23.504
668.21	25.160
668.53	23.427
668.86	22.944
669.18	25.160
669.50	23.913
669.83	27.451
670.15	25.111
670.48	21.569
670.80	27.371
671.13	24.416
671.45	24.894
671.77	24.847
672.10	23.845
672.42	24.382
672.75	24.710
673.07	23.239
673.39	22.966
673.72	21.875
674.04	24.902
674.37	22.136
674.69	23.108
675.01	21.548
675.34	26.694
675.66	25.895
675.98	22.607
676.31	25.840
676.63	24.628
676.95	26.205
677.28	23.832
677.60	25.714
677.92	26.793
678.25	25.873
678.57	26.096
678.89	25.451
679.22	25.147
679.54	24.618
679.86	26.055
680.18	25.224
680.51	23.936
680.83	27.224
681.15	23.962
681.48	26.654
681.80	24.178
682.12	23.755
682.44	23.017
682.77	23.829
683.09	28.326
683.41	24.834
683.73	24.945
684.06	24.174
684.38	25.832
684.70	24.031
685.02	25.141
685.34	24.176
685.67	24.650
685.99	22.509
686.31	24.573
686.63	22.968
686.96	21.964
687.28	25.271
687.60	23.188
687.92	25.777
688.24	23.954
688.56	26.506
688.89	24.274
689.21	28.384
689.53	26.514
689.85	27.273
690.17	21.532
690.49	25.690
690.82	26.636
691.14	25.893
691.46	23.840
691.78	27.912
692.10	27.479
692.42	24.351
692.74	24.274
693.06	25.745
693.39	28.131
693.71	25.328
694.03	26.526
694.35	25.758
694.67	22.654
694.99	25.366
695.31	25.490
695.63	26.316
695.95	28.362
696.27	26.396
696.59	25.389
696.91	26.943
697.23	24.413
697.56	27.505
697.88	24.335
698.20	26.667
698.52	28.602
698.84	26.949
699.16	25.806
699.48	24.703
699.80	25.362
700.12	32.468
700.44	28.382
700.76	29.006
701.08	29.310
701.40	28.771
701.72	30.321
702.04	31.534
702.36	27.479
702.68	31.728
703.00	29.086
703.32	26.330
703.64	30.295
703.96	28.969
704.28	27.907
704.60	28.739
704.91	30.861
705.23	27.859
705.55	31.229
705.87	32.226
706.19	29.682
706.51	33.956
706.83	28.485
707.15	31.373
707.47	29.040
707.79	29.484
708.11	28.539
708.43	29.286
708.74	26.020
709.06	29.351
709.38	28.346
709.70	32.849
710.02	31.157
710.34	27.879
710.66	32.239
710.98	30.398
711.29	31.686
711.61	33.628
711.93	32.372
712.25	34.084
712.57	30.882
712.89	28.028
713.20	32.219
713.52	32.895
713.84	30.380
714.16	29.573
714.48	30.172
714.80	35.258
715.11	29.395
715.43	27.003
715.75	31.884
716.07	31.629
716.39	33.229
716.70	35.548
717.02	30.935
717.34	32.155
717.66	35.075
717.97	32.271
718.29	34.074
718.61	30.292
718.93	34.191
719.24	32.180
719.56	30.169
719.88	34.237
720.20	34.797
720.51	36.934
720.83	37.918
721.15	34.701
721.46	31.560
721.78	31.900
722.10	36.226
722.42	36.090
722.73	32.959
723.05	32.377
723.37	36.842
723.68	37.452
724.00	33.333
724.32	35.887
724.63	34.553
724.95	37.238
725.27	32.794
725.58	36.719
725.90	36.131
726.22	36.604
726.53	31.250
726.85	32.423
727.16	38.790
727.48	36.879
727.80	36.742
728.11	32.971
728.43	35.769
728.74	30.466
729.06	41.241
729.38	43.382
729.69	36.655
730.01	33.106
730.32	33.681
730.64	34.114
730.96	32.673
731.27	35.430
731.59	35.474
731.90	31.487
732.22	31.056
732.53	33.127
732.85	34.615
733.16	33.441
733.48	33.887
733.80	35.390
734.11	33.121
734.43	34.320
734.74	30.286
735.06	29.799
735.37	36.416
735.69	35.032
736.00	32.680
736.32	34.891
736.63	32.907
736.95	35.783
737.26	32.313
737.58	31.613
737.89	36.455
738.21	32.082
738.52	36.429
738.83	35.472
739.15	32.308
739.46	40.146
739.78	32.292
740.09	33.231
740.41	34.516
740.72	33.798
741.04	37.037
741.35	37.500
741.66	44.444
741.98	32.547
742.29	41.148
742.61	39.655
742.92	37.104
743.23	40.171
743.55	39.200
743.86	37.281
744.18	42.478
744.49	40.670
744.80	39.906
745.12	45.000
745.43	44.053
745.74	44.595
746.06	42.661
746.37	39.013
746.68	43.439
747.00	42.130
747.31	41.905
747.62	39.381
747.94	38.767
748.25	36.596
748.56	45.374
748.88	42.574
749.19	46.000
749.50	40.465
749.82	36.179
750.13	38.776
750.44	38.686
750.75	37.544
751.07	37.942
751.38	36.585
751.69	37.184
752.01	37.594
752.32	34.657
752.63	35.816
752.94	36.885
753.26	43.200
753.57	34.959
753.88	41.016
754.19	37.143
754.51	38.194
754.82	35.740
755.13	33.585
755.44	39.474
755.75	37.226
756.07	34.043
756.38	36.861
756.69	37.584
757.00	31.437
757.31	35.608
757.63	34.211
757.94	32.440
758.25	30.392
758.56	31.852
758.87	34.409
759.18	34.545
759.50	31.975
759.81	33.956
760.12	30.625
760.43	34.670
760.74	34.239
761.05	35.593
761.36	34.759
761.67	35.227
761.99	33.540
762.30	36.806
762.61	37.786
762.92	39.844
763.23	38.655
763.54	41.600
763.85	39.844
764.16	42.308
764.47	36.882
764.78	36.396
765.10	34.177
765.41	35.103
765.72	36.826
766.03	38.558
766.34	35.667
766.65	40.000
766.96	44.872
767.27	37.563
767.58	43.750
767.89	47.368
768.20	50.000
768.51	38.071
768.82	41.743
769.13	36.179
769.44	40.486
769.75	42.489
770.06	35.780
770.37	42.986
770.68	43.519
770.99	42.222
771.30	39.344
771.61	48.879
771.92	40.984
772.23	44.538
772.54	48.205
772.85	45.026
773.16	45.745
773.47	50.543
773.78	47.208
774.09	41.071
774.39	48.538
774.70	46.296
775.01	54.348
775.32	57.516
775.63	50.658
775.94	46.763
776.25	60.630
776.56	64.179
776.87	62.295
777.18	62.500
777.48	60.305
777.79	63.636
778.10	54.815
778.41	61.607
778.72	53.285
779.03	55.034
779.34	53.020
779.65	45.270
779.95	50.307
780.26	56.209
780.57	54.483
780.88	63.281
781.19	51.128
781.50	56.081
781.80	57.233
782.11	45.763
782.42	47.468
782.73	55.828
783.04	55.405
783.34	57.042
783.65	61.644
783.96	59.701
784.27	50.350
784.57	52.518
784.88	50.000
785.19	64.286
785.50	66.981
785.81	61.194
786.11	68.852
786.42	58.915
786.73	64.602
787.04	70.755
787.34	66.071
787.65	71.000
787.96	69.369
788.26	57.025
788.57	66.102
788.88	69.421
789.19	59.722
789.49	70.455
789.80	65.649
790.11	79.048
790.41	74.257
790.72	78.313
791.03	69.565
791.33	75.581
791.64	71.134
791.95	71.287
792.25	67.778
792.56	75.325
792.87	106.410
793.17	94.937
793.48	85.057
793.79	83.908
794.09	78.409
794.40	62.185
794.70	60.294
795.01	62.963
795.32	60.432
795.62	59.055
795.93	62.931
796.23	69.912
796.54	84.706
796.85	90.541
797.15	104.225
797.46	90.909
797.76	87.952
798.07	87.342
798.37	93.846
798.68	93.939
798.99	76.056
799.29	83.117
799.60	75.000
799.90	100.000
800.21	104.478
800.51	101.724
800.82	115.789
801.12	119.672
801.43	104.545
801.73	90.541
802.04	111.111
802.34	90.123
802.65	107.812
802.95	105.085
803.26	112.500
803.56	87.143
803.87	86.154
804.17	95.588
804.48	125.926
804.78	105.172
805.09	98.529
805.39	115.385
805.70	126.786
806.00	113.115
806.30	81.818
806.61	92.683
806.91	74.684
807.22	101.316
807.52	83.582
807.83	94.366
808.13	90.625
808.43	116.667
808.74	84.211
809.04	118.841
809.35	97.015
809.65	109.211
809.95	112.903
810.26	115.254
810.56	109.524
810.86	159.091
811.17	133.333
811.47	125.000
811.77	111.111
812.08	127.273
812.38	134.000
812.69	177.778
812.99	136.364
813.29	142.857
813.59	116.667
813.90	148.980
814.20	109.091
814.50	107.692
814.81	102.941
815.11	144.898
815.41	114.754
815.72	145.238
816.02	132.727
816.32	150.000
816.62	137.500
816.93	168.293
817.23	161.905
817.53	156.818
817.84	193.939
818.14	158.696
818.44	115.556
818.74	194.118
819.04	142.500
819.35	165.714
819.65	182.353
819.95	175.000
820.25	220.000
820.56	202.564
820.86	131.818
821.16	158.140
821.46	164.103
821.76	154.000
822.07	202.857
822.37	140.000
822.67	169.697
822.97	131.373
823.27	207.143
823.57	145.946
823.88	180.000
824.18	213.333
824.48	166.667
824.78	236.000
825.08	250.000
825.38	178.378
825.69	158.537
825.99	225.000
826.29	179.310
826.59	173.684
826.89	194.737
827.19	179.412
827.49	200.000
827.79	163.636
828.09	175.000
828.39	140.426
828.70	124.490
829.00	181.481
829.30	187.097
829.60	147.500
829.90	366.667
830.20	207.143
830.50	234.783
830.80	234.783
831.10	206.667
831.40	203.333
831.70	239.130
832.00	276.923
832.30	237.037
832.60	325.000
832.90	226.667
833.20	528.571
833.50	200.000
833.80	206.897
834.10	181.250
834.40	265.385
834.70	316.667
835.00	271.429
835.30	185.714
835.60	492.308
835.90	213.793
836.20	350.000
836.50	227.586
836.80	236.000
837.10	208.333
837.40	300.000
837.70	376.471
838.00	218.519
838.30	228.571
838.60	319.048
838.90	238.462
839.19	300.000
839.49	357.143
839.79	345.000
840.09	310.000
840.39	280.952
840.69	252.174
840.99	300.000
841.29	510.000
841.59	350.000
841.88	356.250
842.18	186.207
842.48	300.000
842.78	213.333
843.08	265.217
843.38	225.000
843.68	900.000
843.97	253.846
844.27	186.207
844.57	319.048
844.87	343.750
845.17	248.148
845.47	1466.667
845.76	555.556
846.06	323.529
846.36	675.000
846.66	385.714
846.96	318.750
847.25	518.182
847.55	481.818
847.85	300.000
848.15	530.000
848.44	328.571
848.74	288.889
849.04	323.529
849.34	570.000
849.63	300.000
849.93	500.000
850.23	1080.000
850.53	414.286
850.82	2600.000
851.12	-4400.000
851.42	5700.000
851.71	295.000
852.01	-1333.333
852.31	283.333
852.61	2133.333
852.90	338.095
853.20	264.000
853.50	370.588
853.79	314.286
854.09	254.167
854.39	387.500
854.68	197.297
854.98	216.129
855.28	213.333
855.57	248.276
855.87	192.593
856.17	278.947
856.46	280.000
856.76	317.647
857.05	210.345
857.35	237.500
857.65	393.333
857.94	265.217
858.24	257.692
858.53	280.000
858.83	281.818
859.13	386.667
859.42	0.000
859.72	600.000
860.01	490.909
860.31	290.909
860.60	347.368
860.90	252.174
861.20	622.222
861.49	516.667
861.79	-5900.000
862.08	737.500
862.38	319.048
862.67	400.000
862.97	388.235
863.26	611.111
863.56	316.667
863.85	416.667
864.15	637.500
864.44	446.667
864.74	1000.000
865.03	725.000
865.33	278.947
865.62	490.909
865.92	523.077
866.21	450.000
866.51	0.000
866.80	536.364
867.10	1060.000
867.39	415.385
867.69	509.091
867.98	289.474
868.27	554.545
868.57	342.105
868.86	-5600.000
869.16	325.000
869.45	2550.000
869.75	-4900.000
870.04	466.667
870.33	885.714
870.63	1275.000
870.92	2550.000
871.22	871.429
871.51	411.765
871.80	238.095
872.10	471.429
>>>>>End Processed Spectral Data<<<<<
