SpectraSuite Data File
++++++++++++++++++++++++++++++++++++
Date: Wed May 13 19:17:26 PDT 2015
User: schluterlab
Dark Spectrum Present: Yes
Reference Spectrum Present: Yes
Number of Sampled Component Spectra: 1
Spectrometers: USB2E3373
Integration Time (usec): 3000 (USB2E3373)
Spectra Averaged: 3 (USB2E3373)
Boxcar Smoothing: 0 (USB2E3373)
Correct for Electrical Dark: No (USB2E3373)
Strobe/Lamp Enabled: No (USB2E3373)
Correct for Detector Non-linearity: No (USB2E3373)
Correct for Stray Light: No (USB2E3373)
Number of Pixels in Processed Spectrum: 2048
>>>>>Begin Processed Spectral Data<<<<<
178.53	0.000
178.91	-1450.000
179.29	-1625.000
179.67	-294.444
180.04	-1650.000
180.42	3150.000
180.80	1180.000
181.18	-1100.000
181.56	871.429
181.94	0.000
182.31	-742.857
182.69	2133.333
183.07	-687.500
183.45	-688.889
183.83	481.818
184.20	-520.000
184.58	2700.000
184.96	5000.000
185.34	-1080.000
185.72	-662.500
186.09	-2750.000
186.47	3550.000
186.85	3250.000
187.23	5000.000
187.61	-1866.667
187.98	1550.000
188.36	618.182
188.74	545.455
189.12	-940.000
189.49	690.000
189.87	-5900.000
190.25	-1550.000
190.63	500.000
191.00	530.769
191.38	933.333
191.76	-1225.000
192.14	1350.000
192.51	600.000
192.89	1000.000
193.27	637.500
193.65	-1475.000
194.02	590.000
194.40	1140.000
194.78	510.000
195.15	541.667
195.53	670.000
195.91	-2250.000
196.29	406.250
196.66	384.211
197.04	-410.000
197.42	0.000
197.79	730.000
198.17	-6000.000
198.55	814.286
198.92	750.000
199.30	1040.000
199.68	0.000
200.05	344.444
200.43	800.000
200.81	4900.000
201.18	1900.000
201.56	-2100.000
201.94	588.889
202.31	633.333
202.69	491.667
203.07	700.000
203.44	0.000
203.82	1350.000
204.19	928.571
204.57	457.143
204.95	725.000
205.32	1666.667
205.70	572.727
206.08	435.714
206.45	3100.000
206.83	387.500
207.20	983.333
207.58	1000.000
207.96	338.889
208.33	750.000
208.71	-883.333
209.08	928.571
209.46	733.333
209.84	554.545
210.21	-1700.000
210.59	1700.000
210.96	-537.500
211.34	2800.000
211.71	660.000
212.09	933.333
212.46	0.000
212.84	2133.333
213.22	1500.000
213.59	-5800.000
213.97	950.000
214.34	914.286
214.72	690.909
215.09	1140.000
215.47	-2150.000
215.84	-2900.000
216.22	1866.667
216.59	471.429
216.97	1425.000
217.34	418.182
217.72	-733.333
218.09	0.000
218.47	-5200.000
218.84	711.111
219.22	857.143
219.59	1700.000
219.97	-728.571
220.34	1220.000
220.72	-2000.000
221.09	442.857
221.47	1600.000
221.84	-983.333
222.22	0.000
222.59	1600.000
222.97	-3300.000
223.34	1380.000
223.72	553.846
224.09	1000.000
224.46	2500.000
224.84	-5900.000
225.21	-1000.000
225.59	-4300.000
225.96	710.000
226.34	335.000
226.71	2850.000
227.08	862.500
227.46	590.000
227.83	-1100.000
228.21	-2750.000
228.58	622.222
228.95	-3050.000
229.33	-2150.000
229.70	1833.333
230.08	857.143
230.45	-980.000
230.82	575.000
231.20	716.667
231.57	685.714
231.95	575.000
232.32	309.091
232.69	518.182
233.07	728.571
233.44	415.385
233.81	-2266.667
234.19	315.789
234.56	508.333
234.93	475.000
235.31	590.909
235.68	353.846
236.05	385.714
236.43	206.061
236.80	315.789
237.17	5500.000
237.55	228.571
237.92	228.571
238.29	319.048
238.67	177.419
239.04	227.586
239.41	172.222
239.79	158.696
240.16	161.905
240.53	161.364
240.91	129.412
241.28	134.000
241.65	116.000
242.02	108.696
242.40	106.452
242.77	133.333
243.14	87.097
243.51	108.989
243.89	95.294
244.26	74.444
244.63	81.720
245.00	85.106
245.38	75.248
245.75	74.766
246.12	76.147
246.49	70.803
246.87	71.200
247.24	70.769
247.61	65.000
247.98	68.627
248.36	62.162
248.73	62.420
249.10	61.783
249.47	54.802
249.84	57.219
250.22	53.476
250.59	53.254
250.96	62.121
251.33	61.137
251.70	52.970
252.08	58.571
252.45	47.982
252.82	53.043
253.19	56.170
253.56	48.235
253.94	50.622
254.31	46.875
254.68	51.154
255.05	48.339
255.42	49.593
255.79	48.897
256.16	47.653
256.54	46.290
256.91	43.416
257.28	42.806
257.65	43.564
258.02	41.925
258.39	42.587
258.76	42.809
259.14	41.667
259.51	39.210
259.88	42.547
260.25	44.109
260.62	43.642
260.99	41.304
261.36	43.544
261.73	40.401
262.10	39.826
262.47	41.408
262.85	40.669
263.22	39.601
263.59	43.590
263.96	37.912
264.33	38.903
264.70	39.211
265.07	39.898
265.44	38.131
265.81	35.036
266.18	41.709
266.55	38.293
266.92	37.101
267.29	38.889
267.66	36.009
268.03	36.136
268.40	36.449
268.77	35.561
269.14	35.360
269.51	37.246
269.88	38.228
270.25	37.246
270.62	36.854
270.99	37.634
271.36	35.408
271.73	36.682
272.10	37.609
272.47	38.065
272.84	34.848
273.21	34.591
273.58	34.061
273.95	34.591
274.32	37.397
274.69	34.904
275.06	32.087
275.43	37.872
275.80	37.074
276.17	33.198
276.54	34.511
276.91	35.968
277.28	33.789
277.65	36.364
278.02	35.818
278.39	35.742
278.76	30.727
279.13	32.830
279.50	33.706
279.87	33.665
280.23	33.134
280.60	33.656
280.97	33.457
281.34	33.097
281.71	32.182
282.08	34.549
282.45	32.909
282.82	32.149
283.19	29.768
283.56	31.228
283.92	34.010
284.29	32.804
284.66	31.942
285.03	33.092
285.40	32.746
285.77	32.323
286.14	29.016
286.51	31.333
286.87	29.060
287.24	30.945
287.61	30.658
287.98	33.117
288.35	30.428
288.72	30.530
289.08	30.360
289.45	28.995
289.82	29.268
290.19	29.199
290.56	28.637
290.93	27.039
291.29	29.755
291.66	28.171
292.03	29.651
292.40	30.103
292.77	25.296
293.13	26.418
293.50	27.843
293.87	27.407
294.24	25.926
294.60	26.201
294.97	27.035
295.34	26.234
295.71	25.568
296.08	26.211
296.44	26.272
296.81	25.627
297.18	27.236
297.55	23.351
297.91	25.726
298.28	26.506
298.65	25.979
299.02	25.165
299.38	23.772
299.75	23.720
300.12	24.138
300.48	23.250
300.85	24.291
301.22	23.057
301.59	22.475
301.95	23.300
302.32	21.438
302.69	22.939
303.05	22.788
303.42	21.975
303.79	21.971
304.15	21.212
304.52	20.973
304.89	20.906
305.25	22.970
305.62	23.443
305.99	23.849
306.35	21.253
306.72	20.740
307.09	23.196
307.45	23.311
307.82	21.205
308.19	21.634
308.55	22.330
308.92	21.160
309.29	22.598
309.65	20.785
310.02	22.199
310.38	22.473
310.75	21.647
311.12	21.801
311.48	22.153
311.85	21.069
312.22	21.644
312.58	20.998
312.95	22.175
313.31	19.709
313.68	22.141
314.05	22.387
314.41	22.211
314.78	22.256
315.14	21.152
315.51	21.730
315.87	22.178
316.24	20.755
316.61	21.345
316.97	20.548
317.34	20.059
317.70	21.702
318.07	22.522
318.43	22.701
318.80	23.149
319.16	22.599
319.53	22.608
319.89	22.952
320.26	23.700
320.62	23.016
320.99	23.535
321.35	24.848
321.72	25.565
322.08	24.975
322.45	25.572
322.81	25.194
323.18	26.493
323.54	25.417
323.91	26.226
324.27	26.291
324.64	24.604
325.00	25.248
325.37	28.207
325.73	27.648
326.10	27.273
326.46	28.674
326.83	28.559
327.19	29.377
327.56	29.704
327.92	30.971
328.29	31.500
328.65	31.400
329.01	31.318
329.38	31.637
329.74	31.764
330.11	32.422
330.47	33.425
330.84	34.559
331.20	33.242
331.56	33.211
331.93	33.056
332.29	32.298
332.66	34.690
333.02	34.826
333.38	34.417
333.75	34.581
334.11	34.698
334.48	34.073
334.84	34.467
335.20	35.455
335.57	33.726
335.93	33.929
336.29	34.982
336.66	35.528
337.02	34.932
337.38	35.000
337.75	35.383
338.11	35.273
338.47	37.201
338.84	35.655
339.20	34.404
339.56	36.588
339.93	34.727
340.29	35.326
340.65	35.116
341.02	37.173
341.38	36.032
341.74	34.649
342.11	36.070
342.47	36.300
342.83	37.243
343.20	37.229
343.56	34.962
343.92	37.544
344.28	35.884
344.65	35.942
345.01	36.279
345.37	34.991
345.73	36.125
346.10	35.806
346.46	36.017
346.82	36.820
347.19	36.591
347.55	35.550
347.91	36.570
348.27	35.908
348.63	36.789
349.00	36.408
349.36	36.864
349.72	36.808
350.08	36.224
350.45	36.534
350.81	35.743
351.17	36.629
351.53	36.527
351.89	34.983
352.26	35.517
352.62	36.728
352.98	37.115
353.34	36.730
353.70	36.907
354.07	36.855
354.43	36.032
354.79	36.203
355.15	36.313
355.51	37.250
355.87	38.367
356.24	36.889
356.60	37.209
356.96	36.605
357.32	36.222
357.68	37.795
358.04	37.134
358.40	37.134
358.77	36.698
359.13	35.833
359.49	37.333
359.85	35.397
360.21	37.241
360.57	37.354
360.93	38.308
361.29	37.566
361.66	36.765
362.02	37.985
362.38	38.403
362.74	38.467
363.10	35.973
363.46	37.711
363.82	38.020
364.18	37.298
364.54	38.410
364.90	37.677
365.26	37.279
365.62	39.080
365.98	37.473
366.35	36.175
366.71	38.684
367.07	37.800
367.43	38.607
367.79	38.687
368.15	40.086
368.51	38.735
368.87	37.473
369.23	38.259
369.59	38.523
369.95	39.338
370.31	38.889
370.67	38.478
371.03	39.925
371.39	39.431
371.75	39.706
372.11	39.972
372.47	39.663
372.83	39.914
373.19	39.017
373.55	39.542
373.91	41.163
374.27	38.832
374.63	40.218
374.99	39.972
375.35	38.939
375.71	40.302
376.07	41.701
376.42	40.853
376.78	40.490
377.14	40.502
377.50	40.927
377.86	40.359
378.22	40.834
378.58	40.226
378.94	41.358
379.30	40.903
379.66	41.815
380.02	42.445
380.38	40.923
380.74	42.437
381.09	41.443
381.45	42.717
381.81	41.523
382.17	42.675
382.53	42.704
382.89	42.407
383.25	42.402
383.61	43.185
383.97	43.152
384.32	42.109
384.68	42.193
385.04	42.840
385.40	43.096
385.76	42.015
386.12	44.041
386.48	44.556
386.83	44.965
387.19	44.712
387.55	44.651
387.91	44.619
388.27	43.470
388.62	44.622
388.98	44.226
389.34	45.870
389.70	44.942
390.06	45.374
390.42	45.655
390.77	46.056
391.13	45.629
391.49	45.749
391.85	44.876
392.20	45.615
392.56	47.538
392.92	46.086
393.28	46.627
393.64	46.583
393.99	45.938
394.35	47.146
394.71	46.801
395.07	46.168
395.42	47.590
395.78	47.137
396.14	47.486
396.50	48.496
396.85	47.807
397.21	47.719
397.57	47.055
397.92	47.055
398.28	48.374
398.64	47.790
399.00	49.356
399.35	47.998
399.71	48.553
400.07	48.019
400.42	49.202
400.78	48.854
401.14	48.049
401.49	48.955
401.85	48.336
402.21	48.743
402.57	48.982
402.92	49.117
403.28	49.719
403.63	48.762
403.99	51.146
404.35	50.000
404.70	49.640
405.06	48.981
405.42	50.031
405.77	49.943
406.13	49.549
406.49	49.734
406.84	50.679
407.20	49.882
407.55	51.308
407.91	52.067
408.27	50.798
408.62	50.753
408.98	52.083
409.34	51.722
409.69	51.871
410.05	50.186
410.40	51.376
410.76	51.792
411.11	49.759
411.47	50.990
411.83	51.130
412.18	51.144
412.54	51.743
412.89	51.627
413.25	52.007
413.60	51.575
413.96	50.759
414.31	51.458
414.67	52.345
415.03	52.053
415.38	52.899
415.74	52.476
416.09	53.494
416.45	51.339
416.80	52.941
417.16	54.021
417.51	54.015
417.87	51.638
418.22	53.375
418.58	51.904
418.93	52.703
419.29	52.769
419.64	53.212
420.00	53.476
420.35	53.043
420.71	54.154
421.06	52.924
421.42	51.579
421.77	52.466
422.12	52.555
422.48	52.563
422.83	53.524
423.19	53.812
423.54	53.105
423.90	53.449
424.25	54.160
424.61	54.345
424.96	53.819
425.31	53.488
425.67	52.079
426.02	53.943
426.38	54.579
426.73	52.311
427.09	53.982
427.44	53.882
427.79	54.457
428.15	53.214
428.50	53.716
428.85	55.364
429.21	54.224
429.56	53.084
429.92	53.749
430.27	52.532
430.62	53.251
430.98	52.673
431.33	53.247
431.68	54.136
432.04	52.716
432.39	54.255
432.74	54.399
433.10	56.254
433.45	55.510
433.80	54.989
434.16	53.793
434.51	53.789
434.86	54.789
435.22	55.197
435.57	56.170
435.92	54.769
436.28	55.931
436.63	54.967
436.98	55.123
437.34	54.204
437.69	56.301
438.04	54.694
438.39	54.746
438.75	55.607
439.10	55.363
439.45	55.136
439.81	55.529
440.16	55.336
440.51	55.009
440.86	56.862
441.22	54.616
441.57	54.989
441.92	55.578
442.27	56.835
442.63	55.556
442.98	56.282
443.33	55.870
443.68	54.621
444.03	56.467
444.39	55.599
444.74	56.115
445.09	55.526
445.44	56.370
445.79	54.676
446.15	54.738
446.50	55.897
446.85	55.498
447.20	55.278
447.55	56.170
447.91	56.702
448.26	56.205
448.61	55.851
448.96	56.700
449.31	56.468
449.66	56.106
450.02	55.710
450.37	56.519
450.72	56.909
451.07	56.246
451.42	55.562
451.77	57.134
452.12	55.774
452.47	56.157
452.83	57.401
453.18	56.601
453.53	57.390
453.88	56.822
454.23	56.366
454.58	57.117
454.93	57.533
455.28	55.798
455.63	57.160
455.98	57.500
456.34	56.219
456.69	56.544
457.04	56.533
457.39	56.108
457.74	55.427
458.09	56.297
458.44	56.100
458.79	56.020
459.14	56.095
459.49	56.684
459.84	57.064
460.19	56.570
460.54	54.398
460.89	56.061
461.24	57.498
461.59	55.782
461.94	54.316
462.29	56.677
462.64	55.839
462.99	54.977
463.34	57.067
463.69	55.972
464.04	56.174
464.39	54.899
464.74	55.556
465.09	56.755
465.44	55.125
465.79	55.872
466.14	53.585
466.49	55.061
466.84	55.400
467.19	55.281
467.54	55.562
467.89	55.102
468.24	55.497
468.59	56.593
468.94	53.635
469.29	55.013
469.64	56.359
469.99	56.157
470.34	55.218
470.68	56.466
471.03	54.150
471.38	55.455
471.73	55.163
472.08	55.855
472.43	54.209
472.78	56.945
473.13	55.584
473.48	55.556
473.83	55.122
474.17	53.765
474.52	55.583
474.87	55.984
475.22	54.614
475.57	53.197
475.92	54.063
476.27	53.664
476.61	54.550
476.96	54.426
477.31	53.741
477.66	55.033
478.01	53.581
478.36	54.045
478.70	53.998
479.05	54.207
479.40	53.941
479.75	54.042
480.10	54.423
480.45	53.118
480.79	53.798
481.14	53.474
481.49	53.346
481.84	52.995
482.19	52.749
482.53	53.073
482.88	53.886
483.23	53.411
483.58	53.458
483.92	54.311
484.27	51.983
484.62	52.371
484.97	52.148
485.31	53.356
485.66	52.507
486.01	50.663
486.36	49.033
486.70	48.152
487.05	48.917
487.40	50.536
487.75	49.671
488.09	51.441
488.44	51.401
488.79	54.069
489.13	53.094
489.48	52.692
489.83	52.525
490.17	53.222
490.52	52.214
490.87	51.967
491.22	52.115
491.56	51.481
491.91	52.257
492.26	51.493
492.60	52.857
492.95	51.684
493.30	51.776
493.64	51.797
493.99	51.950
494.34	52.451
494.68	52.152
495.03	53.195
495.37	51.373
495.72	53.216
496.07	52.761
496.41	50.310
496.76	51.099
497.11	50.338
497.45	51.095
497.80	52.111
498.14	51.546
498.49	51.415
498.84	51.103
499.18	50.905
499.53	51.235
499.87	51.538
500.22	50.871
500.56	52.136
500.91	50.962
501.26	51.446
501.60	52.729
501.95	50.275
502.29	51.265
502.64	51.210
502.98	50.491
503.33	50.731
503.67	51.230
504.02	50.234
504.36	50.398
504.71	49.536
505.06	51.084
505.40	50.705
505.75	50.145
506.09	50.194
506.44	51.751
506.78	50.609
507.13	52.095
507.47	51.364
507.82	51.216
508.16	51.317
508.51	51.801
508.85	50.298
509.19	51.224
509.54	50.969
509.88	51.520
510.23	51.054
510.57	51.600
510.92	51.942
511.26	50.822
511.61	51.504
511.95	49.896
512.30	50.583
512.64	51.102
512.98	51.501
513.33	51.017
513.67	50.480
514.02	50.649
514.36	50.847
514.70	49.917
515.05	50.753
515.39	51.318
515.74	50.676
516.08	51.425
516.42	51.054
516.77	52.731
517.11	50.888
517.46	50.959
517.80	51.278
518.14	50.376
518.49	52.275
518.83	50.852
519.17	50.404
519.52	50.990
519.86	50.656
520.20	49.884
520.55	51.287
520.89	51.764
521.23	51.206
521.58	51.561
521.92	51.317
522.26	50.336
522.61	51.402
522.95	51.136
523.29	49.787
523.64	50.610
523.98	50.893
524.32	51.327
524.66	51.112
525.01	50.735
525.35	50.743
525.69	50.369
526.04	50.156
526.38	50.153
526.72	50.859
527.06	51.977
527.41	49.196
527.75	51.383
528.09	51.317
528.43	50.287
528.78	50.645
529.12	50.485
529.46	50.582
529.80	51.733
530.15	50.779
530.49	49.354
530.83	50.506
531.17	51.762
531.51	50.973
531.86	51.806
532.20	51.434
532.54	51.698
532.88	50.963
533.22	50.156
533.57	49.753
533.91	50.331
534.25	50.729
534.59	50.092
534.93	50.149
535.27	50.815
535.62	50.794
535.96	50.659
536.30	50.159
536.64	51.191
536.98	50.232
537.32	51.086
537.66	51.067
538.01	50.033
538.35	50.356
538.69	50.287
539.03	48.343
539.37	49.265
539.71	48.801
540.05	49.739
540.39	50.166
540.73	49.159
541.07	50.487
541.42	51.142
541.76	51.677
542.10	49.741
542.44	49.801
542.78	50.461
543.12	48.880
543.46	49.967
543.80	50.228
544.14	48.460
544.48	48.635
544.82	49.519
545.16	50.943
545.50	49.550
545.84	50.739
546.18	49.697
546.52	49.759
546.86	50.790
547.20	49.966
547.54	48.697
547.88	49.490
548.22	48.692
548.56	47.925
548.90	47.887
549.24	48.687
549.58	49.250
549.92	50.000
550.26	49.858
550.60	49.170
550.94	49.155
551.28	49.378
551.62	49.533
551.96	49.333
552.30	50.444
552.64	48.141
552.98	50.441
553.32	47.943
553.66	49.080
554.00	49.554
554.34	47.619
554.68	50.787
555.02	48.096
555.36	48.156
555.69	48.376
556.03	48.520
556.37	48.636
556.71	47.817
557.05	47.479
557.39	48.006
557.73	48.342
558.07	48.949
558.41	47.178
558.75	49.008
559.08	48.919
559.42	49.660
559.76	48.382
560.10	47.323
560.44	48.358
560.78	46.906
561.12	47.164
561.45	48.240
561.79	47.001
562.13	47.082
562.47	46.516
562.81	47.978
563.15	47.023
563.48	47.878
563.82	47.750
564.16	46.109
564.50	46.680
564.84	46.903
565.17	46.911
565.51	46.454
565.85	47.081
566.19	46.337
566.52	47.055
566.86	45.509
567.20	46.344
567.54	45.320
567.88	45.464
568.21	46.667
568.55	45.753
568.89	46.158
569.23	43.939
569.56	42.267
569.90	44.340
570.24	43.595
570.57	42.877
570.91	42.534
571.25	42.156
571.59	42.504
571.92	41.964
572.26	42.663
572.60	42.252
572.93	42.069
573.27	42.502
573.61	42.518
573.95	42.532
574.28	41.558
574.62	41.642
574.96	41.314
575.29	40.955
575.63	42.048
575.97	41.474
576.30	41.822
576.64	41.799
576.98	41.565
577.31	41.543
577.65	41.281
577.98	40.893
578.32	40.369
578.66	40.985
578.99	40.676
579.33	40.789
579.67	40.404
580.00	40.782
580.34	41.054
580.67	41.054
581.01	41.444
581.35	40.949
581.68	41.324
582.02	40.021
582.35	40.163
582.69	40.440
583.02	40.511
583.36	40.881
583.70	41.334
584.03	41.693
584.37	41.976
584.70	41.458
585.04	40.558
585.37	40.867
585.71	40.742
586.04	40.879
586.38	41.118
586.72	41.646
587.05	40.587
587.39	40.818
587.72	40.273
588.06	40.502
588.39	41.317
588.73	41.009
589.06	41.041
589.40	42.054
589.73	41.570
590.07	41.637
590.40	41.542
590.73	41.959
591.07	43.183
591.40	42.556
591.74	42.727
592.07	41.841
592.41	42.042
592.74	40.899
593.08	40.240
593.41	40.335
593.75	39.382
594.08	39.725
594.41	40.933
594.75	40.998
595.08	41.052
595.42	40.911
595.75	41.417
596.09	40.819
596.42	42.240
596.75	41.705
597.09	41.645
597.42	40.556
597.75	40.793
598.09	40.609
598.42	41.323
598.76	40.413
599.09	39.757
599.42	39.374
599.76	40.959
600.09	39.417
600.42	39.774
600.76	39.357
601.09	39.454
601.42	40.373
601.76	40.531
602.09	40.119
602.42	40.963
602.76	39.984
603.09	40.637
603.42	41.117
603.76	40.625
604.09	39.628
604.42	40.236
604.76	40.616
605.09	40.367
605.42	40.402
605.75	40.439
606.09	39.650
606.42	39.926
606.75	40.398
607.09	39.682
607.42	40.094
607.75	40.084
608.08	39.948
608.42	40.251
608.75	39.991
609.08	39.870
609.41	39.981
609.75	40.591
610.08	40.386
610.41	39.618
610.74	39.688
611.07	40.119
611.41	40.383
611.74	40.674
612.07	41.097
612.40	40.504
612.73	40.842
613.07	41.703
613.40	40.600
613.73	40.220
614.06	40.591
614.39	39.486
614.72	40.316
615.06	39.601
615.39	40.127
615.72	39.519
616.05	38.596
616.38	40.411
616.71	40.202
617.05	41.578
617.38	40.649
617.71	41.562
618.04	40.745
618.37	39.326
618.70	40.946
619.03	40.658
619.36	41.412
619.69	40.704
620.03	41.827
620.36	41.176
620.69	41.370
621.02	41.298
621.35	41.269
621.68	41.978
622.01	40.944
622.34	41.831
622.67	40.837
623.00	40.205
623.33	39.028
623.66	40.743
623.99	39.543
624.32	39.943
624.65	41.314
624.99	40.156
625.32	40.406
625.65	40.947
625.98	41.353
626.31	41.835
626.64	41.551
626.97	41.895
627.30	40.898
627.63	41.509
627.96	40.959
628.29	42.957
628.62	41.446
628.95	44.340
629.28	42.609
629.61	42.530
629.94	42.571
630.26	42.135
630.59	42.517
630.92	41.954
631.25	42.349
631.58	43.243
631.91	42.495
632.24	42.194
632.57	42.183
632.90	42.873
633.23	43.736
633.56	42.825
633.89	43.715
634.22	42.906
634.55	44.615
634.88	43.593
635.20	44.205
635.53	44.217
635.86	43.317
636.19	42.706
636.52	42.330
636.85	43.757
637.18	42.972
637.51	44.444
637.83	41.800
638.16	43.095
638.49	43.829
638.82	45.133
639.15	43.375
639.48	42.145
639.81	45.576
640.13	43.490
640.46	42.416
640.79	41.744
641.12	42.779
641.45	43.436
641.77	45.950
642.10	45.468
642.43	45.195
642.76	46.285
643.09	44.018
643.41	44.310
643.74	45.679
644.07	41.616
644.40	45.552
644.73	45.354
645.05	47.544
645.38	44.234
645.71	45.894
646.04	44.020
646.36	47.078
646.69	46.154
647.02	46.088
647.35	48.282
647.67	45.310
648.00	46.179
648.33	43.564
648.66	42.576
648.98	42.879
649.31	42.601
649.64	43.797
649.96	44.858
650.29	43.602
650.62	44.498
650.94	45.543
651.27	46.453
651.60	46.423
651.92	44.409
652.25	43.485
652.58	43.769
652.90	46.130
653.23	43.297
653.56	44.094
653.88	43.740
654.21	44.076
654.54	46.040
654.86	45.171
655.19	41.081
655.52	30.484
655.84	28.549
656.17	37.285
656.49	50.310
656.82	51.231
657.15	38.764
657.47	28.624
657.80	22.250
658.13	22.677
658.45	34.252
658.78	34.197
659.10	36.205
659.43	38.155
659.75	39.750
660.08	44.367
660.41	48.603
660.73	48.158
661.06	47.293
661.38	48.545
661.71	47.308
662.03	47.535
662.36	44.732
662.68	45.783
663.01	45.253
663.33	45.860
663.66	47.269
663.98	48.164
664.31	45.588
664.63	45.344
664.96	41.449
665.28	45.697
665.61	44.639
665.93	45.875
666.26	45.233
666.58	46.234
666.91	48.626
667.23	46.292
667.56	44.060
667.88	45.085
668.21	43.923
668.53	47.072
668.86	46.970
669.18	47.548
669.50	47.609
669.83	48.584
670.15	47.556
670.48	48.148
670.80	48.707
671.13	45.435
671.45	44.681
671.77	46.843
672.10	44.362
672.42	45.936
672.75	41.957
673.07	44.542
673.39	45.570
673.72	44.531
674.04	45.686
674.37	44.272
674.69	42.331
675.01	42.259
675.34	45.380
675.66	46.947
675.98	43.788
676.31	45.168
676.63	47.346
676.95	44.864
677.28	46.262
677.60	45.934
677.92	48.101
678.25	45.996
678.57	47.410
678.89	42.886
679.22	42.240
679.54	43.893
679.86	46.055
680.18	43.828
680.51	44.858
680.83	40.747
681.15	44.906
681.48	45.747
681.80	44.681
682.12	43.678
682.44	41.393
682.77	48.269
683.09	47.639
683.41	46.120
683.73	46.137
684.06	46.488
684.38	42.857
684.70	43.992
685.02	42.402
685.34	43.956
685.67	40.210
685.99	41.581
686.31	44.198
686.63	41.873
686.96	40.179
687.28	43.141
687.60	39.674
687.92	40.951
688.24	41.065
688.56	45.181
688.89	45.436
689.21	47.817
689.53	43.424
689.85	47.894
690.17	44.928
690.49	45.011
690.82	46.028
691.14	42.857
691.46	44.304
691.78	41.566
692.10	46.074
692.42	45.908
692.74	44.191
693.06	44.681
693.39	43.943
693.71	44.760
694.03	42.947
694.35	40.476
694.67	42.334
694.99	48.293
695.31	45.343
695.63	43.062
695.95	45.966
696.27	45.685
696.59	46.114
696.91	45.855
697.23	42.019
697.56	43.284
697.88	41.718
698.20	42.083
698.52	45.591
698.84	42.094
699.16	44.240
699.48	44.893
699.80	46.135
700.12	48.312
700.44	46.950
700.76	47.790
701.08	47.126
701.40	46.089
701.72	48.980
702.04	51.989
702.36	45.326
702.68	45.892
703.00	47.922
703.32	45.745
703.64	47.453
703.96	48.189
704.28	50.581
704.60	50.147
704.91	49.555
705.23	46.921
705.55	55.482
705.87	54.153
706.19	49.117
706.51	49.221
706.83	50.000
707.15	48.179
707.47	47.727
707.79	46.437
708.11	43.379
708.43	42.143
708.74	44.133
709.06	48.052
709.38	44.882
709.70	47.384
710.02	48.368
710.34	47.273
710.66	46.567
710.98	46.875
711.29	49.709
711.61	50.737
711.93	48.397
712.25	52.412
712.57	52.574
712.89	50.519
713.20	48.024
713.52	51.645
713.84	49.367
714.16	49.695
714.48	47.126
714.80	53.191
715.11	44.957
715.43	46.291
715.75	46.957
716.07	45.687
716.39	48.903
716.70	50.831
717.02	50.000
717.34	54.417
717.66	51.866
717.97	54.980
718.29	48.519
718.61	51.825
718.93	51.103
719.24	49.481
719.56	49.492
719.88	47.119
720.20	46.284
720.51	49.129
720.83	51.301
721.15	52.239
721.46	47.518
721.78	51.613
722.10	50.566
722.42	56.015
722.73	51.311
723.05	53.689
723.37	55.061
723.68	53.668
724.00	53.659
724.32	54.435
724.63	52.439
724.95	53.556
725.27	53.441
725.58	56.641
725.90	48.905
726.22	49.057
726.53	51.042
726.85	47.099
727.16	48.043
727.48	48.227
727.80	49.621
728.11	50.362
728.43	50.000
728.74	50.538
729.06	54.015
729.38	52.941
729.69	53.737
730.01	45.734
730.32	47.222
730.64	48.495
730.96	42.904
731.27	49.669
731.59	47.706
731.90	47.813
732.22	46.584
732.53	44.582
732.85	46.795
733.16	42.122
733.48	48.505
733.80	46.104
734.11	47.452
734.43	49.408
734.74	44.571
735.06	41.261
735.37	47.688
735.69	48.408
736.00	49.020
736.32	45.794
736.63	43.450
736.95	48.882
737.26	43.537
737.58	44.839
737.89	48.829
738.21	50.512
738.52	50.714
738.83	47.170
739.15	51.154
739.46	48.905
739.78	50.000
740.09	45.231
740.41	48.387
740.72	44.599
741.04	52.593
741.35	55.833
741.66	58.222
741.98	50.472
742.29	59.809
742.61	56.466
742.92	52.489
743.23	54.701
743.55	55.200
743.86	51.754
744.18	57.522
744.49	63.636
744.80	56.338
745.12	54.091
745.43	56.828
745.74	56.757
746.06	54.128
746.37	53.812
746.68	54.299
747.00	55.093
747.31	57.619
747.62	51.770
747.94	55.507
748.25	54.043
748.56	55.507
748.88	51.980
749.19	57.500
749.50	54.884
749.82	50.813
750.13	47.347
750.44	49.635
750.75	47.719
751.07	48.875
751.38	49.477
751.69	50.181
752.01	55.639
752.32	44.765
752.63	46.454
752.94	50.410
753.26	49.600
753.57	48.374
753.88	47.266
754.19	46.429
754.51	52.778
754.82	45.487
755.13	50.566
755.44	48.872
755.75	43.796
756.07	47.872
756.38	48.905
756.69	46.644
757.00	40.120
757.31	42.730
757.63	41.228
757.94	43.700
758.25	41.176
758.56	37.531
758.87	40.860
759.18	40.606
759.50	42.633
759.81	42.056
760.12	42.500
760.43	42.693
760.74	41.033
761.05	45.480
761.36	40.107
761.67	44.034
761.99	43.168
762.30	46.181
762.61	51.527
762.92	51.172
763.23	47.059
763.54	46.800
763.85	46.484
764.16	49.615
764.47	50.951
764.78	46.996
765.10	37.658
765.41	49.263
765.72	41.617
766.03	44.828
766.34	41.000
766.65	57.021
766.96	52.564
767.27	58.376
767.58	57.812
767.89	58.421
768.20	54.598
768.51	57.868
768.82	50.459
769.13	48.780
769.44	47.368
769.75	50.215
770.06	49.541
770.37	57.466
770.68	55.556
770.99	48.889
771.30	48.361
771.61	52.466
771.92	50.410
772.23	53.782
772.54	55.897
772.85	61.780
773.16	57.979
773.47	57.065
773.78	59.898
774.09	57.738
774.39	64.912
774.70	58.025
775.01	65.217
775.32	67.974
775.63	61.184
775.94	60.432
776.25	75.591
776.56	71.642
776.87	72.131
777.18	67.187
777.48	69.466
777.79	71.212
778.10	77.778
778.41	73.214
778.72	58.394
779.03	59.732
779.34	65.101
779.65	70.270
779.95	64.417
780.26	69.935
780.57	63.448
780.88	76.563
781.19	66.917
781.50	70.946
781.80	64.151
782.11	57.627
782.42	62.658
782.73	63.804
783.04	66.892
783.34	71.127
783.65	73.973
783.96	70.149
784.27	55.944
784.57	61.871
784.88	62.963
785.19	70.635
785.50	74.528
785.81	77.612
786.11	68.033
786.42	66.667
786.73	82.301
787.04	84.906
787.34	75.893
787.65	87.000
787.96	72.973
788.26	63.636
788.57	83.051
788.88	76.860
789.19	67.361
789.49	76.515
789.80	67.176
790.11	87.619
790.41	80.198
790.72	81.928
791.03	82.609
791.33	93.023
791.64	89.691
791.95	79.208
792.25	94.444
792.56	98.701
792.87	94.872
793.17	110.127
793.48	95.402
793.79	80.460
794.09	86.364
794.40	74.790
794.70	76.471
795.01	70.370
795.32	75.540
795.62	75.591
795.93	81.897
796.23	69.027
796.54	94.118
796.85	82.432
797.15	125.352
797.46	121.212
797.76	89.157
798.07	86.076
798.37	113.846
798.68	109.091
798.99	104.225
799.29	92.208
799.60	87.500
799.90	104.110
800.21	107.463
800.51	120.690
800.82	133.333
801.12	124.590
801.43	106.061
801.73	89.189
802.04	103.175
802.34	97.531
802.65	115.625
802.95	130.508
803.26	117.188
803.56	115.714
803.87	101.538
804.17	102.941
804.48	142.593
804.78	139.655
805.09	114.706
805.39	115.385
805.70	100.000
806.00	111.475
806.30	107.576
806.61	107.317
806.91	91.139
807.22	109.211
807.52	101.493
807.83	111.268
808.13	115.625
808.43	118.333
808.74	92.105
809.04	110.145
809.35	119.403
809.65	101.316
809.95	130.645
810.26	113.559
810.56	112.698
810.86	172.727
811.17	159.524
811.47	126.667
811.77	118.519
812.08	140.000
812.38	146.000
812.69	177.778
812.99	184.091
813.29	144.898
813.59	123.810
813.90	144.898
814.20	127.273
814.50	103.077
814.81	132.353
815.11	163.265
815.41	104.918
815.72	164.286
816.02	130.909
816.32	145.238
816.62	127.500
816.93	139.024
817.23	159.524
817.53	154.545
817.84	203.030
818.14	145.652
818.44	160.000
818.74	179.412
819.04	157.500
819.35	182.857
819.65	208.824
819.95	203.571
820.25	250.000
820.56	174.359
820.86	150.000
821.16	151.163
821.46	158.974
821.76	166.000
822.07	177.143
822.37	185.000
822.67	203.030
822.97	143.137
823.27	235.714
823.57	170.270
823.88	187.500
824.18	243.333
824.48	161.905
824.78	284.000
825.08	258.333
825.38	191.892
825.69	146.341
825.99	254.167
826.29	182.759
826.59	163.158
826.89	157.895
827.19	232.353
827.49	212.903
827.79	161.364
828.09	161.364
828.39	138.298
828.70	144.898
829.00	211.111
829.30	177.419
829.60	170.000
829.90	326.667
830.20	210.714
830.50	226.087
830.80	282.609
831.10	240.000
831.40	216.667
831.70	273.913
832.00	215.385
832.30	244.444
832.60	368.750
832.90	246.667
833.20	478.571
833.50	241.935
833.80	200.000
834.10	212.500
834.40	292.308
834.70	305.556
835.00	357.143
835.30	185.714
835.60	384.615
835.90	196.552
836.20	421.429
836.50	231.034
836.80	236.000
837.10	211.111
837.40	319.048
837.70	358.824
838.00	248.148
838.30	295.238
838.60	285.714
838.90	261.538
839.19	320.000
839.49	485.714
839.79	390.000
840.09	270.000
840.39	328.571
840.69	278.261
840.99	322.222
841.29	550.000
841.59	308.333
841.88	387.500
842.18	237.931
842.48	328.571
842.78	253.333
843.08	286.957
843.38	209.375
843.68	883.333
843.97	246.154
844.27	206.897
844.57	352.381
844.87	412.500
845.17	240.741
845.47	1933.333
845.76	566.667
846.06	352.941
846.36	537.500
846.66	428.571
846.96	312.500
847.25	463.636
847.55	527.273
847.85	291.304
848.15	600.000
848.44	435.714
848.74	250.000
849.04	370.588
849.34	580.000
849.63	278.947
849.93	490.909
850.23	1100.000
850.53	428.571
850.82	2500.000
851.12	-5200.000
851.42	5100.000
851.71	350.000
852.01	-1533.333
852.31	250.000
852.61	1933.333
852.90	285.714
853.20	260.000
853.50	382.353
853.79	295.238
854.09	300.000
854.39	393.750
854.68	227.027
854.98	209.677
855.28	180.000
855.57	227.586
855.87	244.444
856.17	331.579
856.46	340.000
856.76	300.000
857.05	237.931
857.35	204.167
857.65	373.333
857.94	234.783
858.24	257.692
858.53	355.000
858.83	304.545
859.13	353.333
859.42	0.000
859.72	700.000
860.01	527.273
860.31	281.818
860.60	310.526
860.90	300.000
861.20	533.333
861.49	508.333
861.79	-5700.000
862.08	825.000
862.38	290.476
862.67	438.462
862.97	405.882
863.26	566.667
863.56	333.333
863.85	458.333
864.15	737.500
864.44	440.000
864.74	1016.667
865.03	687.500
865.33	342.105
865.62	563.636
865.92	523.077
866.21	491.667
866.51	0.000
866.80	490.909
867.10	1300.000
867.39	461.538
867.69	554.545
867.98	257.895
868.27	445.455
868.57	389.474
868.86	-5200.000
869.16	362.500
869.45	2300.000
869.75	-5200.000
870.04	583.333
870.33	785.714
870.63	1300.000
870.92	3250.000
871.22	914.286
871.51	358.824
871.80	271.429
872.10	471.429
>>>>>End Processed Spectral Data<<<<<
