SpectraSuite Data File
++++++++++++++++++++++++++++++++++++
Date: Wed May 13 19:12:06 PDT 2015
User: schluterlab
Dark Spectrum Present: Yes
Reference Spectrum Present: Yes
Number of Sampled Component Spectra: 1
Spectrometers: USB2E3373
Integration Time (usec): 3000 (USB2E3373)
Spectra Averaged: 3 (USB2E3373)
Boxcar Smoothing: 0 (USB2E3373)
Correct for Electrical Dark: No (USB2E3373)
Strobe/Lamp Enabled: No (USB2E3373)
Correct for Detector Non-linearity: No (USB2E3373)
Correct for Stray Light: No (USB2E3373)
Number of Pixels in Processed Spectrum: 2048
>>>>>Begin Processed Spectral Data<<<<<
178.53	0.000
178.91	-1575.000
179.29	-1475.000
179.67	-222.222
180.04	-1450.000
180.42	2800.000
180.80	1180.000
181.18	-1150.000
181.56	757.143
181.94	0.000
182.31	-885.714
182.69	1966.667
183.07	-600.000
183.45	-455.556
183.83	700.000
184.20	-580.000
184.58	3150.000
184.96	5500.000
185.34	-1040.000
185.72	-562.500
186.09	-2650.000
186.47	3450.000
186.85	2500.000
187.23	5400.000
187.61	-1733.333
187.98	1525.000
188.36	609.091
188.74	600.000
189.12	-980.000
189.49	590.000
189.87	-5200.000
190.25	-1450.000
190.63	442.857
191.00	461.538
191.38	1066.667
191.76	-1375.000
192.14	1575.000
192.51	762.500
192.89	1216.667
193.27	637.500
193.65	-1425.000
194.02	560.000
194.40	1120.000
194.78	550.000
195.15	533.333
195.53	710.000
195.91	-2650.000
196.29	412.500
196.66	347.368
197.04	-430.000
197.42	0.000
197.79	700.000
198.17	-6500.000
198.55	671.429
198.92	787.500
199.30	1020.000
199.68	0.000
200.05	361.111
200.43	842.857
200.81	5100.000
201.18	2100.000
201.56	-1800.000
201.94	688.889
202.31	688.889
202.69	508.333
203.07	590.000
203.44	0.000
203.82	1375.000
204.19	942.857
204.57	471.429
204.95	687.500
205.32	1833.333
205.70	536.364
206.08	421.429
206.45	3200.000
206.83	356.250
207.20	966.667
207.58	1040.000
207.96	383.333
208.33	887.500
208.71	-933.333
209.08	842.857
209.46	644.444
209.84	527.273
210.21	-1833.333
210.59	1550.000
210.96	-650.000
211.34	2450.000
211.71	700.000
212.09	783.333
212.46	0.000
212.84	1900.000
213.22	1600.000
213.59	-6100.000
213.97	933.333
214.34	857.143
214.72	709.091
215.09	1100.000
215.47	-2800.000
215.84	-2750.000
216.22	1633.333
216.59	528.571
216.97	1375.000
217.34	600.000
217.72	-950.000
218.09	0.000
218.47	-5500.000
218.84	700.000
219.22	857.143
219.59	1700.000
219.97	-757.143
220.34	1260.000
220.72	-1966.667
221.09	485.714
221.47	1475.000
221.84	-1000.000
222.22	0.000
222.59	1425.000
222.97	-2500.000
223.34	1220.000
223.72	476.923
224.09	1240.000
224.46	2400.000
224.84	-6700.000
225.21	-1220.000
225.59	-6300.000
225.96	720.000
226.34	355.000
226.71	2750.000
227.08	812.500
227.46	720.000
227.83	-1150.000
228.21	-2650.000
228.58	700.000
228.95	-2750.000
229.33	-2350.000
229.70	2166.667
230.08	828.571
230.45	-980.000
230.82	500.000
231.20	1066.667
231.57	657.143
231.95	483.333
232.32	290.909
232.69	554.545
233.07	628.571
233.44	384.615
233.81	-2000.000
234.19	294.737
234.56	500.000
234.93	558.333
235.31	572.727
235.68	453.846
236.05	371.429
236.43	236.364
236.80	326.316
237.17	6100.000
237.55	304.762
237.92	271.429
238.29	314.286
238.67	206.452
239.04	286.207
239.41	227.778
239.79	152.174
240.16	204.762
240.53	168.182
240.91	121.569
241.28	152.000
241.65	136.000
242.02	139.130
242.40	124.194
242.77	115.000
243.14	102.151
243.51	102.247
243.89	109.412
244.26	95.556
244.63	82.796
245.00	104.255
245.38	94.059
245.75	94.393
246.12	88.073
246.49	90.511
246.87	90.400
247.24	83.077
247.61	81.429
247.98	75.163
248.36	72.297
248.73	73.248
249.10	89.172
249.47	70.056
249.84	75.401
250.22	66.845
250.59	72.781
250.96	64.141
251.33	69.194
251.70	67.822
252.08	69.524
252.45	59.641
252.82	67.391
253.19	70.638
253.56	62.745
253.94	67.220
254.31	60.156
254.68	60.769
255.05	61.993
255.42	58.943
255.79	61.029
256.16	64.260
256.54	55.830
256.91	64.057
257.28	56.115
257.65	61.056
258.02	54.969
258.39	55.521
258.76	57.860
259.14	56.250
259.51	51.368
259.88	54.969
260.25	56.495
260.62	52.890
260.99	55.280
261.36	54.655
261.73	56.160
262.10	52.907
262.47	56.338
262.85	54.596
263.22	53.561
263.59	52.422
263.96	57.967
264.33	53.003
264.70	52.895
265.07	51.662
265.44	51.515
265.81	51.095
266.18	53.266
266.55	51.707
266.92	52.580
267.29	51.157
267.66	50.688
268.03	47.500
268.40	51.636
268.77	51.074
269.14	51.126
269.51	53.047
269.88	51.515
270.25	49.661
270.62	51.910
270.99	51.183
271.36	46.352
271.73	51.168
272.10	48.696
272.47	50.753
272.84	48.701
273.21	50.105
273.58	46.507
273.95	46.960
274.32	46.901
274.69	49.465
275.06	46.850
275.43	48.936
275.80	46.894
276.17	47.251
276.54	50.312
276.91	47.036
277.28	45.703
277.65	46.615
278.02	48.654
278.39	50.391
278.76	47.636
279.13	46.981
279.50	47.300
279.87	46.614
280.23	46.507
280.60	47.002
280.97	47.689
281.34	47.434
281.71	46.182
282.08	48.177
282.45	44.727
282.82	44.405
283.19	44.742
283.56	45.263
283.92	46.193
284.29	43.915
284.66	47.187
285.03	44.304
285.40	44.014
285.77	44.108
286.14	44.041
286.51	45.167
286.87	43.590
287.24	44.951
287.61	42.215
287.98	42.370
288.35	43.265
288.72	42.523
289.08	42.567
289.45	41.351
289.82	41.789
290.19	40.973
290.56	39.969
290.93	39.426
291.29	39.571
291.66	38.791
292.03	42.297
292.40	39.501
292.77	38.018
293.13	39.254
293.50	38.047
293.87	38.074
294.24	38.222
294.60	35.808
294.97	36.628
295.34	37.377
295.71	37.500
296.08	37.607
296.44	36.176
296.81	35.799
297.18	36.043
297.55	32.322
297.91	35.356
298.28	37.751
298.65	35.379
299.02	34.519
299.38	36.255
299.75	32.749
300.12	33.716
300.48	33.375
300.85	32.676
301.22	33.758
301.59	31.818
301.95	32.746
302.32	33.504
302.69	32.975
303.05	33.697
303.42	32.099
303.79	32.276
304.15	31.585
304.52	30.823
304.89	31.359
305.25	31.206
305.62	31.710
305.99	32.231
306.35	31.320
306.72	32.287
307.09	32.297
307.45	31.869
307.82	29.688
308.19	31.126
308.55	32.362
308.92	31.257
309.29	30.517
309.65	30.647
310.02	31.078
310.38	30.430
310.75	31.045
311.12	31.423
311.48	30.825
311.85	32.809
312.22	31.946
312.58	29.834
312.95	30.729
313.31	30.097
313.68	30.977
314.05	33.432
314.41	31.357
314.78	31.118
315.14	31.281
315.51	30.999
315.87	31.386
316.24	30.983
316.61	31.969
316.97	31.409
317.34	31.213
317.70	33.174
318.07	32.243
318.43	33.855
318.80	32.896
319.16	32.674
319.53	31.426
319.89	33.905
320.26	35.000
320.62	33.631
320.99	34.040
321.35	33.535
321.72	34.189
322.08	35.143
322.45	35.821
322.81	34.787
323.18	35.067
323.54	33.859
323.91	35.566
324.27	35.277
324.64	34.203
325.00	35.528
325.37	37.398
325.73	37.702
326.10	38.041
326.46	36.022
326.83	38.913
327.19	38.258
327.56	38.066
327.92	38.058
328.29	39.130
328.65	38.582
329.01	39.079
329.38	39.038
329.74	38.504
330.11	37.983
330.47	39.486
330.84	42.004
331.20	39.071
331.56	39.266
331.93	39.352
332.29	39.574
332.66	39.469
333.02	41.956
333.38	41.644
333.75	41.176
334.11	40.658
334.48	40.284
334.84	41.085
335.20	40.455
335.57	40.254
335.93	38.929
336.29	41.758
336.66	40.307
337.02	40.452
337.38	41.759
337.75	40.731
338.11	40.913
338.47	41.529
338.84	42.530
339.20	41.560
339.56	41.332
339.93	39.545
340.29	40.670
340.65	40.285
341.02	41.798
341.38	41.637
341.74	40.263
342.11	41.310
342.47	41.233
342.83	40.753
343.20	42.251
343.56	40.607
343.92	42.456
344.28	40.646
344.65	40.843
345.01	40.741
345.37	40.137
345.73	41.032
346.10	41.091
346.46	41.356
346.82	40.774
347.19	40.936
347.55	39.573
347.91	41.667
348.27	42.317
348.63	41.221
349.00	39.887
349.36	40.805
349.72	40.898
350.08	40.519
350.45	41.904
350.81	42.161
351.17	41.329
351.53	42.015
351.89	39.769
352.26	41.121
352.62	40.978
352.98	40.276
353.34	41.331
353.70	40.835
354.07	40.968
354.43	39.683
354.79	39.260
355.15	41.101
355.51	41.647
355.87	41.306
356.24	41.042
356.60	40.257
356.96	42.317
357.32	41.619
357.68	41.575
358.04	40.776
358.40	41.013
358.77	40.610
359.13	40.331
359.49	41.569
359.85	42.063
360.21	41.148
360.57	40.545
360.93	40.308
361.29	39.229
361.66	40.248
362.02	40.522
362.38	41.901
362.74	40.774
363.10	41.451
363.46	40.719
363.82	41.572
364.18	40.382
364.54	41.382
364.90	41.926
365.26	41.618
365.62	42.075
365.98	40.979
366.35	40.903
366.71	40.853
367.07	41.369
367.43	41.509
367.79	41.827
368.15	42.098
368.51	41.715
368.87	41.256
369.23	41.917
369.59	42.433
369.95	41.985
370.31	42.094
370.67	40.797
371.03	42.846
371.39	43.149
371.75	41.324
372.11	40.114
372.47	42.595
372.83	43.444
373.19	41.908
373.55	42.942
373.91	43.152
374.27	41.512
374.63	41.527
374.99	42.655
375.35	43.126
375.71	42.906
376.07	42.044
376.42	43.673
376.78	42.611
377.14	42.130
377.50	43.841
377.86	41.822
378.22	42.541
378.58	42.168
378.94	42.740
379.30	43.066
379.66	43.211
380.02	42.383
380.38	41.834
380.74	43.938
381.09	42.665
381.45	43.884
381.81	42.936
382.17	44.331
382.53	43.019
382.89	44.630
383.25	44.153
383.61	43.742
383.97	43.840
384.32	43.044
384.68	44.486
385.04	44.376
385.40	43.406
385.76	43.673
386.12	44.689
386.48	43.864
386.83	45.093
387.19	45.702
387.55	45.145
387.91	46.312
388.27	43.899
388.62	46.220
388.98	45.147
389.34	45.870
389.70	44.942
390.06	46.515
390.42	46.239
390.77	45.547
391.13	45.501
391.49	45.876
391.85	46.849
392.20	46.120
392.56	45.707
392.92	46.733
393.28	46.568
393.64	45.803
393.99	45.327
394.35	47.022
394.71	46.173
395.07	45.981
395.42	48.022
395.78	47.201
396.14	46.493
396.50	48.120
396.85	47.425
397.21	46.301
397.57	46.683
397.92	46.214
398.28	46.300
398.64	47.192
399.00	46.279
399.35	47.321
399.71	47.280
400.07	47.191
400.42	47.669
400.78	46.984
401.14	47.927
401.49	48.299
401.85	46.400
402.21	46.168
402.57	48.057
402.92	49.306
403.28	49.532
403.63	49.257
403.99	50.255
404.35	47.879
404.70	49.221
405.06	47.932
405.42	49.657
405.77	48.286
406.13	47.517
406.49	50.503
406.84	48.612
407.20	50.532
407.55	50.351
407.91	50.733
408.27	50.862
408.62	49.308
408.98	50.184
409.34	50.062
409.69	51.484
410.05	50.743
410.40	50.887
410.76	49.701
411.11	51.025
411.47	49.712
411.83	50.397
412.18	48.918
412.54	50.872
412.89	50.602
413.25	51.122
413.60	50.340
413.96	50.152
414.31	50.729
414.67	52.218
415.03	52.914
415.38	52.126
415.74	51.897
416.09	53.233
416.45	52.209
416.80	52.280
417.16	52.413
417.51	51.891
417.87	52.087
418.22	52.934
418.58	52.679
418.93	52.826
419.29	52.833
419.64	53.904
420.00	53.171
420.35	53.159
420.71	52.660
421.06	53.103
421.42	53.450
421.77	53.251
422.12	52.274
422.48	52.725
422.83	54.048
423.19	52.652
423.54	54.150
423.90	52.638
424.25	53.936
424.61	54.167
424.96	54.636
425.31	53.710
425.67	52.191
426.02	54.629
426.38	54.945
426.73	53.950
427.09	54.650
427.44	55.492
427.79	54.399
428.15	55.417
428.50	54.418
428.85	55.721
429.21	55.329
429.56	54.640
429.92	53.951
430.27	54.667
430.62	55.197
430.98	55.060
431.33	54.742
431.68	56.283
432.04	54.420
432.39	55.854
432.74	55.835
433.10	54.556
433.45	57.376
433.80	55.710
434.16	55.235
434.51	56.211
434.86	57.469
435.22	55.475
435.57	57.447
435.92	56.934
436.28	58.185
436.63	57.230
436.98	56.382
437.34	56.768
437.69	57.935
438.04	56.998
438.39	57.851
438.75	56.421
439.10	57.989
439.45	57.025
439.81	57.704
440.16	57.482
440.51	58.524
440.86	57.962
441.22	57.953
441.57	58.121
441.92	57.472
442.27	58.181
442.63	56.977
442.98	59.493
443.33	57.772
443.68	58.080
444.03	58.663
444.39	57.936
444.74	57.846
445.09	58.383
445.44	58.666
445.79	57.645
446.15	59.079
446.50	59.074
446.85	59.815
447.20	58.644
447.55	60.357
447.91	59.239
448.26	58.375
448.61	59.525
448.96	59.302
449.31	60.292
449.66	59.707
450.02	59.554
450.37	59.127
450.72	59.673
451.07	60.146
451.42	57.872
451.77	60.129
452.12	58.891
452.47	59.764
452.83	59.149
453.18	58.924
453.53	59.617
453.88	60.189
454.23	60.430
454.58	60.872
454.93	60.521
455.28	60.973
455.63	60.740
455.98	61.429
456.34	60.741
456.69	61.741
457.04	60.495
457.39	59.906
457.74	61.230
458.09	59.804
458.44	60.319
458.79	58.731
459.14	60.553
459.49	60.304
459.84	60.000
460.19	60.754
460.54	58.681
460.89	60.669
461.24	61.384
461.59	61.185
461.94	59.926
462.29	61.424
462.64	61.264
462.99	60.898
463.34	61.467
463.69	61.288
464.04	60.928
464.39	60.058
464.74	60.368
465.09	60.072
465.44	60.000
465.79	60.738
466.14	58.292
466.49	58.398
466.84	59.311
467.19	61.135
467.54	61.562
467.89	60.744
468.24	61.082
468.59	62.393
468.94	59.988
469.29	61.375
469.64	62.182
469.99	62.855
470.34	61.757
470.68	60.991
471.03	61.224
471.38	61.918
471.73	62.492
472.08	62.697
472.43	60.804
472.78	60.434
473.13	61.232
473.48	61.236
473.83	61.098
474.17	61.357
474.52	60.670
474.87	62.230
475.22	59.489
475.57	59.538
475.92	60.648
476.27	60.710
476.61	60.673
476.96	60.308
477.31	60.335
477.66	61.597
478.01	60.742
478.36	60.391
478.70	59.657
479.05	60.863
479.40	61.822
479.75	61.261
480.10	61.083
480.45	59.733
480.79	60.440
481.14	60.029
481.49	60.845
481.84	60.265
482.19	61.427
482.53	61.147
482.88	60.959
483.23	60.888
483.58	60.100
483.92	61.340
484.27	59.259
484.62	59.871
484.97	58.731
485.31	60.240
485.66	58.186
486.01	56.724
486.36	54.898
486.70	54.209
487.05	55.571
487.40	56.920
487.75	57.393
488.09	58.538
488.44	59.440
488.79	61.013
489.13	61.268
489.48	60.848
489.83	59.862
490.17	60.982
490.52	60.673
490.87	60.697
491.22	59.754
491.56	60.273
491.91	60.074
492.26	59.807
492.60	60.046
492.95	60.243
493.30	60.234
493.64	60.943
493.99	59.749
494.34	60.823
494.68	60.211
495.03	61.654
495.37	59.981
495.72	60.429
496.07	61.392
496.41	58.761
496.76	59.499
497.11	59.523
497.45	60.410
497.80	60.269
498.14	60.435
498.49	61.610
498.84	61.074
499.18	60.810
499.53	60.589
499.87	60.857
500.22	60.622
500.56	60.097
500.91	60.048
501.26	60.076
501.60	60.892
501.95	59.670
502.29	61.153
502.64	61.034
502.98	60.215
503.33	59.644
503.67	59.861
504.02	59.963
504.36	59.803
504.71	60.039
505.06	59.084
505.40	61.497
505.75	59.450
506.09	60.301
506.44	61.273
506.78	60.935
507.13	61.383
507.47	60.960
507.82	61.297
508.16	61.955
508.51	62.912
508.85	60.675
509.19	61.276
509.54	60.969
509.88	60.845
510.23	62.365
510.57	63.467
510.92	62.299
511.26	60.483
511.61	60.944
511.95	60.908
512.30	62.460
512.64	62.332
512.98	62.647
513.33	61.884
513.67	61.473
514.02	62.067
514.36	63.353
514.70	61.760
515.05	63.079
515.39	61.806
515.74	62.500
516.08	63.108
516.42	61.487
516.77	63.545
517.11	62.375
517.46	62.923
517.80	64.576
518.14	62.305
518.49	63.944
518.83	63.125
519.17	63.395
519.52	62.592
519.86	63.776
520.20	63.815
520.55	64.572
520.89	64.720
521.23	65.018
521.58	64.466
521.92	65.095
522.26	64.185
522.61	65.732
522.95	63.966
523.29	64.029
523.64	64.756
523.98	64.449
524.32	65.018
524.66	64.402
525.01	65.012
525.35	64.064
525.69	64.224
526.04	65.234
526.38	65.772
526.72	64.110
527.06	64.783
527.41	63.181
527.75	65.531
528.09	65.832
528.43	66.858
528.78	65.704
529.12	64.485
529.46	64.483
529.80	66.089
530.15	66.231
530.49	63.754
530.83	65.759
531.17	68.342
531.51	65.370
531.86	65.548
532.20	66.102
532.54	66.880
532.88	66.303
533.22	64.710
533.57	64.259
533.91	63.095
534.25	64.763
534.59	66.443
534.93	63.712
535.27	66.144
535.62	65.079
535.96	66.792
536.30	64.717
536.64	64.842
536.98	66.622
537.32	65.635
537.66	67.733
538.01	67.413
538.35	66.774
538.69	64.454
539.03	64.912
539.37	65.304
539.71	64.679
540.05	65.686
540.39	66.113
540.73	65.330
541.07	65.412
541.42	66.471
541.76	67.613
542.10	65.201
542.44	66.689
542.78	66.535
543.12	64.491
543.46	66.951
543.80	66.298
544.14	65.982
544.48	65.587
544.82	64.593
545.16	66.298
545.50	64.589
545.84	64.852
546.18	66.532
546.52	66.621
546.86	68.660
547.20	65.880
547.54	65.197
547.88	66.263
548.22	64.695
548.56	65.409
548.90	65.429
549.24	65.859
549.58	67.258
549.92	67.033
550.26	69.105
550.60	68.050
550.94	65.986
551.28	65.179
551.62	66.858
551.96	66.175
552.30	66.621
552.64	66.126
552.98	66.576
553.32	66.689
553.66	66.258
554.00	66.369
554.34	66.253
554.68	67.525
555.02	66.573
555.36	64.370
555.69	64.817
556.03	65.343
556.37	66.371
556.71	65.348
557.05	67.087
557.39	66.550
557.73	65.914
558.07	67.368
558.41	66.860
558.75	67.010
559.08	67.189
559.42	67.347
559.76	67.206
560.10	65.239
560.44	65.479
560.78	65.602
561.12	66.029
561.45	64.993
561.79	64.535
562.13	64.923
562.47	66.052
562.81	67.085
563.15	64.482
563.48	65.517
563.82	64.710
564.16	64.944
564.50	63.737
564.84	62.579
565.17	64.157
565.51	63.770
565.85	63.959
566.19	63.181
566.52	64.281
566.86	62.628
567.20	64.269
567.54	62.900
567.88	61.869
568.21	63.122
568.55	61.628
568.89	61.089
569.23	59.626
569.56	59.676
569.90	59.509
570.24	58.952
570.57	58.586
570.91	56.141
571.25	57.937
571.59	57.320
571.92	56.797
572.26	58.261
572.60	57.988
572.93	57.781
573.27	57.557
573.61	57.203
573.95	57.235
574.28	56.608
574.62	56.268
574.96	56.033
575.29	55.407
575.63	55.996
575.97	56.313
576.30	56.691
576.64	56.507
576.98	56.296
577.31	55.638
577.65	56.135
577.98	55.730
578.32	55.024
578.66	55.702
578.99	55.239
579.33	55.725
579.67	55.558
580.00	55.814
580.34	55.482
580.67	56.464
581.01	56.398
581.35	55.533
581.68	55.124
582.02	54.749
582.35	54.322
582.69	54.501
583.02	55.974
583.36	55.707
583.70	56.943
584.03	57.106
584.37	57.207
584.70	57.053
585.04	56.189
585.37	55.662
585.71	56.344
586.04	55.786
586.38	56.296
586.72	56.614
587.05	55.365
587.39	55.303
587.72	55.862
588.06	55.763
588.39	55.556
588.73	56.292
589.06	56.591
589.40	57.609
589.73	57.797
590.07	56.726
590.40	57.033
590.73	58.509
591.07	59.056
591.40	57.233
591.74	58.918
592.07	57.679
592.41	57.007
592.74	56.479
593.08	55.263
593.41	56.058
593.75	54.653
594.08	55.615
594.41	56.557
594.75	56.414
595.08	55.404
595.42	55.762
595.75	56.624
596.09	56.853
596.42	57.092
596.75	58.337
597.09	58.052
597.42	55.481
597.75	57.137
598.09	57.391
598.42	57.045
598.76	56.182
599.09	56.252
599.42	55.058
599.76	55.381
600.09	55.373
600.42	55.442
600.76	55.071
601.09	56.066
601.42	56.621
601.76	55.104
602.09	56.403
602.42	56.330
602.76	55.502
603.09	56.373
603.42	56.072
603.76	54.802
604.09	55.487
604.42	55.809
604.76	56.643
605.09	55.701
605.42	55.237
605.75	55.422
606.09	55.958
606.42	55.783
606.75	54.873
607.09	55.337
607.42	55.584
607.75	56.414
608.08	55.493
608.42	55.356
608.75	55.861
609.08	55.412
609.41	55.450
609.75	55.455
610.08	56.362
610.41	54.749
610.74	57.285
611.07	56.126
611.41	55.790
611.74	55.405
612.07	58.023
612.40	57.135
612.73	56.316
613.07	56.735
613.40	55.924
613.73	55.060
614.06	56.774
614.39	55.375
614.72	55.842
615.06	56.513
615.39	56.104
615.72	54.294
616.05	53.854
616.38	56.031
616.71	58.967
617.05	57.185
617.38	55.442
617.71	56.817
618.04	57.692
618.37	56.949
618.70	57.312
619.03	57.895
619.36	58.384
619.69	57.606
620.03	56.731
620.36	57.152
620.69	57.603
621.02	58.555
621.35	58.966
621.68	59.190
622.01	58.204
622.34	57.489
622.67	58.403
623.00	57.447
623.33	56.469
623.66	57.970
623.99	58.321
624.32	57.703
624.65	56.568
624.99	55.241
625.32	57.060
625.65	58.302
625.98	59.416
626.31	58.709
626.64	58.122
626.97	58.603
627.30	58.853
627.63	58.409
627.96	58.789
628.29	58.705
628.62	59.378
628.95	61.415
629.28	58.668
629.61	61.412
629.94	61.238
630.26	59.009
630.59	59.199
630.92	59.291
631.25	60.118
631.58	58.058
631.91	59.939
632.24	60.232
632.57	59.077
632.90	59.868
633.23	60.738
633.56	61.469
633.89	61.382
634.22	60.953
634.55	62.722
634.88	62.754
635.20	61.051
635.53	62.048
635.86	62.624
636.19	60.235
636.52	60.208
636.85	61.512
637.18	60.138
637.51	60.165
637.83	59.063
638.16	60.997
638.49	60.076
638.82	63.590
639.15	62.875
639.48	60.973
639.81	63.271
640.13	62.109
640.46	63.221
640.79	61.162
641.12	61.761
641.45	60.894
641.77	67.452
642.10	63.596
642.43	65.465
642.76	64.551
643.09	64.877
643.41	61.457
643.74	62.963
644.07	62.652
644.40	64.110
644.73	64.252
645.05	64.818
645.38	61.611
645.71	64.895
646.04	65.615
646.36	68.280
646.69	65.050
647.02	64.456
647.35	64.433
647.67	67.965
648.00	63.415
648.33	61.716
648.66	61.818
648.98	61.019
649.31	58.894
649.64	59.940
649.96	61.997
650.29	63.033
650.62	63.107
650.94	62.399
651.27	64.358
651.60	63.394
651.92	62.300
652.25	58.632
652.58	62.928
652.90	62.875
653.23	59.322
653.56	60.945
653.88	61.807
654.21	62.401
654.54	63.531
654.86	62.773
655.19	57.297
655.52	42.857
655.84	38.427
656.17	49.699
656.49	67.357
656.82	69.216
657.15	52.561
657.47	39.452
657.80	30.299
658.13	31.515
658.45	47.302
658.78	47.727
659.10	48.943
659.43	52.689
659.75	55.784
660.08	58.291
660.41	64.153
660.73	64.168
661.06	64.650
661.38	64.545
661.71	64.231
662.03	65.680
662.36	61.829
662.68	62.651
663.01	64.242
663.33	66.242
663.66	65.126
663.98	67.171
664.31	63.655
664.63	62.955
664.96	62.173
665.28	64.139
665.61	63.353
665.93	61.771
666.26	63.489
666.58	64.854
666.91	65.539
667.23	63.820
667.56	63.499
667.88	63.675
668.21	66.738
668.53	62.690
668.86	64.069
669.18	62.687
669.50	64.348
669.83	64.052
670.15	66.000
670.48	64.924
670.80	64.440
671.13	63.057
671.45	61.277
671.77	64.155
672.10	61.922
672.42	60.424
672.75	59.038
673.07	60.915
673.39	58.590
673.72	61.523
674.04	63.333
674.37	60.388
674.69	62.986
675.01	63.598
675.34	64.271
675.66	67.368
675.98	64.358
676.31	61.765
676.63	61.996
676.95	61.635
677.28	65.888
677.60	62.637
677.92	64.135
678.25	63.039
678.57	59.363
678.89	59.319
679.22	58.939
679.54	60.115
679.86	58.532
680.18	58.676
680.51	57.979
680.83	57.295
681.15	59.623
681.48	61.059
681.80	59.768
682.12	60.536
682.44	55.899
682.77	59.878
683.09	64.163
683.41	60.089
683.73	60.044
684.06	58.884
684.38	57.730
684.70	57.946
685.02	59.850
685.34	56.044
685.67	56.993
685.99	56.014
686.31	54.437
686.63	55.300
686.96	56.071
687.28	56.137
687.60	57.065
687.92	57.404
688.24	60.076
688.56	60.643
688.89	57.884
689.21	61.572
689.53	59.708
689.85	62.306
690.17	54.658
690.49	59.023
690.82	60.748
691.14	59.152
691.46	59.494
691.78	57.229
692.10	59.504
692.42	55.489
692.74	55.602
693.06	60.638
693.39	59.138
693.71	62.664
694.03	60.421
694.35	61.039
694.67	59.268
694.99	60.732
695.31	60.294
695.63	60.766
695.95	63.325
696.27	59.898
696.59	60.104
696.91	62.435
697.23	56.573
697.56	58.635
697.88	54.806
698.20	54.792
698.52	56.989
698.84	57.906
699.16	58.986
699.48	57.482
699.80	59.179
700.12	63.636
700.44	63.660
700.76	61.602
701.08	64.368
701.40	62.291
701.72	62.974
702.04	64.205
702.36	61.756
702.68	66.006
703.00	64.543
703.32	61.170
703.64	62.198
703.96	60.167
704.28	68.605
704.60	65.396
704.91	64.392
705.23	63.636
705.55	70.764
705.87	67.774
706.19	68.198
706.51	67.290
706.83	67.273
707.15	60.784
707.47	55.303
707.79	57.494
708.11	57.763
708.43	55.000
708.74	59.439
709.06	59.481
709.38	60.105
709.70	64.244
710.02	63.205
710.34	61.515
710.66	60.597
710.98	61.364
711.29	61.919
711.61	63.127
711.93	59.295
712.25	66.559
712.57	67.647
712.89	67.474
713.20	59.574
713.52	63.487
713.84	66.456
714.16	61.585
714.48	59.483
714.80	65.350
715.11	63.401
715.43	63.205
715.75	57.101
716.07	64.217
716.39	59.561
716.70	63.787
717.02	65.108
717.34	59.364
717.66	70.149
717.97	66.135
718.29	65.556
718.61	69.343
718.93	68.015
719.24	63.668
719.56	62.373
719.88	66.780
720.20	66.892
720.51	66.202
720.83	73.978
721.15	67.164
721.46	63.830
721.78	68.459
722.10	64.906
722.42	65.789
722.73	70.787
723.05	65.164
723.37	68.421
723.68	63.707
724.00	63.821
724.32	66.935
724.63	64.228
724.95	65.690
725.27	68.421
725.58	68.750
725.90	61.679
726.22	62.642
726.53	63.194
726.85	61.433
727.16	61.566
727.48	62.057
727.80	62.500
728.11	65.580
728.43	62.308
728.74	64.875
729.06	66.058
729.38	65.809
729.69	64.413
730.01	61.433
730.32	58.681
730.64	58.194
730.96	59.736
731.27	59.934
731.59	59.021
731.90	57.143
732.22	57.764
732.53	57.585
732.85	60.897
733.16	56.913
733.48	59.136
733.80	59.416
734.11	61.146
734.43	56.805
734.74	54.857
735.06	54.155
735.37	57.803
735.69	55.414
736.00	58.824
736.32	59.190
736.63	56.230
736.95	56.869
737.26	55.442
737.58	58.387
737.89	59.197
738.21	59.044
738.52	61.071
738.83	63.396
739.15	59.231
739.46	62.044
739.78	60.069
740.09	52.923
740.41	59.355
740.72	56.446
741.04	60.370
741.35	63.750
741.66	67.111
741.98	65.566
742.29	69.856
742.61	62.500
742.92	64.253
743.23	66.239
743.55	64.000
743.86	65.789
744.18	68.142
744.49	66.986
744.80	68.545
745.12	69.545
745.43	64.317
745.74	71.171
746.06	70.183
746.37	65.919
746.68	62.896
747.00	72.222
747.31	65.238
747.62	64.602
747.94	66.079
748.25	58.723
748.56	69.163
748.88	63.861
749.19	74.000
749.50	67.442
749.82	64.228
750.13	62.041
750.44	53.650
750.75	57.895
751.07	60.129
751.38	60.279
751.69	62.816
752.01	59.774
752.32	55.235
752.63	58.156
752.94	63.115
753.26	64.400
753.57	59.350
753.88	60.937
754.19	57.857
754.51	60.069
754.82	55.235
755.13	57.358
755.44	55.639
755.75	59.489
756.07	59.220
756.38	56.934
756.69	58.725
757.00	51.198
757.31	56.677
757.63	52.924
757.94	50.670
758.25	50.490
758.56	49.383
758.87	51.075
759.18	56.364
759.50	52.038
759.81	53.583
760.12	51.562
760.43	53.009
760.74	52.717
761.05	54.520
761.36	50.000
761.67	53.693
761.99	54.348
762.30	57.639
762.61	56.870
762.92	59.766
763.23	60.924
763.54	67.200
763.85	58.203
764.16	62.692
764.47	59.696
764.78	55.477
765.10	52.532
765.41	53.982
765.72	52.695
766.03	50.157
766.34	50.333
766.65	62.128
766.96	61.111
767.27	67.513
767.58	62.500
767.89	70.000
768.20	68.391
768.51	68.528
768.82	62.844
769.13	55.691
769.44	51.417
769.75	63.090
770.06	60.092
770.37	63.348
770.68	59.722
770.99	67.556
771.30	54.918
771.61	62.332
771.92	57.377
772.23	62.605
772.54	64.103
772.85	67.016
773.16	63.830
773.47	66.848
773.78	67.513
774.09	66.667
774.39	70.175
774.70	67.901
775.01	83.333
775.32	79.739
775.63	75.658
775.94	77.698
776.25	86.614
776.56	79.104
776.87	83.607
777.18	80.469
777.48	84.733
777.79	81.818
778.10	82.963
778.41	91.071
778.72	78.102
779.03	77.181
779.34	71.812
779.65	74.324
779.95	74.233
780.26	78.431
780.57	77.241
780.88	89.844
781.19	81.955
781.50	77.027
781.80	72.327
782.11	71.186
782.42	72.152
782.73	72.393
783.04	77.703
783.34	84.507
783.65	87.671
783.96	84.328
784.27	64.336
784.57	70.504
784.88	86.111
785.19	81.746
785.50	88.679
785.81	82.090
786.11	85.246
786.42	87.597
786.73	84.956
787.04	88.679
787.34	89.286
787.65	90.000
787.96	90.090
788.26	85.950
788.57	88.136
788.88	87.603
789.19	82.639
789.49	85.606
789.80	80.916
790.11	90.476
790.41	98.020
790.72	93.976
791.03	90.217
791.33	93.023
791.64	94.845
791.95	96.040
792.25	110.000
792.56	105.195
792.87	120.513
793.17	113.924
793.48	101.149
793.79	98.851
794.09	104.545
794.40	83.193
794.70	83.824
795.01	68.148
795.32	72.662
795.62	74.803
795.93	88.793
796.23	87.611
796.54	91.765
796.85	113.514
797.15	133.803
797.46	112.121
797.76	109.639
798.07	112.658
798.37	113.846
798.68	113.636
798.99	108.451
799.29	105.195
799.60	87.500
799.90	104.110
800.21	131.343
800.51	129.310
800.82	152.632
801.12	122.951
801.43	121.212
801.73	95.946
802.04	144.444
802.34	113.580
802.65	120.313
802.95	122.034
803.26	132.813
803.56	114.286
803.87	107.692
804.17	116.176
804.48	150.000
804.78	103.448
805.09	111.765
805.39	140.385
805.70	141.071
806.00	136.066
806.30	101.515
806.61	103.659
806.91	103.797
807.22	115.789
807.52	102.985
807.83	112.676
808.13	132.812
808.43	138.333
808.74	97.368
809.04	114.493
809.35	116.418
809.65	85.526
809.95	124.194
810.26	130.508
810.56	133.333
810.86	145.455
811.17	173.810
811.47	131.667
811.77	148.148
812.08	132.727
812.38	148.000
812.69	202.778
812.99	172.727
813.29	153.061
813.59	133.333
813.90	151.020
814.20	138.182
814.50	107.692
814.81	129.412
815.11	153.061
815.41	137.705
815.72	190.476
816.02	147.273
816.32	159.524
816.62	187.500
816.93	168.293
817.23	178.571
817.53	143.182
817.84	215.152
818.14	176.087
818.44	168.889
818.74	214.706
819.04	157.500
819.35	194.286
819.65	217.647
819.95	203.571
820.25	295.000
820.56	194.872
820.86	168.182
821.16	186.047
821.46	164.103
821.76	170.000
822.07	217.143
822.37	180.000
822.67	209.091
822.97	141.176
823.27	239.286
823.57	181.081
823.88	195.000
824.18	253.333
824.48	171.429
824.78	272.000
825.08	216.667
825.38	170.270
825.69	178.049
825.99	270.833
826.29	189.655
826.59	210.526
826.89	160.526
827.19	211.765
827.49	229.032
827.79	172.727
828.09	145.455
828.39	131.915
828.70	157.143
829.00	188.889
829.30	212.903
829.60	162.500
829.90	380.000
830.20	271.429
830.50	208.696
830.80	300.000
831.10	230.000
831.40	196.667
831.70	213.043
832.00	226.923
832.30	251.852
832.60	381.250
832.90	213.333
833.20	521.429
833.50	222.581
833.80	217.241
834.10	243.750
834.40	250.000
834.70	344.444
835.00	338.095
835.30	225.714
835.60	384.615
835.90	203.448
836.20	428.571
836.50	255.172
836.80	212.000
837.10	216.667
837.40	290.476
837.70	435.294
838.00	233.333
838.30	285.714
838.60	347.619
838.90	273.077
839.19	320.000
839.49	414.286
839.79	380.000
840.09	320.000
840.39	285.714
840.69	304.348
840.99	366.667
841.29	550.000
841.59	475.000
841.88	406.250
842.18	224.138
842.48	309.524
842.78	273.333
843.08	295.652
843.38	212.500
843.68	1033.333
843.97	265.385
844.27	237.931
844.57	319.048
844.87	381.250
845.17	274.074
845.47	2000.000
845.76	544.444
846.06	400.000
846.36	712.500
846.66	457.143
846.96	343.750
847.25	509.091
847.55	427.273
847.85	295.652
848.15	530.000
848.44	407.143
848.74	327.778
849.04	376.471
849.34	670.000
849.63	278.947
849.93	481.818
850.23	1160.000
850.53	485.714
850.82	2750.000
851.12	-4600.000
851.42	5800.000
851.71	340.000
852.01	-1366.667
852.31	250.000
852.61	1800.000
852.90	295.238
853.20	248.000
853.50	358.824
853.79	323.810
854.09	287.500
854.39	368.750
854.68	175.676
854.98	212.903
855.28	203.333
855.57	255.172
855.87	248.148
856.17	326.316
856.46	426.667
856.76	335.294
857.05	224.138
857.35	304.167
857.65	386.667
857.94	291.304
858.24	292.308
858.53	290.000
858.83	259.091
859.13	433.333
859.42	0.000
859.72	644.444
860.01	436.364
860.31	345.455
860.60	310.526
860.90	291.304
861.20	644.444
861.49	566.667
861.79	-4600.000
862.08	650.000
862.38	309.524
862.67	423.077
862.97	347.059
863.26	688.889
863.56	305.556
863.85	550.000
864.15	750.000
864.44	460.000
864.74	966.667
865.03	787.500
865.33	284.211
865.62	509.091
865.92	553.846
866.21	416.667
866.51	0.000
866.80	527.273
867.10	1480.000
867.39	446.154
867.69	618.182
867.98	300.000
868.27	481.818
868.57	336.842
868.86	-4600.000
869.16	387.500
869.45	2350.000
869.75	-5300.000
870.04	533.333
870.33	957.143
870.63	1325.000
870.92	3150.000
871.22	742.857
871.51	364.706
871.80	247.619
872.10	457.143
>>>>>End Processed Spectral Data<<<<<
