SpectraSuite Data File
++++++++++++++++++++++++++++++++++++
Date: Wed May 13 19:34:04 PDT 2015
User: schluterlab
Dark Spectrum Present: Yes
Reference Spectrum Present: Yes
Number of Sampled Component Spectra: 1
Spectrometers: USB2E3373
Integration Time (usec): 3000 (USB2E3373)
Spectra Averaged: 3 (USB2E3373)
Boxcar Smoothing: 0 (USB2E3373)
Correct for Electrical Dark: No (USB2E3373)
Strobe/Lamp Enabled: No (USB2E3373)
Correct for Detector Non-linearity: No (USB2E3373)
Correct for Stray Light: No (USB2E3373)
Number of Pixels in Processed Spectrum: 2048
>>>>>Begin Processed Spectral Data<<<<<
178.53	0.000
178.91	-1275.000
179.29	-1200.000
179.67	-200.000
180.04	-1375.000
180.42	3050.000
180.80	1240.000
181.18	-1075.000
181.56	728.571
181.94	0.000
182.31	-757.143
182.69	1800.000
183.07	-587.500
183.45	-533.333
183.83	518.182
184.20	-440.000
184.58	2900.000
184.96	6100.000
185.34	-940.000
185.72	-575.000
186.09	-2600.000
186.47	2400.000
186.85	3000.000
187.23	4500.000
187.61	-1900.000
187.98	1700.000
188.36	563.636
188.74	572.727
189.12	-940.000
189.49	660.000
189.87	-4600.000
190.25	-1150.000
190.63	414.286
191.00	423.077
191.38	950.000
191.76	-1150.000
192.14	1625.000
192.51	750.000
192.89	1133.333
193.27	700.000
193.65	-1100.000
194.02	610.000
194.40	740.000
194.78	680.000
195.15	566.667
195.53	640.000
195.91	-2350.000
196.29	331.250
196.66	315.789
197.04	-420.000
197.42	0.000
197.79	580.000
198.17	-4200.000
198.55	671.429
198.92	587.500
199.30	1040.000
199.68	0.000
200.05	350.000
200.43	771.429
200.81	4800.000
201.18	1833.333
201.56	-1900.000
201.94	644.444
202.31	611.111
202.69	483.333
203.07	620.000
203.44	0.000
203.82	1475.000
204.19	785.714
204.57	450.000
204.95	737.500
205.32	1800.000
205.70	545.455
206.08	400.000
206.45	3150.000
206.83	387.500
207.20	916.667
207.58	780.000
207.96	350.000
208.33	775.000
208.71	-1000.000
209.08	800.000
209.46	766.667
209.84	518.182
210.21	-1566.667
210.59	1525.000
210.96	-475.000
211.34	3050.000
211.71	620.000
212.09	783.333
212.46	0.000
212.84	1966.667
213.22	1525.000
213.59	-4900.000
213.97	866.667
214.34	757.143
214.72	627.273
215.09	1080.000
215.47	-2300.000
215.84	-2350.000
216.22	1666.667
216.59	428.571
216.97	1500.000
217.34	500.000
217.72	-800.000
218.09	0.000
218.47	-5400.000
218.84	722.222
219.22	971.429
219.59	1900.000
219.97	-628.571
220.34	1060.000
220.72	-1833.333
221.09	485.714
221.47	1500.000
221.84	-983.333
222.22	0.000
222.59	1100.000
222.97	-2600.000
223.34	1320.000
223.72	461.538
224.09	1160.000
224.46	2300.000
224.84	-5600.000
225.21	-920.000
225.59	-5100.000
225.96	630.000
226.34	310.000
226.71	2550.000
227.08	725.000
227.46	540.000
227.83	-1250.000
228.21	-2650.000
228.58	644.444
228.95	-2750.000
229.33	-2350.000
229.70	1666.667
230.08	971.429
230.45	-1100.000
230.82	500.000
231.20	966.667
231.57	657.143
231.95	475.000
232.32	277.273
232.69	427.273
233.07	757.143
233.44	353.846
233.81	-1900.000
234.19	336.842
234.56	450.000
234.93	433.333
235.31	445.455
235.68	307.692
236.05	357.143
236.43	163.636
236.80	300.000
237.17	5100.000
237.55	238.095
237.92	225.000
238.29	252.381
238.67	174.194
239.04	189.655
239.41	144.444
239.79	126.087
240.16	133.333
240.53	118.182
240.91	94.118
241.28	114.000
241.65	76.000
242.02	97.101
242.40	88.710
242.77	81.667
243.14	67.742
243.51	73.034
243.89	67.059
244.26	66.667
244.63	55.914
245.00	58.511
245.38	46.535
245.75	48.598
246.12	44.954
246.49	53.285
246.87	45.600
247.24	50.000
247.61	34.286
247.98	34.641
248.36	33.108
248.73	41.401
249.10	37.580
249.47	31.073
249.84	38.503
250.22	27.273
250.59	28.402
250.96	33.838
251.33	29.384
251.70	34.158
252.08	30.000
252.45	29.148
252.82	27.826
253.19	28.511
253.56	29.412
253.94	28.216
254.31	25.781
254.68	21.923
255.05	23.247
255.42	28.049
255.79	21.691
256.16	23.827
256.54	19.081
256.91	23.488
257.28	19.424
257.65	19.802
258.02	22.671
258.39	19.874
258.76	23.411
259.14	19.643
259.51	18.541
259.88	18.323
260.25	20.544
260.62	19.942
260.99	13.975
261.36	19.520
261.73	17.192
262.10	14.535
262.47	20.845
262.85	17.827
263.22	19.088
263.59	18.234
263.96	18.681
264.33	17.755
264.70	14.474
265.07	18.670
265.44	16.414
265.81	15.815
266.18	17.085
266.55	14.634
266.92	14.251
267.29	16.435
267.66	16.284
268.03	15.909
268.40	15.421
268.77	14.558
269.14	11.486
269.51	16.027
269.88	14.918
270.25	14.447
270.62	14.157
270.99	15.269
271.36	16.524
271.73	11.916
272.10	15.435
272.47	16.344
272.84	17.100
273.21	18.029
273.58	13.537
273.95	14.675
274.32	12.603
274.69	14.133
275.06	12.795
275.43	15.532
275.80	12.425
276.17	13.238
276.54	13.098
276.91	13.834
277.28	13.086
277.65	13.926
278.02	14.079
278.39	15.234
278.76	14.182
279.13	14.151
279.50	12.849
279.87	13.347
280.23	11.178
280.60	12.573
280.97	10.721
281.34	13.097
281.71	13.818
282.08	13.436
282.45	12.000
282.82	14.032
283.19	12.121
283.56	12.632
283.92	12.183
284.29	12.698
284.66	12.704
285.03	11.573
285.40	10.211
285.77	10.943
286.14	10.017
286.51	13.500
286.87	12.650
287.24	13.681
287.61	11.075
287.98	11.201
288.35	11.252
288.72	12.461
289.08	12.363
289.45	11.862
289.82	11.707
290.19	9.733
290.56	10.873
290.93	10.725
291.29	11.963
291.66	10.472
292.03	13.517
292.40	12.775
292.77	10.355
293.13	10.299
293.50	10.641
293.87	10.963
294.24	10.222
294.60	10.189
294.97	11.628
295.34	11.707
295.71	9.233
296.08	9.259
296.44	9.216
296.81	9.115
297.18	10.027
297.55	8.707
297.91	8.707
298.28	10.442
298.65	12.272
299.02	9.486
299.38	8.765
299.75	7.682
300.12	8.174
300.48	10.500
300.85	9.001
301.22	9.682
301.59	8.838
301.95	9.194
302.32	8.729
302.69	9.080
303.05	9.455
303.42	8.642
303.79	9.287
304.15	8.042
304.52	7.184
304.89	9.640
305.25	9.397
305.62	9.287
305.99	9.209
306.35	9.060
306.72	8.184
307.09	9.878
307.45	9.572
307.82	8.147
308.19	9.492
308.55	9.601
308.92	8.271
309.29	7.920
309.65	7.847
310.02	10.465
310.38	9.892
310.75	8.765
311.12	9.724
311.48	9.195
311.85	10.063
312.22	10.718
312.58	9.771
312.95	10.032
313.31	8.932
313.68	10.603
314.05	12.327
314.41	11.055
314.78	10.373
315.14	11.718
315.51	11.843
315.87	11.188
316.24	12.612
316.61	12.086
316.97	11.644
317.34	12.133
317.70	13.671
318.07	12.801
318.43	13.014
318.80	13.683
319.16	13.371
319.53	14.259
319.89	15.619
320.26	16.100
320.62	16.071
320.99	16.465
321.35	18.283
321.72	18.583
322.08	17.966
322.45	19.900
322.81	19.864
323.18	19.750
323.54	19.573
323.91	21.321
324.27	21.702
324.64	20.130
325.00	21.010
325.37	24.295
325.73	23.609
326.10	23.742
326.46	23.656
326.83	24.676
327.19	24.167
327.56	25.348
327.92	27.472
328.29	27.418
328.65	27.256
329.01	27.437
329.38	29.325
329.74	28.163
330.11	29.783
330.47	29.936
330.84	30.239
331.20	31.239
331.56	32.569
331.93	31.481
332.29	31.766
332.66	32.301
333.02	31.536
333.38	33.062
333.75	32.442
334.11	32.384
334.48	32.387
334.84	33.272
335.20	33.455
335.57	33.182
335.93	31.518
336.29	34.341
336.66	33.904
337.02	32.036
337.38	34.722
337.75	33.690
338.11	34.020
338.47	34.070
338.84	35.655
339.20	34.404
339.56	35.493
339.93	33.909
340.29	34.873
340.65	34.135
341.02	35.515
341.38	35.676
341.74	35.614
342.11	37.031
342.47	36.388
342.83	35.702
343.20	35.931
343.56	35.552
343.92	35.965
344.28	36.310
344.65	36.285
345.01	36.364
345.37	35.420
345.73	36.125
346.10	37.084
346.46	35.678
346.82	35.255
347.19	36.007
347.55	35.550
347.91	35.761
348.27	37.387
348.63	36.706
349.00	35.518
349.36	36.700
349.72	35.766
350.08	37.196
350.45	37.347
350.81	36.962
351.17	37.520
351.53	36.282
351.89	35.644
352.26	38.358
352.62	37.610
352.98	38.250
353.34	37.880
353.70	37.234
354.07	37.903
354.43	35.794
354.79	37.812
355.15	37.909
355.51	37.890
355.87	38.122
356.24	36.889
356.60	35.605
356.96	36.203
357.32	37.449
357.68	36.614
358.04	37.451
358.40	37.846
358.77	37.559
359.13	36.069
359.49	37.490
359.85	36.587
360.21	37.959
360.57	38.054
360.93	37.769
361.29	37.113
361.66	37.074
362.02	38.060
362.38	38.403
362.74	37.426
363.10	36.788
363.46	36.464
363.82	37.868
364.18	37.592
364.54	39.153
364.90	38.739
365.26	37.647
365.62	37.911
365.98	37.546
366.35	37.249
366.71	37.455
367.07	37.728
367.43	38.099
367.79	38.044
368.15	37.931
368.51	38.081
368.87	39.329
369.23	38.186
369.59	38.378
369.95	38.162
370.31	38.105
370.67	37.464
371.03	37.903
371.39	38.120
371.75	39.338
372.11	38.122
372.47	39.370
372.83	39.049
373.19	38.006
373.55	39.172
373.91	39.102
374.27	37.801
374.63	38.545
374.99	38.136
375.35	36.776
375.71	37.971
376.07	38.409
376.42	36.864
376.78	38.038
377.14	38.467
377.50	38.344
377.86	36.902
378.22	37.674
378.58	36.090
378.94	37.461
379.30	37.850
379.66	37.754
380.02	38.391
380.38	36.976
380.74	37.275
381.09	37.469
381.45	37.554
381.81	36.916
382.17	38.471
382.53	38.050
382.89	37.593
383.25	37.586
383.61	37.918
383.97	37.398
384.32	37.991
384.68	36.617
385.04	36.878
385.40	37.461
385.76	37.162
386.12	36.917
386.48	36.438
386.83	38.550
387.19	37.786
387.55	37.415
387.91	37.424
388.27	37.523
388.62	37.984
388.98	37.408
389.34	36.859
389.70	36.726
390.06	37.579
390.42	36.965
390.77	37.023
391.13	37.205
391.49	38.388
391.85	36.983
392.20	35.962
392.56	36.616
392.92	36.845
393.28	35.680
393.64	36.211
393.99	36.103
394.35	35.732
394.71	35.947
395.07	36.324
395.42	36.341
395.78	35.687
396.14	35.878
396.50	36.842
396.85	36.236
397.21	36.375
397.57	34.470
397.92	35.397
398.28	34.137
398.64	35.245
399.00	34.583
399.35	34.236
399.71	34.664
400.07	35.364
400.42	36.503
400.78	35.706
401.14	35.366
401.49	35.224
401.85	34.362
402.21	35.150
402.57	34.300
402.92	34.994
403.28	35.728
403.63	33.911
403.99	35.032
404.35	34.121
404.70	33.513
405.06	33.663
405.42	34.373
405.77	33.600
406.13	32.619
406.49	34.122
406.84	33.196
407.20	33.274
407.55	33.184
407.91	34.600
408.27	34.142
408.62	33.233
408.98	33.272
409.34	33.272
409.69	33.871
410.05	33.147
410.40	33.028
410.76	32.378
411.11	33.112
411.47	32.141
411.83	32.865
412.18	32.406
412.54	32.690
412.89	32.108
413.25	32.409
413.60	32.736
413.96	32.544
414.31	32.564
414.67	33.270
415.03	33.113
415.38	32.152
415.74	33.183
416.09	31.417
416.45	31.459
416.80	32.915
417.16	32.574
417.51	32.847
417.87	31.150
418.22	32.303
418.58	31.956
418.93	32.740
419.29	32.145
419.64	31.486
420.00	31.280
420.35	31.304
420.71	31.799
421.06	31.026
421.42	31.228
421.77	31.390
422.12	30.376
422.48	30.059
422.83	32.149
423.19	31.105
423.54	30.354
423.90	31.130
424.25	29.760
424.61	30.833
424.96	31.137
425.31	30.233
425.67	30.730
426.02	30.571
426.38	31.380
426.73	29.842
427.09	30.395
427.44	29.960
427.79	29.787
428.15	30.238
428.50	30.486
428.85	29.857
429.21	29.597
429.56	29.342
429.92	28.888
430.27	29.047
430.62	29.391
430.98	30.099
431.33	28.299
431.68	29.215
432.04	29.127
432.39	28.555
432.74	29.743
433.10	30.900
433.45	29.563
433.80	29.157
434.16	29.113
434.51	28.684
434.86	29.704
435.22	28.071
435.57	29.179
435.92	28.613
436.28	29.122
436.63	30.188
436.98	28.907
437.34	28.801
437.69	29.230
438.04	28.555
438.39	28.239
438.75	28.762
439.10	29.665
439.45	28.571
439.81	29.547
440.16	28.628
440.51	28.705
440.86	28.836
441.22	28.420
441.57	28.079
441.92	28.352
442.27	27.072
442.63	27.172
442.98	28.394
443.33	28.641
443.68	27.981
444.03	27.672
444.39	27.653
444.74	28.571
445.09	29.272
445.44	28.157
445.79	27.610
446.15	27.951
446.50	27.141
446.85	27.544
447.20	28.608
447.55	27.415
447.91	27.910
448.26	27.991
448.61	27.756
448.96	28.405
449.31	28.121
449.66	27.968
450.02	26.407
450.37	27.268
450.72	28.257
451.07	26.996
451.42	26.869
451.77	28.244
452.12	26.905
452.47	27.114
452.83	27.739
453.18	27.078
453.53	29.252
453.88	26.994
454.23	27.675
454.58	27.862
454.93	28.290
455.28	27.307
455.63	27.245
455.98	27.619
456.34	27.827
456.69	27.113
457.04	26.625
457.39	27.060
457.74	26.930
458.09	27.085
458.44	26.397
458.79	25.651
459.14	26.016
459.49	26.386
459.84	26.039
460.19	25.869
460.54	25.810
460.89	26.440
461.24	25.865
461.59	26.148
461.94	25.586
462.29	25.935
462.64	26.165
462.99	25.114
463.34	26.067
463.69	25.891
464.04	25.681
464.39	26.377
464.74	26.203
465.09	24.789
465.44	24.211
465.79	24.553
466.14	24.631
466.49	24.194
466.84	25.336
467.19	25.106
467.54	25.375
467.89	24.910
468.24	25.538
468.59	25.397
468.94	24.557
469.29	25.000
469.64	25.301
469.99	26.049
470.34	25.231
470.68	25.000
471.03	24.762
471.38	24.809
471.73	25.383
472.08	25.395
472.43	24.937
472.78	25.016
473.13	25.160
473.48	24.532
473.83	24.573
474.17	23.958
474.52	25.434
474.87	24.518
475.22	24.144
475.57	23.428
475.92	23.898
476.27	23.619
476.61	23.221
476.96	23.090
477.31	22.763
477.66	23.359
478.01	23.053
478.36	23.162
478.70	23.313
479.05	23.749
479.40	22.876
479.75	23.081
480.10	22.465
480.45	22.228
480.79	21.691
481.14	22.847
481.49	22.449
481.84	21.719
482.19	21.627
482.53	22.294
482.88	22.150
483.23	22.243
483.58	23.066
483.92	22.118
484.27	20.349
484.62	21.767
484.97	21.167
485.31	20.788
485.66	19.444
486.01	18.312
486.36	18.144
486.70	17.899
487.05	18.584
487.40	19.382
487.75	19.250
488.09	19.927
488.44	20.614
488.79	21.193
489.13	20.970
489.48	20.759
489.83	21.105
490.17	21.175
490.52	20.859
490.87	20.127
491.22	20.327
491.56	20.046
491.91	20.614
492.26	20.349
492.60	20.691
492.95	20.393
493.30	20.047
493.64	20.159
493.99	19.916
494.34	20.259
494.68	20.513
495.03	20.348
495.37	20.056
495.72	20.712
496.07	20.789
496.41	19.690
496.76	20.009
497.11	20.216
497.45	19.981
497.80	20.058
498.14	19.952
498.49	20.195
498.84	20.662
499.18	20.000
499.53	19.611
499.87	19.758
500.22	19.548
500.56	20.000
500.91	19.327
501.26	19.962
501.60	19.886
501.95	19.019
502.29	19.775
502.64	19.088
502.98	18.934
503.33	19.653
503.67	18.979
504.02	19.270
504.36	19.186
504.71	19.785
505.06	19.277
505.40	19.349
505.75	19.720
506.09	19.048
506.44	19.191
506.78	19.532
507.13	19.283
507.47	19.848
507.82	20.111
508.16	18.490
508.51	18.874
508.85	19.464
509.19	18.980
509.54	19.133
509.88	18.753
510.23	18.612
510.57	20.433
510.92	19.524
511.26	18.962
511.61	19.139
511.95	18.633
512.30	18.770
512.64	19.506
512.98	18.810
513.33	19.379
513.67	18.517
514.02	19.426
514.36	19.061
514.70	19.037
515.05	18.238
515.39	19.293
515.74	19.595
516.08	19.340
516.42	19.367
516.77	19.677
517.11	18.091
517.46	18.849
517.80	19.338
518.14	17.545
518.49	19.078
518.83	19.375
519.17	19.111
519.52	18.110
519.86	18.882
520.20	18.844
520.55	18.791
520.89	19.830
521.23	19.783
521.58	18.908
521.92	19.412
522.26	17.877
522.61	19.128
522.95	18.355
523.29	18.624
523.64	18.659
523.98	18.977
524.32	18.094
524.66	18.581
525.01	18.566
525.35	18.463
525.69	18.904
526.04	18.879
526.38	17.877
526.72	18.098
527.06	18.958
527.41	17.327
527.75	18.006
528.09	18.369
528.43	18.419
528.78	18.746
529.12	17.576
529.46	17.881
529.80	18.379
530.15	19.003
530.49	18.031
530.83	18.544
531.17	18.538
531.51	19.066
531.86	18.452
532.20	18.644
532.54	19.283
532.88	18.100
533.22	18.176
533.57	17.346
533.91	17.098
534.25	17.315
534.59	17.877
534.93	17.728
535.27	17.381
535.62	17.582
535.96	17.263
536.30	16.720
536.64	16.742
536.98	17.717
537.32	17.709
537.66	17.667
538.01	17.512
538.35	17.776
538.69	18.315
539.03	17.479
539.37	16.677
539.71	15.943
540.05	17.190
540.39	17.342
540.73	17.400
541.07	17.781
541.42	17.743
541.76	17.226
542.10	18.176
542.44	16.689
542.78	17.918
543.12	17.019
543.46	17.115
543.80	17.697
544.14	17.202
544.48	17.778
544.82	17.575
545.16	18.152
545.50	17.481
545.84	17.608
546.18	18.182
546.52	17.412
546.86	17.732
547.20	17.734
547.54	16.566
547.88	18.304
548.22	16.812
548.56	16.981
548.90	16.965
549.24	16.768
549.58	16.849
549.92	16.484
550.26	17.116
550.60	16.667
550.94	17.042
551.28	16.898
551.62	16.822
551.96	16.632
552.30	17.270
552.64	17.174
552.98	17.220
553.32	16.723
553.66	17.519
554.00	17.845
554.34	16.563
554.68	18.240
555.02	17.348
555.36	16.493
555.69	17.118
556.03	16.487
556.37	16.849
556.71	15.689
557.05	16.246
557.39	17.215
557.73	17.008
558.07	17.186
558.41	17.366
558.75	16.899
559.08	16.555
559.42	17.309
559.76	16.838
560.10	16.488
560.44	16.352
560.78	15.968
561.12	16.095
561.45	17.014
561.79	16.809
562.13	16.298
562.47	16.325
562.81	16.248
563.15	16.522
563.48	16.976
563.82	15.786
564.16	15.500
564.50	15.039
564.84	16.245
565.17	15.315
565.51	15.144
565.85	15.165
566.19	14.778
566.52	16.276
566.86	15.069
567.20	15.920
567.54	15.068
567.88	14.938
568.21	14.656
568.55	14.560
568.89	13.813
569.23	14.171
569.56	13.522
569.90	13.057
570.24	13.491
570.57	12.819
570.91	13.058
571.25	12.847
571.59	12.990
571.92	12.586
572.26	12.767
572.60	12.673
572.93	12.594
573.27	12.866
573.61	12.395
573.95	12.713
574.28	12.186
574.62	12.026
574.96	11.995
575.29	12.027
575.63	12.348
575.97	12.341
576.30	12.719
576.64	12.181
576.98	11.813
577.31	11.807
577.65	11.748
577.98	11.439
578.32	11.676
578.66	11.551
578.99	12.257
579.33	11.595
579.67	11.676
580.00	11.796
580.34	12.221
580.67	12.172
581.01	12.098
581.35	11.720
581.68	11.586
582.02	11.405
582.35	11.193
582.69	11.465
583.02	11.467
583.36	11.898
583.70	12.413
584.03	11.991
584.37	12.253
584.70	12.017
585.04	12.011
585.37	11.789
585.71	11.983
586.04	11.790
586.38	12.200
586.72	12.317
587.05	11.953
587.39	11.900
587.72	11.672
588.06	12.166
588.39	12.126
588.73	12.438
589.06	12.340
589.40	12.626
589.73	12.390
590.07	12.989
590.40	12.970
590.73	13.115
591.07	13.472
591.40	13.201
591.74	13.723
592.07	13.264
592.41	13.394
592.74	12.060
593.08	12.458
593.41	12.275
593.75	11.805
594.08	12.337
594.41	12.761
594.75	12.532
595.08	12.885
595.42	12.785
595.75	12.571
596.09	13.143
596.42	13.438
596.75	12.959
597.09	13.333
597.42	13.027
597.75	13.497
598.09	13.522
598.42	13.531
598.76	12.201
599.09	12.049
599.42	12.263
599.76	12.628
600.09	11.876
600.42	12.199
600.76	12.036
601.09	12.678
601.42	12.633
601.76	12.524
602.09	12.332
602.42	13.057
602.76	13.019
603.09	12.352
603.42	12.573
603.76	12.500
604.09	13.067
604.42	12.311
604.76	13.328
605.09	12.538
605.42	12.655
605.75	12.293
606.09	12.444
606.42	12.628
606.75	12.858
607.09	13.060
607.42	12.409
607.75	12.785
608.08	12.505
608.42	13.671
608.75	12.849
609.08	12.673
609.41	13.565
609.75	13.244
610.08	13.384
610.41	12.430
610.74	13.056
611.07	13.439
611.41	13.003
611.74	12.921
612.07	13.251
612.40	14.428
612.73	13.000
613.07	13.470
613.40	14.007
613.73	12.428
614.06	13.495
614.39	13.686
614.72	13.421
615.06	14.233
615.39	12.845
615.72	13.241
616.05	12.600
616.38	13.508
616.71	13.242
617.05	14.723
617.38	13.289
617.71	13.874
618.04	14.303
618.37	14.015
618.70	13.877
619.03	14.934
619.36	14.053
619.69	14.085
620.03	14.766
620.36	13.770
620.69	15.068
621.02	14.823
621.35	14.722
621.68	14.486
622.01	14.396
622.34	14.675
622.67	14.677
623.00	14.967
623.33	14.153
623.66	14.868
623.99	14.359
624.32	14.408
624.65	13.630
624.99	13.952
625.32	14.989
625.65	15.026
625.98	14.297
626.31	16.019
626.64	15.592
626.97	16.293
627.30	14.879
627.63	16.653
627.96	15.896
628.29	16.010
628.62	17.109
628.95	17.736
629.28	16.606
629.61	16.590
629.94	14.952
630.26	15.539
630.59	16.397
630.92	16.379
631.25	15.795
631.58	16.717
631.91	15.416
632.24	16.456
632.57	16.894
632.90	17.215
633.23	16.890
633.56	16.723
633.89	15.855
634.22	17.594
634.55	17.633
634.88	16.766
635.20	17.802
635.53	18.554
635.86	17.203
636.19	17.882
636.52	17.878
636.85	17.297
637.18	17.857
637.51	18.440
637.83	16.030
638.16	17.391
638.49	18.136
638.82	17.193
639.15	18.875
639.48	18.204
639.81	19.437
640.13	19.271
640.46	18.926
640.79	19.022
641.12	18.019
641.45	18.715
641.77	16.789
642.10	19.737
642.43	18.168
642.76	17.183
643.09	19.479
643.41	20.486
643.74	21.142
644.07	20.427
644.40	20.859
644.73	21.417
645.05	21.712
645.38	19.905
645.71	19.324
646.04	19.435
646.36	21.202
646.69	21.405
647.02	20.068
647.35	21.649
647.67	21.062
648.00	21.626
648.33	18.152
648.66	18.788
648.98	20.540
649.31	16.891
649.64	20.030
649.96	19.076
650.29	19.747
650.62	18.608
650.94	19.611
651.27	22.635
651.60	21.797
651.92	22.364
652.25	19.544
652.58	19.938
652.90	19.905
653.23	17.257
653.56	19.055
653.88	19.651
654.21	19.589
654.54	19.967
654.86	18.692
655.19	17.297
655.52	10.102
655.84	7.892
656.17	9.816
656.49	13.390
656.82	13.741
657.15	10.846
657.47	8.223
657.80	6.387
658.13	6.833
658.45	10.448
658.78	10.718
659.10	11.707
659.43	12.764
659.75	13.444
660.08	15.127
660.41	16.667
660.73	18.679
661.06	20.860
661.38	20.000
661.71	24.231
662.03	20.513
662.36	20.080
662.68	23.494
663.01	22.626
663.33	21.656
663.66	22.899
663.98	23.974
664.31	22.269
664.63	22.065
664.96	19.115
665.28	22.746
665.61	22.807
665.93	21.127
666.26	21.704
666.58	19.874
666.91	22.410
667.23	21.573
667.56	20.734
667.88	23.718
668.21	24.094
668.53	21.475
668.86	22.294
669.18	22.601
669.50	20.435
669.83	23.529
670.15	22.667
670.48	21.569
670.80	23.491
671.13	22.718
671.45	20.426
671.77	22.607
672.10	20.702
672.42	19.965
672.75	19.569
673.07	20.775
673.39	19.530
673.72	22.070
674.04	22.157
674.37	23.495
674.69	19.836
675.01	19.874
675.34	22.998
675.66	23.368
675.98	21.385
676.31	21.218
676.63	21.656
676.95	22.013
677.28	23.598
677.60	20.879
677.92	21.519
678.25	21.355
678.57	21.116
678.89	20.842
679.22	22.200
679.54	20.611
679.86	20.734
680.18	21.825
680.51	19.681
680.83	21.174
681.15	21.132
681.48	21.739
681.80	20.309
682.12	19.923
682.44	19.536
682.77	21.996
683.09	24.464
683.41	22.173
683.73	23.179
684.06	23.140
684.38	20.157
684.70	20.349
685.02	21.388
685.34	19.414
685.67	18.357
685.99	18.213
686.31	19.113
686.63	17.668
686.96	19.107
687.28	19.495
687.60	17.935
687.92	21.755
688.24	18.821
688.56	21.687
688.89	24.066
689.21	22.707
689.53	20.877
689.85	24.834
690.17	19.255
690.49	23.355
690.82	21.028
691.14	20.759
691.46	20.886
691.78	21.888
692.10	23.140
692.42	21.357
692.74	19.710
693.06	20.213
693.39	20.739
693.71	18.996
694.03	25.263
694.35	21.861
694.67	21.053
694.99	22.927
695.31	21.569
695.63	20.574
695.95	24.205
696.27	23.858
696.59	24.093
696.91	26.425
697.23	19.014
697.56	24.094
697.88	18.405
698.20	19.792
698.52	23.656
698.84	22.494
699.16	21.889
699.48	21.140
699.80	23.671
700.12	23.896
700.44	24.138
700.76	26.243
701.08	24.138
701.40	26.257
701.72	23.907
702.04	30.682
702.36	21.530
702.68	23.796
703.00	22.161
703.32	22.606
703.64	21.180
703.96	24.513
704.28	24.419
704.60	24.340
704.91	26.409
705.23	28.446
705.55	27.575
705.87	29.236
706.19	25.795
706.51	26.480
706.83	27.576
707.15	26.331
707.47	22.980
707.79	24.570
708.11	22.603
708.43	22.619
708.74	23.469
709.06	25.974
709.38	24.147
709.70	26.453
710.02	26.113
710.34	24.848
710.66	27.463
710.98	24.716
711.29	24.419
711.61	30.088
711.93	21.795
712.25	30.868
712.57	28.309
712.89	26.644
713.20	27.356
713.52	26.974
713.84	27.532
714.16	26.220
714.48	26.724
714.80	28.875
715.11	29.107
715.43	22.849
715.75	24.348
716.07	28.754
716.39	24.451
716.70	27.907
717.02	32.014
717.34	30.389
717.66	34.701
717.97	33.865
718.29	32.222
718.61	30.657
718.93	31.250
719.24	30.796
719.56	26.441
719.88	28.814
720.20	24.324
720.51	30.662
720.83	28.253
721.15	26.493
721.46	28.723
721.78	34.409
722.10	28.302
722.42	28.195
722.73	26.592
723.05	32.377
723.37	27.935
723.68	32.046
724.00	32.114
724.32	29.032
724.63	29.675
724.95	33.054
725.27	35.628
725.58	31.250
725.90	27.372
726.22	27.170
726.53	27.431
726.85	30.034
727.16	28.114
727.48	28.014
727.80	31.061
728.11	27.899
728.43	28.846
728.74	27.240
729.06	31.387
729.38	29.779
729.69	27.402
730.01	24.573
730.32	27.083
730.64	28.094
730.96	23.762
731.27	28.146
731.59	26.911
731.90	25.364
732.22	24.534
732.53	24.458
732.85	26.282
733.16	25.080
733.48	26.246
733.80	29.221
734.11	25.478
734.43	26.331
734.74	22.000
735.06	20.057
735.37	25.434
735.69	26.752
736.00	28.431
736.32	30.218
736.63	22.045
736.95	24.920
737.26	21.769
737.58	27.097
737.89	28.094
738.21	31.741
738.52	29.286
738.83	28.679
739.15	25.769
739.46	29.197
739.78	27.778
740.09	23.385
740.41	27.097
740.72	24.739
741.04	28.519
741.35	26.667
741.66	37.778
741.98	34.906
742.29	34.450
742.61	36.638
742.92	31.674
743.23	31.624
743.55	31.200
743.86	32.018
744.18	38.938
744.49	42.584
744.80	38.028
745.12	40.455
745.43	33.040
745.74	41.441
746.06	33.486
746.37	34.081
746.68	32.579
747.00	37.500
747.31	41.429
747.62	26.991
747.94	34.361
748.25	29.787
748.56	35.242
748.88	34.653
749.19	40.000
749.50	32.558
749.82	28.455
750.13	27.347
750.44	24.818
750.75	29.123
751.07	32.154
751.38	31.010
751.69	29.242
752.01	28.947
752.32	27.076
752.63	25.887
752.94	27.459
753.26	32.400
753.57	29.675
753.88	36.328
754.19	27.857
754.51	29.167
754.82	25.271
755.13	30.943
755.44	25.564
755.75	25.547
756.07	26.950
756.38	25.547
756.69	26.174
757.00	22.754
757.31	24.926
757.63	24.854
757.94	19.839
758.25	20.833
758.56	18.765
758.87	23.656
759.18	24.848
759.50	24.138
759.81	25.857
760.12	22.187
760.43	21.203
760.74	26.087
761.05	23.729
761.36	23.529
761.67	23.864
761.99	22.981
762.30	24.653
762.61	27.863
762.92	35.156
763.23	33.193
763.54	31.600
763.85	31.250
764.16	33.462
764.47	29.278
764.78	26.855
765.10	23.101
765.41	24.779
765.72	23.952
766.03	27.900
766.34	23.000
766.65	29.362
766.96	33.761
767.27	32.995
767.58	36.979
767.89	39.474
768.20	40.230
768.51	37.563
768.82	34.404
769.13	30.488
769.44	32.794
769.75	30.043
770.06	28.899
770.37	35.294
770.68	33.796
770.99	33.333
771.30	27.869
771.61	33.632
771.92	31.148
772.23	36.555
772.54	35.385
772.85	37.696
773.16	37.234
773.47	42.391
773.78	44.670
774.09	39.286
774.39	39.181
774.70	39.506
775.01	50.725
775.32	50.980
775.63	49.342
775.94	47.482
776.25	55.118
776.56	47.015
776.87	49.180
777.18	53.125
777.48	54.198
777.79	53.030
778.10	45.185
778.41	58.036
778.72	45.255
779.03	42.953
779.34	42.953
779.65	40.541
779.95	42.945
780.26	47.712
780.57	50.345
780.88	58.594
781.19	47.368
781.50	52.703
781.80	38.365
782.11	35.593
782.42	39.873
782.73	40.491
783.04	35.811
783.34	45.070
783.65	56.164
783.96	52.239
784.27	43.357
784.57	49.640
784.88	50.000
785.19	50.000
785.50	54.717
785.81	62.687
786.11	55.738
786.42	48.062
786.73	52.212
787.04	59.434
787.34	54.464
787.65	53.000
787.96	56.757
788.26	47.107
788.57	55.085
788.88	57.851
789.19	43.056
789.49	57.576
789.80	54.198
790.11	68.571
790.41	75.248
790.72	66.265
791.03	72.826
791.33	76.744
791.64	76.289
791.95	69.307
792.25	68.889
792.56	75.325
792.87	80.769
793.17	86.076
793.48	79.310
793.79	65.517
794.09	70.455
794.40	52.101
794.70	58.824
795.01	44.444
795.32	46.043
795.62	56.693
795.93	62.069
796.23	52.212
796.54	69.412
796.85	79.730
797.15	84.507
797.46	66.667
797.76	79.518
798.07	64.557
798.37	87.692
798.68	81.818
798.99	73.239
799.29	79.221
799.60	82.955
799.90	83.562
800.21	105.970
800.51	82.759
800.82	115.789
801.12	85.246
801.43	96.970
801.73	78.378
802.04	104.762
802.34	76.543
802.65	96.875
802.95	103.390
803.26	106.250
803.56	68.571
803.87	86.154
804.17	89.706
804.48	111.111
804.78	91.379
805.09	95.588
805.39	107.692
805.70	105.357
806.00	103.279
806.30	78.788
806.61	84.146
806.91	67.089
807.22	80.263
807.52	61.194
807.83	101.408
808.13	95.312
808.43	83.333
808.74	77.632
809.04	101.449
809.35	88.060
809.65	89.474
809.95	112.903
810.26	83.051
810.56	106.349
810.86	134.091
811.17	138.095
811.47	115.000
811.77	112.963
812.08	114.545
812.38	118.000
812.69	158.333
812.99	127.273
813.29	126.531
813.59	114.286
813.90	136.735
814.20	101.818
814.50	75.385
814.81	94.118
815.11	116.327
815.41	100.000
815.72	133.333
816.02	116.364
816.32	116.667
816.62	130.000
816.93	151.220
817.23	159.524
817.53	129.545
817.84	181.818
818.14	134.783
818.44	106.667
818.74	129.412
819.04	132.500
819.35	165.714
819.65	126.471
819.95	228.571
820.25	205.000
820.56	148.718
820.86	145.455
821.16	160.465
821.46	153.846
821.76	128.000
822.07	114.286
822.37	127.500
822.67	206.061
822.97	115.686
823.27	210.714
823.57	137.838
823.88	202.500
824.18	203.333
824.48	152.381
824.78	240.000
825.08	204.167
825.38	159.459
825.69	126.829
825.99	179.167
826.29	175.862
826.59	150.000
826.89	150.000
827.19	161.765
827.49	203.226
827.79	136.364
828.09	154.545
828.39	123.404
828.70	128.571
829.00	170.370
829.30	174.194
829.60	147.500
829.90	313.333
830.20	221.429
830.50	178.261
830.80	230.435
831.10	186.667
831.40	203.333
831.70	230.435
832.00	238.462
832.30	200.000
832.60	325.000
832.90	230.000
833.20	371.429
833.50	212.903
833.80	217.241
834.10	221.875
834.40	230.769
834.70	261.111
835.00	328.571
835.30	157.143
835.60	407.692
835.90	200.000
836.20	364.286
836.50	220.690
836.80	196.000
837.10	152.778
837.40	257.143
837.70	364.706
838.00	207.407
838.30	252.381
838.60	295.238
838.90	257.692
839.19	275.000
839.49	478.571
839.79	325.000
840.09	240.000
840.39	276.190
840.69	278.261
840.99	311.111
841.29	500.000
841.59	350.000
841.88	356.250
842.18	196.552
842.48	300.000
842.78	210.000
843.08	278.261
843.38	181.250
843.68	900.000
843.97	238.462
844.27	193.103
844.57	323.810
844.87	387.500
845.17	214.815
845.47	1933.333
845.76	488.889
846.06	323.529
846.36	575.000
846.66	400.000
846.96	287.500
847.25	454.545
847.55	390.909
847.85	265.217
848.15	650.000
848.44	385.714
848.74	305.556
849.04	364.706
849.34	510.000
849.63	231.579
849.93	572.727
850.23	1200.000
850.53	450.000
850.82	2500.000
851.12	-4600.000
851.42	4800.000
851.71	275.000
852.01	-1366.667
852.31	241.667
852.61	1700.000
852.90	314.286
853.20	260.000
853.50	347.059
853.79	276.190
854.09	220.833
854.39	318.750
854.68	164.865
854.98	190.323
855.28	190.000
855.57	213.793
855.87	200.000
856.17	284.211
856.46	273.333
856.76	305.882
857.05	213.793
857.35	250.000
857.65	333.333
857.94	256.522
858.24	200.000
858.53	310.000
858.83	277.273
859.13	373.333
859.42	0.000
859.72	411.111
860.01	445.455
860.31	268.182
860.60	273.684
860.90	217.391
861.20	655.556
861.49	450.000
861.79	-5000.000
862.08	675.000
862.38	271.429
862.67	346.154
862.97	382.353
863.26	577.778
863.56	311.111
863.85	433.333
864.15	637.500
864.44	406.667
864.74	766.667
865.03	737.500
865.33	300.000
865.62	409.091
865.92	423.077
866.21	375.000
866.51	0.000
866.80	472.727
867.10	1040.000
867.39	423.077
867.69	463.636
867.98	363.158
868.27	536.364
868.57	300.000
868.86	-4900.000
869.16	393.750
869.45	2250.000
869.75	-4500.000
870.04	533.333
870.33	757.143
870.63	1325.000
870.92	2900.000
871.22	800.000
871.51	370.588
871.80	247.619
872.10	407.143
>>>>>End Processed Spectral Data<<<<<
