SpectraSuite Data File
++++++++++++++++++++++++++++++++++++
Date: Wed May 13 19:47:46 PDT 2015
User: schluterlab
Dark Spectrum Present: Yes
Reference Spectrum Present: Yes
Number of Sampled Component Spectra: 1
Spectrometers: USB2E3373
Integration Time (usec): 3000 (USB2E3373)
Spectra Averaged: 3 (USB2E3373)
Boxcar Smoothing: 0 (USB2E3373)
Correct for Electrical Dark: No (USB2E3373)
Strobe/Lamp Enabled: No (USB2E3373)
Correct for Detector Non-linearity: No (USB2E3373)
Correct for Stray Light: No (USB2E3373)
Number of Pixels in Processed Spectrum: 2048
>>>>>Begin Processed Spectral Data<<<<<
178.53	0.000
178.91	-1450.000
179.29	-1375.000
179.67	-227.778
180.04	-1250.000
180.42	2700.000
180.80	1080.000
181.18	-925.000
181.56	771.429
181.94	0.000
182.31	-671.429
182.69	1766.667
183.07	-600.000
183.45	-411.111
183.83	536.364
184.20	-400.000
184.58	2500.000
184.96	5900.000
185.34	-880.000
185.72	-637.500
186.09	-2900.000
186.47	2700.000
186.85	2800.000
187.23	5700.000
187.61	-1600.000
187.98	1400.000
188.36	472.727
188.74	500.000
189.12	-1060.000
189.49	640.000
189.87	-4600.000
190.25	-1300.000
190.63	450.000
191.00	415.385
191.38	950.000
191.76	-1275.000
192.14	1575.000
192.51	525.000
192.89	1083.333
193.27	575.000
193.65	-1425.000
194.02	560.000
194.40	920.000
194.78	500.000
195.15	458.333
195.53	520.000
195.91	-2050.000
196.29	312.500
196.66	342.105
197.04	-470.000
197.42	0.000
197.79	690.000
198.17	-4500.000
198.55	742.857
198.92	725.000
199.30	1140.000
199.68	0.000
200.05	372.222
200.43	785.714
200.81	4500.000
201.18	1700.000
201.56	-1233.333
201.94	588.889
202.31	477.778
202.69	466.667
203.07	580.000
203.44	0.000
203.82	1200.000
204.19	800.000
204.57	378.571
204.95	600.000
205.32	1700.000
205.70	390.909
206.08	342.857
206.45	2700.000
206.83	387.500
207.20	900.000
207.58	860.000
207.96	322.222
208.33	687.500
208.71	-816.667
209.08	642.857
209.46	700.000
209.84	472.727
210.21	-1633.333
210.59	1350.000
210.96	-500.000
211.34	2550.000
211.71	570.000
212.09	800.000
212.46	0.000
212.84	2000.000
213.22	1375.000
213.59	-4900.000
213.97	866.667
214.34	785.714
214.72	527.273
215.09	1020.000
215.47	-1950.000
215.84	-2300.000
216.22	1700.000
216.59	357.143
216.97	975.000
217.34	472.727
217.72	-750.000
218.09	0.000
218.47	-4200.000
218.84	644.444
219.22	728.571
219.59	1600.000
219.97	-614.286
220.34	980.000
220.72	-1933.333
221.09	428.571
221.47	1400.000
221.84	-950.000
222.22	0.000
222.59	1250.000
222.97	-2600.000
223.34	1080.000
223.72	446.154
224.09	920.000
224.46	1850.000
224.84	-5100.000
225.21	-960.000
225.59	-4000.000
225.96	600.000
226.34	285.000
226.71	2500.000
227.08	600.000
227.46	530.000
227.83	-1075.000
228.21	-2550.000
228.58	522.222
228.95	-2500.000
229.33	-2100.000
229.70	1566.667
230.08	871.429
230.45	-820.000
230.82	408.333
231.20	700.000
231.57	685.714
231.95	508.333
232.32	263.636
232.69	363.636
233.07	642.857
233.44	338.462
233.81	-1733.333
234.19	326.316
234.56	383.333
234.93	466.667
235.31	472.727
235.68	361.538
236.05	357.143
236.43	172.727
236.80	289.474
237.17	4900.000
237.55	257.143
237.92	189.286
238.29	242.857
238.67	170.968
239.04	210.345
239.41	125.000
239.79	128.261
240.16	128.571
240.53	129.545
240.91	96.078
241.28	114.000
241.65	108.000
242.02	88.406
242.40	87.097
242.77	83.333
243.14	65.591
243.51	83.146
243.89	64.706
244.26	45.556
244.63	78.495
245.00	60.638
245.38	59.406
245.75	52.336
246.12	45.872
246.49	51.825
246.87	48.000
247.24	53.846
247.61	45.000
247.98	43.137
248.36	43.243
248.73	45.223
249.10	42.675
249.47	41.243
249.84	41.176
250.22	37.433
250.59	41.420
250.96	39.394
251.33	37.441
251.70	42.079
252.08	39.048
252.45	33.632
252.82	33.478
253.19	32.766
253.56	34.902
253.94	34.855
254.31	28.906
254.68	36.154
255.05	31.734
255.42	29.268
255.79	30.515
256.16	29.603
256.54	25.088
256.91	32.740
257.28	23.022
257.65	27.393
258.02	29.814
258.39	28.391
258.76	30.100
259.14	29.167
259.51	25.836
259.88	21.429
260.25	27.795
260.62	27.168
260.99	24.845
261.36	26.426
261.73	24.928
262.10	27.035
262.47	24.225
262.85	25.627
263.22	23.077
263.59	27.635
263.96	25.824
264.33	27.154
264.70	23.947
265.07	26.087
265.44	25.000
265.81	24.088
266.18	25.126
266.55	23.415
266.92	24.079
267.29	25.694
267.66	23.624
268.03	23.409
268.40	21.495
268.77	20.048
269.14	20.270
269.51	21.445
269.88	22.378
270.25	21.445
270.62	24.944
270.99	22.581
271.36	22.747
271.73	21.262
272.10	22.826
272.47	24.301
272.84	22.078
273.21	22.851
273.58	20.524
273.95	21.174
274.32	19.215
274.69	20.343
275.06	19.882
275.43	22.128
275.80	22.645
276.17	20.774
276.54	21.414
276.91	21.344
277.28	20.313
277.65	19.729
278.02	22.774
278.39	20.703
278.76	18.909
279.13	22.453
279.50	20.112
279.87	19.920
280.23	20.160
280.60	19.149
280.97	19.409
281.34	22.478
281.71	22.000
282.08	21.689
282.45	19.091
282.82	20.604
283.19	17.469
283.56	20.702
283.92	19.797
284.29	18.342
284.66	19.238
285.03	19.168
285.40	18.486
285.77	18.350
286.14	17.271
286.51	19.000
286.87	17.949
287.24	19.707
287.61	16.051
287.98	18.831
288.35	16.482
288.72	17.601
289.08	18.310
289.45	18.122
289.82	18.537
290.19	15.699
290.56	16.539
290.93	15.408
291.29	17.025
291.66	17.109
292.03	17.733
292.40	18.355
292.77	16.716
293.13	17.612
293.50	16.764
293.87	15.852
294.24	16.000
294.60	16.157
294.97	15.552
295.34	16.079
295.71	15.767
296.08	14.245
296.44	14.718
296.81	14.531
297.18	17.344
297.55	12.401
297.91	15.172
298.28	15.529
298.65	16.449
299.02	14.493
299.38	14.608
299.75	13.208
300.12	14.815
300.48	13.875
300.85	14.797
301.22	14.140
301.59	13.131
301.95	14.484
302.32	13.992
302.69	15.293
303.05	14.424
303.42	12.716
303.79	13.477
304.15	13.520
304.52	12.862
304.89	12.892
305.25	12.297
305.62	14.156
305.99	12.633
306.35	14.653
306.72	14.462
307.09	14.650
307.45	14.414
307.82	13.170
308.19	13.907
308.55	13.376
308.92	12.675
309.29	13.939
309.65	13.786
310.02	13.214
310.38	13.226
310.75	13.833
311.12	13.101
311.48	14.002
311.85	13.312
312.22	13.424
312.58	12.682
312.95	13.411
313.31	12.330
313.68	12.994
314.05	14.694
314.41	12.764
314.78	12.991
315.14	12.612
315.51	12.152
315.87	12.574
316.24	13.009
316.61	12.768
316.97	12.427
317.34	11.448
317.70	12.141
318.07	11.646
318.43	12.916
318.80	13.871
319.16	12.429
319.53	11.820
319.89	12.857
320.26	13.100
320.62	13.294
320.99	12.828
321.35	13.333
321.72	12.218
322.08	14.215
322.45	13.234
322.81	12.888
323.18	13.680
323.54	12.801
323.91	12.358
324.27	13.193
324.64	11.743
325.00	11.993
325.37	12.739
325.73	13.196
326.10	12.621
326.46	11.738
326.83	13.287
327.19	12.553
327.56	12.021
327.92	11.199
328.29	14.729
328.65	12.799
329.01	12.726
329.38	13.321
329.74	12.650
330.11	12.158
330.47	12.397
330.84	14.063
331.20	12.386
331.56	14.404
331.93	12.593
332.29	13.931
332.66	13.805
333.02	13.163
333.38	13.550
333.75	12.567
334.11	12.811
334.48	11.713
334.84	12.776
335.20	13.182
335.57	12.421
335.93	11.786
336.29	12.821
336.66	12.894
337.02	12.127
337.38	12.870
337.75	11.943
338.11	12.713
338.47	12.155
338.84	13.291
339.20	12.477
339.56	12.865
339.93	11.455
340.29	11.957
340.65	11.765
341.02	13.002
341.38	12.456
341.74	11.842
342.11	12.576
342.47	12.599
342.83	12.757
343.20	13.506
343.56	11.542
343.92	12.895
344.28	12.840
344.65	12.812
345.01	12.121
345.37	11.835
345.73	12.437
346.10	11.850
346.46	12.034
346.82	11.203
347.19	11.529
347.55	12.069
347.91	12.540
348.27	13.311
348.63	12.709
349.00	12.621
349.36	12.233
349.72	12.510
350.08	11.588
350.45	11.880
350.81	12.104
351.17	12.885
351.53	11.794
351.89	12.129
352.26	13.418
352.62	12.590
352.98	11.994
353.34	12.654
353.70	11.702
354.07	12.661
354.43	11.746
354.79	11.504
355.15	12.131
355.51	11.990
355.87	12.490
356.24	12.052
356.60	11.628
356.96	12.631
357.32	11.447
357.68	11.890
358.04	12.035
358.40	12.431
358.77	12.207
359.13	12.155
359.49	11.608
359.85	10.952
360.21	11.962
360.57	11.673
360.93	11.769
361.29	10.960
361.66	11.378
362.02	11.493
362.38	11.331
362.74	11.161
363.10	11.547
363.46	11.299
363.82	12.094
364.18	11.894
364.54	11.293
364.90	11.898
365.26	11.397
365.62	11.249
365.98	10.446
366.35	9.527
366.71	11.786
367.07	12.017
367.43	12.119
367.79	12.420
368.15	12.284
368.51	10.610
368.87	12.277
369.23	10.973
369.59	11.369
369.95	10.147
370.31	11.467
370.67	11.304
371.03	11.985
371.39	11.006
371.75	10.515
372.11	11.735
372.47	12.023
372.83	11.239
373.19	10.910
373.55	10.939
373.91	12.297
374.27	11.203
374.63	10.036
374.99	10.946
375.35	10.956
375.71	11.309
376.07	11.728
376.42	10.385
376.78	11.465
377.14	10.787
377.50	11.060
377.86	9.774
378.22	10.619
378.58	9.837
378.94	9.742
379.30	9.351
379.66	11.041
380.02	10.688
380.38	10.261
380.74	11.044
381.09	10.697
381.45	11.186
381.81	10.811
382.17	10.955
382.53	10.692
382.89	10.062
383.25	10.694
383.61	11.090
383.97	10.131
384.32	10.730
384.68	9.603
385.04	10.264
385.40	9.721
385.76	10.197
386.12	10.298
386.48	11.580
386.83	10.840
387.19	10.761
387.55	10.451
387.91	9.794
388.27	10.484
388.62	11.186
388.98	9.275
389.34	10.951
389.70	11.097
390.06	11.153
390.42	9.987
390.77	11.069
391.13	10.530
391.49	10.470
391.85	10.376
392.20	9.527
392.56	9.848
392.92	10.830
393.28	9.704
393.64	10.372
393.99	10.202
394.35	10.174
394.71	10.100
395.07	10.093
395.42	10.136
395.78	10.496
396.14	10.615
396.50	10.902
396.85	10.235
397.21	10.419
397.57	10.105
397.92	10.457
398.28	9.978
398.64	10.215
399.00	10.073
399.35	9.588
399.71	10.359
400.07	10.053
400.42	10.184
400.78	10.314
401.14	9.085
401.49	10.507
401.85	10.466
402.21	9.760
402.57	9.809
402.92	9.773
403.28	10.556
403.63	9.839
403.99	9.490
404.35	10.000
404.70	9.293
405.06	9.959
405.42	10.667
405.77	9.314
406.13	10.327
406.49	9.462
406.84	9.746
407.20	9.693
407.55	10.147
407.91	10.600
408.27	9.572
408.62	10.295
408.98	9.743
409.34	9.717
409.69	10.968
410.05	10.409
410.40	9.419
410.76	9.498
411.11	10.555
411.47	10.543
411.83	10.018
412.18	10.080
412.54	10.585
412.89	10.904
413.25	10.035
413.60	9.944
413.96	8.804
414.31	9.781
414.67	11.027
415.03	9.404
415.38	9.601
415.74	10.354
416.09	10.908
416.45	10.375
416.80	10.112
417.16	10.389
417.51	10.551
417.87	9.891
418.22	10.662
418.58	10.523
418.93	9.951
419.29	9.548
419.64	10.264
420.00	9.939
420.35	10.203
420.71	10.819
421.06	10.143
421.42	9.708
421.77	10.650
422.12	9.489
422.48	9.282
422.83	9.901
423.19	10.166
423.54	10.331
423.90	10.087
424.25	10.162
424.61	10.417
424.96	10.204
425.31	10.244
425.67	10.449
426.02	10.057
426.38	10.501
426.73	10.240
427.09	10.334
427.44	10.236
427.79	10.581
428.15	10.357
428.50	10.240
428.85	10.429
429.21	9.774
429.56	10.109
429.92	9.965
430.27	9.037
430.62	9.729
430.98	9.600
431.33	9.845
431.68	10.366
432.04	10.170
432.39	10.565
432.74	10.592
433.10	10.526
433.45	9.913
433.80	9.978
434.16	9.936
434.51	9.737
434.86	9.977
435.22	10.172
435.57	9.787
435.92	9.830
436.28	10.676
436.63	11.369
436.98	9.731
437.34	11.210
437.69	9.977
438.04	10.512
438.39	10.687
438.75	10.401
439.10	10.559
439.45	10.449
439.81	9.668
440.16	10.220
440.51	10.018
440.86	10.654
441.22	9.956
441.57	9.873
441.92	10.031
442.27	10.441
442.63	9.215
442.98	10.817
443.33	9.674
443.68	10.635
444.03	10.493
444.39	9.640
444.74	9.848
445.09	10.189
445.44	10.880
445.79	10.045
446.15	10.535
446.50	9.962
446.85	9.969
447.20	9.893
447.55	10.218
447.91	10.976
448.26	10.351
448.61	9.949
448.96	10.078
449.31	10.067
449.66	10.523
450.02	9.861
450.37	9.524
450.72	10.039
451.07	9.811
451.42	9.605
451.77	10.570
452.12	10.797
452.47	10.759
452.83	10.490
453.18	10.575
453.53	10.761
453.88	10.396
454.23	10.281
454.58	11.811
454.93	10.998
455.28	10.599
455.63	10.983
455.98	10.893
456.34	9.987
456.69	11.522
457.04	10.588
457.39	9.643
457.74	10.563
458.09	10.581
458.44	10.718
458.79	9.870
459.14	10.553
459.49	11.033
459.84	10.028
460.19	10.607
460.54	10.880
460.89	10.313
461.24	10.565
461.59	11.273
461.94	10.358
462.29	10.208
462.64	10.913
462.99	10.995
463.34	11.267
463.69	10.882
464.04	10.667
464.39	10.609
464.74	10.517
465.09	11.158
465.44	10.139
465.79	9.787
466.14	10.564
466.49	10.289
466.84	10.741
467.19	10.561
467.54	10.875
467.89	10.144
468.24	10.762
468.59	11.294
468.94	10.996
469.29	11.247
469.64	12.048
469.99	11.028
470.34	11.162
470.68	11.279
471.03	10.612
471.38	11.049
471.73	10.326
472.08	11.711
472.43	10.616
472.78	11.060
473.13	11.425
473.48	10.861
473.83	10.854
474.17	10.019
474.52	10.918
474.87	11.033
475.22	10.969
475.57	10.425
475.92	10.303
476.27	10.034
476.61	10.756
476.96	10.390
477.31	9.314
477.66	9.956
478.01	10.298
478.36	10.153
478.70	9.917
479.05	10.117
479.40	10.287
479.75	10.473
480.10	9.841
480.45	9.900
480.79	10.033
481.14	9.980
481.49	10.441
481.84	9.694
482.19	10.450
482.53	10.183
482.88	10.563
483.23	10.280
483.58	10.373
483.92	10.497
484.27	8.671
484.62	9.569
484.97	9.460
485.31	9.384
485.66	8.481
486.01	8.014
486.36	7.847
486.70	7.851
487.05	8.345
487.40	8.657
487.75	8.762
488.09	9.221
488.44	9.139
488.79	9.403
489.13	10.008
489.48	9.625
489.83	9.452
490.17	9.338
490.52	9.920
490.87	10.176
491.22	10.368
491.56	9.795
491.91	10.237
492.26	9.876
492.60	10.138
492.95	9.495
493.30	9.252
493.64	9.799
493.99	9.703
494.34	10.083
494.68	10.027
495.03	10.103
495.37	10.191
495.72	9.503
496.07	10.162
496.41	9.469
496.76	10.026
497.11	9.275
497.45	9.874
497.80	9.645
498.14	9.517
498.49	9.756
498.84	9.444
499.18	9.762
499.53	10.066
499.87	10.019
500.22	9.986
500.56	9.951
500.91	9.615
501.26	10.384
501.60	10.062
501.95	9.624
502.29	9.700
502.64	9.823
502.98	9.631
503.33	9.872
503.67	10.626
504.02	10.337
504.36	9.827
504.71	9.526
505.06	10.169
505.40	9.626
505.75	9.402
506.09	9.621
506.44	9.916
506.78	10.132
507.13	9.844
507.47	10.303
507.82	10.030
508.16	10.638
508.51	10.350
508.85	10.328
509.19	10.408
509.54	10.051
509.88	10.046
510.23	9.871
510.57	10.475
510.92	10.357
511.26	10.226
511.61	11.255
511.95	9.186
512.30	9.968
512.64	10.263
512.98	11.147
513.33	10.653
513.67	11.046
514.02	9.903
514.36	10.486
514.70	10.570
515.05	9.760
515.39	10.768
515.74	11.036
516.08	10.788
516.42	10.821
516.77	11.148
517.11	10.377
517.46	11.117
517.80	10.453
518.14	10.307
518.49	10.268
518.83	11.477
519.17	10.797
519.52	10.243
519.86	10.724
520.20	11.329
520.55	10.652
520.89	11.071
521.23	11.098
521.58	10.924
521.92	11.145
522.26	10.067
522.61	11.028
522.95	10.804
523.29	10.834
523.64	11.037
523.98	10.783
524.32	10.977
524.66	10.884
525.01	11.152
525.35	11.152
525.69	10.653
526.04	10.467
526.38	10.921
526.72	10.859
527.06	11.425
527.41	10.458
527.75	10.868
528.09	11.240
528.43	11.281
528.78	11.924
529.12	10.970
529.46	10.655
529.80	11.510
530.15	12.087
530.49	10.462
530.83	11.076
531.17	11.945
531.51	12.646
531.86	11.742
532.20	12.060
532.54	11.723
532.88	12.323
533.22	11.368
533.57	11.852
533.91	10.716
534.25	11.482
534.59	11.714
534.93	11.124
535.27	11.406
535.62	11.722
535.96	11.551
536.30	10.807
536.64	11.977
536.98	11.015
537.32	11.323
537.66	11.267
538.01	12.377
538.35	12.088
538.69	12.572
539.03	10.591
539.37	10.671
539.71	10.758
540.05	11.046
540.39	11.296
540.73	11.902
541.07	12.395
541.42	11.546
541.76	12.387
542.10	11.643
542.44	11.457
542.78	12.121
543.12	11.260
543.46	11.869
543.80	11.581
544.14	11.104
544.48	11.873
544.82	11.289
545.16	11.321
545.50	11.568
545.84	11.694
546.18	11.380
546.52	12.251
546.86	11.409
547.20	12.205
547.54	12.425
547.88	12.628
548.22	12.142
548.56	10.252
548.90	11.076
549.24	10.842
549.58	12.347
549.92	12.088
550.26	12.074
550.60	11.757
550.94	11.761
551.28	11.485
551.62	12.365
551.96	11.158
552.30	13.038
552.64	11.765
552.98	11.322
553.32	12.677
553.66	12.338
554.00	11.874
554.34	12.146
554.68	12.876
555.02	12.130
555.36	11.621
555.69	11.570
556.03	11.978
556.37	11.664
556.71	11.187
557.05	11.134
557.39	11.197
557.73	12.491
558.07	11.965
558.41	11.577
558.75	11.756
559.08	12.752
559.42	11.716
559.76	12.941
560.10	12.063
560.44	12.369
560.78	11.710
561.12	12.137
561.45	12.321
561.79	12.063
562.13	11.737
562.47	11.407
562.81	11.506
563.15	11.505
563.48	11.207
563.82	11.155
564.16	11.380
564.50	11.784
564.84	11.884
565.17	11.068
565.51	11.821
565.85	11.041
566.19	11.522
566.52	11.400
566.86	11.573
567.20	11.321
567.54	12.100
567.88	10.646
568.21	11.587
568.55	11.072
568.89	10.846
569.23	10.472
569.56	10.243
569.90	9.887
570.24	10.405
570.57	10.031
570.91	9.405
571.25	9.327
571.59	9.514
571.92	9.533
572.26	9.532
572.60	9.369
572.93	9.655
573.27	9.613
573.61	9.464
573.95	9.483
574.28	9.372
574.62	8.989
574.96	9.080
575.29	8.875
575.63	9.197
575.97	9.268
576.30	9.267
576.64	8.896
576.98	9.042
577.31	8.826
577.65	9.055
577.98	9.067
578.32	9.035
578.66	8.973
578.99	9.450
579.33	8.981
579.67	9.049
580.00	9.063
580.34	9.136
580.67	9.147
581.01	9.579
581.35	9.000
581.68	9.057
582.02	8.781
582.35	8.861
582.69	8.963
583.02	8.872
583.36	9.177
583.70	9.416
584.03	9.587
584.37	9.934
584.70	9.300
585.04	9.662
585.37	9.669
585.71	9.563
586.04	9.712
586.38	9.509
586.72	10.135
587.05	9.454
587.39	8.997
587.72	9.894
588.06	9.739
588.39	9.767
588.73	9.651
589.06	9.816
589.40	10.404
589.73	10.032
590.07	10.427
590.40	9.536
590.73	10.109
591.07	10.541
591.40	10.460
591.74	11.039
592.07	10.733
592.41	10.335
592.74	10.075
593.08	10.260
593.41	9.586
593.75	9.713
594.08	9.822
594.41	10.180
594.75	9.797
595.08	9.950
595.42	10.228
595.75	9.936
596.09	9.914
596.42	10.491
596.75	10.342
597.09	11.082
597.42	9.992
597.75	10.392
598.09	10.522
598.42	10.438
598.76	10.012
599.09	10.110
599.42	9.825
599.76	10.102
600.09	9.872
600.42	9.788
600.76	9.750
601.09	9.581
601.42	10.160
601.76	10.474
602.09	9.921
602.42	10.390
602.76	10.520
603.09	10.110
603.42	10.426
603.76	10.252
604.09	10.198
604.42	10.232
604.76	11.177
605.09	10.485
605.42	10.389
605.75	10.141
606.09	10.126
606.42	10.339
606.75	10.120
607.09	11.302
607.42	9.799
607.75	9.958
608.08	10.117
608.42	10.758
608.75	10.325
609.08	10.823
609.41	10.804
609.75	11.243
610.08	11.687
610.41	10.428
610.74	10.218
611.07	11.215
611.41	10.942
611.74	11.312
612.07	11.025
612.40	11.175
612.73	10.526
613.07	11.099
613.40	11.058
613.73	10.173
614.06	11.237
614.39	11.327
614.72	11.526
615.06	11.292
615.39	10.722
615.72	11.503
616.05	10.898
616.38	11.951
616.71	11.580
617.05	11.955
617.38	11.365
617.71	10.871
618.04	11.719
618.37	11.827
618.70	11.512
619.03	12.632
619.36	11.813
619.69	12.183
620.03	12.500
620.36	12.166
620.69	12.466
621.02	12.758
621.35	11.511
621.68	12.150
622.01	12.693
622.34	13.313
622.67	12.548
623.00	12.032
623.33	12.223
623.66	12.223
623.99	12.592
624.32	12.197
624.65	12.076
624.99	11.969
625.32	11.586
625.65	12.171
625.98	12.683
626.31	13.608
626.64	12.327
626.97	13.466
627.30	12.801
627.63	13.864
627.96	13.036
628.29	13.648
628.62	15.737
628.95	14.811
629.28	14.234
629.61	13.474
629.94	12.381
630.26	13.441
630.59	14.204
630.92	13.602
631.25	12.636
631.58	14.214
631.91	13.692
632.24	13.397
632.57	14.481
632.90	13.925
633.23	15.101
633.56	14.689
633.89	14.383
634.22	14.075
634.55	16.213
634.88	14.132
635.20	14.815
635.53	15.783
635.86	14.604
636.19	15.647
636.52	15.110
636.85	14.662
637.18	14.286
637.51	15.248
637.83	14.057
638.16	15.473
638.49	14.987
638.82	15.550
639.15	14.750
639.48	15.835
639.81	15.282
640.13	16.016
640.46	15.705
640.79	15.588
641.12	13.618
641.45	15.782
641.77	15.169
642.10	16.813
642.43	16.667
642.76	16.563
643.09	16.258
643.41	15.781
643.74	16.821
644.07	17.226
644.40	18.405
644.73	18.425
645.05	17.591
645.38	17.536
645.71	18.035
646.04	18.106
646.36	18.531
646.69	18.227
647.02	18.878
647.35	17.354
647.67	17.168
648.00	17.236
648.33	15.677
648.66	17.424
648.98	17.091
649.31	15.247
649.64	17.489
649.96	16.393
650.29	16.904
650.62	16.019
650.94	18.476
651.27	18.074
651.60	17.471
651.92	17.572
652.25	14.984
652.58	18.069
652.90	15.956
653.23	17.257
653.56	16.378
653.88	18.384
654.21	18.483
654.54	15.512
654.86	17.134
655.19	14.324
655.52	9.504
655.84	7.182
656.17	9.102
656.49	12.160
656.82	12.621
657.15	9.998
657.47	7.374
657.80	5.497
658.13	6.122
658.45	9.024
658.78	9.840
659.10	10.201
659.43	11.709
659.75	12.104
660.08	13.354
660.41	15.456
660.73	17.408
661.06	17.197
661.38	20.727
661.71	18.654
662.03	18.935
662.36	17.296
662.68	20.683
663.01	19.394
663.33	20.170
663.66	19.328
663.98	19.438
664.31	18.908
664.63	16.599
664.96	16.298
665.28	19.057
665.61	16.764
665.93	18.511
666.26	19.270
666.58	17.782
666.91	22.833
667.23	19.101
667.56	18.359
667.88	17.949
668.21	21.748
668.53	19.523
668.86	18.398
669.18	20.256
669.50	19.565
669.83	22.004
670.15	20.222
670.48	18.301
670.80	18.966
671.13	19.745
671.45	16.809
671.77	18.126
672.10	18.115
672.42	19.611
672.75	18.242
673.07	16.901
673.39	15.913
673.72	16.211
674.04	19.608
674.37	16.893
674.69	16.360
675.01	16.527
675.34	21.971
675.66	21.263
675.98	20.163
676.31	17.857
676.63	20.807
676.95	20.964
677.28	21.028
677.60	20.659
677.92	22.363
678.25	20.739
678.57	19.124
678.89	19.439
679.22	19.057
679.54	20.229
679.86	20.550
680.18	16.279
680.51	18.617
680.83	17.972
681.15	19.057
681.48	18.526
681.80	19.536
682.12	17.433
682.44	17.795
682.77	18.534
683.09	22.747
683.41	20.177
683.73	19.426
684.06	22.107
684.38	18.395
684.70	18.605
685.02	17.448
685.34	17.766
685.67	15.035
685.99	17.182
686.31	16.041
686.63	16.608
686.96	17.857
687.28	17.509
687.60	16.667
687.92	19.378
688.24	17.871
688.56	18.273
688.89	20.747
689.21	22.926
689.53	18.789
689.85	19.290
690.17	16.977
690.49	20.382
690.82	21.963
691.14	18.527
691.46	16.245
691.78	19.076
692.10	18.802
692.42	20.359
692.74	18.050
693.06	21.277
693.39	20.739
693.71	18.122
694.03	19.579
694.35	18.615
694.67	21.053
694.99	22.927
695.31	19.363
695.63	18.421
695.95	22.494
696.27	19.543
696.59	19.948
696.91	22.539
697.23	18.075
697.56	19.616
697.88	18.200
698.20	19.375
698.52	20.860
698.84	20.267
699.16	18.433
699.48	20.665
699.80	24.155
700.12	23.117
700.44	23.607
700.76	24.862
701.08	23.851
701.40	22.626
701.72	21.866
702.04	25.568
702.36	19.547
702.68	19.830
703.00	20.222
703.32	21.011
703.64	22.788
703.96	21.727
704.28	22.965
704.60	25.220
704.91	24.926
705.23	25.806
705.55	26.246
705.87	25.914
706.19	25.088
706.51	24.299
706.83	27.273
707.15	23.810
707.47	22.222
707.79	21.622
708.11	23.516
708.43	20.000
708.74	19.133
709.06	23.636
709.38	23.360
709.70	22.674
710.02	24.926
710.34	24.242
710.66	24.179
710.98	23.864
711.29	25.000
711.61	25.074
711.93	21.474
712.25	24.116
712.57	29.044
712.89	24.221
713.20	25.532
713.52	25.987
713.84	19.937
714.16	22.561
714.48	24.713
714.80	25.836
715.11	23.055
715.43	24.036
715.75	24.928
716.07	24.601
716.39	25.392
716.70	24.252
717.02	27.338
717.34	28.975
717.66	25.746
717.97	27.092
718.29	26.296
718.61	25.912
718.93	26.103
719.24	30.104
719.56	27.458
719.88	26.441
720.20	31.081
720.51	30.662
720.83	25.651
721.15	23.507
721.46	27.305
721.78	27.957
722.10	24.906
722.42	28.947
722.73	25.843
723.05	28.279
723.37	28.745
723.68	30.502
724.00	29.675
724.32	27.823
724.63	29.675
724.95	27.197
725.27	27.935
725.58	31.250
725.90	34.672
726.22	25.660
726.53	25.694
726.85	27.304
727.16	29.181
727.48	26.241
727.80	28.788
728.11	28.261
728.43	29.231
728.74	25.090
729.06	29.197
729.38	31.985
729.69	30.605
730.01	24.232
730.32	27.431
730.64	25.753
730.96	24.092
731.27	25.828
731.59	26.300
731.90	23.032
732.22	22.360
732.53	22.910
732.85	24.679
733.16	23.794
733.48	23.920
733.80	24.351
734.11	27.389
734.43	23.964
734.74	22.000
735.06	19.771
735.37	25.145
735.69	22.611
736.00	25.817
736.32	26.791
736.63	22.045
736.95	22.684
737.26	20.068
737.58	25.161
737.89	25.084
738.21	24.573
738.52	26.786
738.83	25.660
739.15	24.231
739.46	29.562
739.78	25.694
740.09	22.769
740.41	26.129
740.72	22.997
741.04	25.926
741.35	25.833
741.66	34.222
741.98	28.774
742.29	29.187
742.61	32.328
742.92	29.864
743.23	32.479
743.55	29.600
743.86	29.386
744.18	34.071
744.49	36.364
744.80	36.150
745.12	33.636
745.43	33.921
745.74	34.234
746.06	30.734
746.37	30.942
746.68	34.389
747.00	32.407
747.31	30.476
747.62	28.761
747.94	27.753
748.25	26.809
748.56	30.396
748.88	28.218
749.19	33.500
749.50	37.209
749.82	22.358
750.13	26.939
750.44	25.182
750.75	25.263
751.07	29.582
751.38	27.178
751.69	25.993
752.01	25.564
752.32	26.715
752.63	26.241
752.94	29.508
753.26	28.000
753.57	26.423
753.88	31.250
754.19	23.929
754.51	28.819
754.82	26.715
755.13	23.019
755.44	30.075
755.75	23.358
756.07	24.468
756.38	24.088
756.69	24.832
757.00	22.754
757.31	21.662
757.63	23.392
757.94	21.716
758.25	21.569
758.56	20.494
758.87	21.774
759.18	23.939
759.50	19.749
759.81	25.234
760.12	23.750
760.43	26.361
760.74	20.652
761.05	23.446
761.36	22.995
761.67	25.284
761.99	22.981
762.30	24.653
762.61	23.664
762.92	27.734
763.23	30.252
763.54	32.400
763.85	30.078
764.16	32.308
764.47	28.137
764.78	22.615
765.10	21.835
765.41	23.304
765.72	24.850
766.03	26.646
766.34	25.667
766.65	29.787
766.96	26.068
767.27	35.025
767.58	40.104
767.89	34.211
768.20	35.632
768.51	33.503
768.82	32.569
769.13	30.081
769.44	28.340
769.75	27.039
770.06	26.606
770.37	30.317
770.68	31.481
770.99	29.778
771.30	29.098
771.61	30.942
771.92	29.918
772.23	33.613
772.54	35.385
772.85	31.937
773.16	34.574
773.47	36.957
773.78	43.147
774.09	37.500
774.39	43.860
774.70	43.827
775.01	39.130
775.32	47.712
775.63	45.395
775.94	34.532
776.25	47.244
776.56	47.015
776.87	47.541
777.18	46.875
777.48	50.382
777.79	46.970
778.10	48.889
778.41	52.679
778.72	43.066
779.03	43.624
779.34	41.611
779.65	39.865
779.95	39.264
780.26	41.830
780.57	45.517
780.88	53.125
781.19	41.353
781.50	46.622
781.80	42.138
782.11	35.028
782.42	33.544
782.73	31.288
783.04	45.270
783.34	42.254
783.65	55.479
783.96	46.269
784.27	37.063
784.57	41.727
784.88	44.444
785.19	46.825
785.50	48.113
785.81	51.493
786.11	60.656
786.42	50.388
786.73	47.788
787.04	59.434
787.34	52.679
787.65	51.000
787.96	50.450
788.26	51.240
788.57	46.610
788.88	47.107
789.19	43.750
789.49	46.970
789.80	48.092
790.11	60.952
790.41	64.356
790.72	66.265
791.03	69.565
791.33	59.302
791.64	54.639
791.95	57.426
792.25	56.667
792.56	66.234
792.87	67.949
793.17	88.608
793.48	62.069
793.79	68.966
794.09	67.045
794.40	53.782
794.70	52.206
795.01	40.000
795.32	45.324
795.62	48.031
795.93	55.172
796.23	56.637
796.54	60.000
796.85	59.459
797.15	76.056
797.46	78.788
797.76	78.313
798.07	69.620
798.37	93.846
798.68	84.848
798.99	73.239
799.29	63.636
799.60	67.045
799.90	79.452
800.21	68.657
800.51	87.931
800.82	103.509
801.12	73.770
801.43	87.879
801.73	83.784
802.04	88.889
802.34	75.309
802.65	93.750
802.95	111.864
803.26	95.312
803.56	82.857
803.87	75.385
804.17	89.706
804.48	103.704
804.78	87.931
805.09	83.824
805.39	84.615
805.70	98.214
806.00	100.000
806.30	74.242
806.61	79.268
806.91	56.962
807.22	69.737
807.52	68.657
807.83	80.282
808.13	76.563
808.43	98.333
808.74	69.737
809.04	97.101
809.35	105.970
809.65	85.526
809.95	93.548
810.26	79.661
810.56	71.429
810.86	143.182
811.17	114.286
811.47	101.667
811.77	94.444
812.08	92.727
812.38	112.000
812.69	138.889
812.99	152.273
813.29	120.408
813.59	90.476
813.90	116.327
814.20	96.364
814.50	70.769
814.81	80.882
815.11	100.000
815.41	96.721
815.72	116.667
816.02	98.182
816.32	126.190
816.62	100.000
816.93	117.073
817.23	114.286
817.53	129.545
817.84	157.576
818.14	123.913
818.44	117.778
818.74	141.176
819.04	115.000
819.35	160.000
819.65	155.882
819.95	182.143
820.25	200.000
820.56	141.026
820.86	129.545
821.16	123.256
821.46	133.333
821.76	126.000
822.07	131.429
822.37	132.500
822.67	151.515
822.97	109.804
823.27	225.000
823.57	135.135
823.88	135.000
824.18	190.000
824.48	126.190
824.78	220.000
825.08	233.333
825.38	132.432
825.69	143.902
825.99	241.667
826.29	162.069
826.59	123.684
826.89	136.842
827.19	161.765
827.49	193.548
827.79	143.182
828.09	127.273
828.39	100.000
828.70	128.571
829.00	192.593
829.30	174.194
829.60	150.000
829.90	326.667
830.20	182.143
830.50	226.087
830.80	195.652
831.10	210.000
831.40	200.000
831.70	195.652
832.00	226.923
832.30	214.815
832.60	331.250
832.90	236.667
833.20	414.286
833.50	174.194
833.80	213.793
834.10	165.625
834.40	207.692
834.70	216.667
835.00	276.190
835.30	160.000
835.60	361.538
835.90	200.000
836.20	350.000
836.50	200.000
836.80	212.000
837.10	186.111
837.40	242.857
837.70	288.235
838.00	192.593
838.30	242.857
838.60	295.238
838.90	238.462
839.19	265.000
839.49	342.857
839.79	320.000
840.09	215.000
840.39	276.190
840.69	243.478
840.99	272.222
841.29	530.000
841.59	308.333
841.88	331.250
842.18	193.103
842.48	238.095
842.78	216.667
843.08	260.870
843.38	178.125
843.68	933.333
843.97	219.231
844.27	193.103
844.57	266.667
844.87	300.000
845.17	218.519
845.47	1733.333
845.76	533.333
846.06	323.529
846.36	525.000
846.66	400.000
846.96	275.000
847.25	372.727
847.55	363.636
847.85	252.174
848.15	550.000
848.44	342.857
848.74	288.889
849.04	311.765
849.34	550.000
849.63	242.105
849.93	463.636
850.23	660.000
850.53	407.143
850.82	2500.000
851.12	-4300.000
851.42	4800.000
851.71	240.000
852.01	-1200.000
852.31	220.833
852.61	1766.667
852.90	252.381
853.20	260.000
853.50	335.294
853.79	290.476
854.09	208.333
854.39	368.750
854.68	159.459
854.98	193.548
855.28	163.333
855.57	224.138
855.87	222.222
856.17	268.421
856.46	273.333
856.76	276.471
857.05	200.000
857.35	233.333
857.65	293.333
857.94	247.826
858.24	223.077
858.53	305.000
858.83	231.818
859.13	380.000
859.42	0.000
859.72	466.667
860.01	481.818
860.31	236.364
860.60	315.789
860.90	230.435
861.20	555.556
861.49	450.000
861.79	-4700.000
862.08	637.500
862.38	290.476
862.67	376.923
862.97	341.176
863.26	511.111
863.56	244.444
863.85	458.333
864.15	562.500
864.44	373.333
864.74	866.667
865.03	700.000
865.33	331.579
865.62	500.000
865.92	376.923
866.21	375.000
866.51	0.000
866.80	509.091
867.10	1000.000
867.39	446.154
867.69	454.545
867.98	263.158
868.27	463.636
868.57	300.000
868.86	-4300.000
869.16	331.250
869.45	2000.000
869.75	-3200.000
870.04	466.667
870.33	757.143
870.63	1100.000
870.92	2800.000
871.22	571.429
871.51	264.706
871.80	238.095
872.10	357.143
>>>>>End Processed Spectral Data<<<<<
