SpectraSuite Data File
++++++++++++++++++++++++++++++++++++
Date: Wed May 13 19:46:45 PDT 2015
User: schluterlab
Dark Spectrum Present: Yes
Reference Spectrum Present: Yes
Number of Sampled Component Spectra: 1
Spectrometers: USB2E3373
Integration Time (usec): 3000 (USB2E3373)
Spectra Averaged: 3 (USB2E3373)
Boxcar Smoothing: 0 (USB2E3373)
Correct for Electrical Dark: No (USB2E3373)
Strobe/Lamp Enabled: No (USB2E3373)
Correct for Detector Non-linearity: No (USB2E3373)
Correct for Stray Light: No (USB2E3373)
Number of Pixels in Processed Spectrum: 2048
>>>>>Begin Processed Spectral Data<<<<<
178.53	0.000
178.91	-1500.000
179.29	-1300.000
179.67	-227.778
180.04	-1450.000
180.42	2500.000
180.80	1040.000
181.18	-975.000
181.56	771.429
181.94	0.000
182.31	-700.000
182.69	1666.667
183.07	-500.000
183.45	-444.444
183.83	509.091
184.20	-380.000
184.58	2400.000
184.96	5700.000
185.34	-880.000
185.72	-612.500
186.09	-2400.000
186.47	2550.000
186.85	2500.000
187.23	4600.000
187.61	-1766.667
187.98	1475.000
188.36	563.636
188.74	463.636
189.12	-1000.000
189.49	560.000
189.87	-4100.000
190.25	-1300.000
190.63	350.000
191.00	407.692
191.38	983.333
191.76	-1500.000
192.14	1300.000
192.51	700.000
192.89	983.333
193.27	625.000
193.65	-1150.000
194.02	590.000
194.40	960.000
194.78	610.000
195.15	483.333
195.53	680.000
195.91	-2150.000
196.29	350.000
196.66	310.526
197.04	-350.000
197.42	0.000
197.79	670.000
198.17	-4900.000
198.55	700.000
198.92	750.000
199.30	1000.000
199.68	0.000
200.05	316.667
200.43	800.000
200.81	4900.000
201.18	1733.333
201.56	-1700.000
201.94	522.222
202.31	611.111
202.69	458.333
203.07	580.000
203.44	0.000
203.82	1525.000
204.19	885.714
204.57	435.714
204.95	675.000
205.32	1333.333
205.70	527.273
206.08	371.429
206.45	2750.000
206.83	381.250
207.20	883.333
207.58	940.000
207.96	305.556
208.33	787.500
208.71	-916.667
209.08	700.000
209.46	644.444
209.84	400.000
210.21	-1400.000
210.59	1275.000
210.96	-575.000
211.34	2400.000
211.71	600.000
212.09	783.333
212.46	0.000
212.84	1800.000
213.22	1325.000
213.59	-3900.000
213.97	816.667
214.34	814.286
214.72	627.273
215.09	1040.000
215.47	-1950.000
215.84	-2650.000
216.22	1600.000
216.59	421.429
216.97	1400.000
217.34	472.727
217.72	-783.333
218.09	0.000
218.47	-4700.000
218.84	722.222
219.22	842.857
219.59	1233.333
219.97	-728.571
220.34	1080.000
220.72	-1900.000
221.09	435.714
221.47	1775.000
221.84	-716.667
222.22	0.000
222.59	1500.000
222.97	-2900.000
223.34	1120.000
223.72	423.077
224.09	1140.000
224.46	2050.000
224.84	-5600.000
225.21	-860.000
225.59	-5000.000
225.96	690.000
226.34	370.000
226.71	2750.000
227.08	637.500
227.46	550.000
227.83	-1075.000
228.21	-2500.000
228.58	644.444
228.95	-2950.000
229.33	-2350.000
229.70	1800.000
230.08	714.286
230.45	-940.000
230.82	416.667
231.20	866.667
231.57	585.714
231.95	391.667
232.32	236.364
232.69	481.818
233.07	585.714
233.44	430.769
233.81	-2033.333
234.19	347.368
234.56	483.333
234.93	433.333
235.31	563.636
235.68	376.923
236.05	378.571
236.43	172.727
236.80	268.421
237.17	4400.000
237.55	223.810
237.92	250.000
238.29	276.190
238.67	177.419
239.04	210.345
239.41	161.111
239.79	141.304
240.16	152.381
240.53	161.364
240.91	119.608
241.28	116.000
241.65	138.000
242.02	108.696
242.40	127.419
242.77	108.333
243.14	84.946
243.51	98.876
243.89	85.882
244.26	70.000
244.63	74.194
245.00	71.277
245.38	83.168
245.75	66.355
246.12	66.972
246.49	67.153
246.87	75.200
247.24	62.308
247.61	61.429
247.98	62.745
248.36	57.432
248.73	57.962
249.10	63.694
249.47	50.282
249.84	54.011
250.22	52.406
250.59	56.213
250.96	61.111
251.33	54.028
251.70	53.960
252.08	52.857
252.45	48.430
252.82	50.000
253.19	48.511
253.56	47.451
253.94	49.793
254.31	47.266
254.68	48.077
255.05	45.756
255.42	44.715
255.79	48.529
256.16	48.014
256.54	44.170
256.91	46.263
257.28	39.568
257.65	45.215
258.02	45.031
258.39	42.271
258.76	36.455
259.14	46.131
259.51	40.729
259.88	38.509
260.25	38.369
260.62	42.775
260.99	44.099
261.36	43.243
261.73	40.974
262.10	39.826
262.47	43.099
262.85	39.276
263.22	37.892
263.59	42.735
263.96	41.209
264.33	39.687
264.70	37.105
265.07	41.432
265.44	38.384
265.81	36.010
266.18	37.688
266.55	39.512
266.92	38.575
267.29	39.120
267.66	37.844
268.03	39.091
268.40	38.084
268.77	39.379
269.14	37.613
269.51	38.375
269.88	40.326
270.25	37.020
270.62	37.303
270.99	39.355
271.36	36.695
271.73	41.355
272.10	36.304
272.47	37.849
272.84	36.580
273.21	37.107
273.58	34.934
273.95	35.430
274.32	36.570
274.69	37.045
275.06	34.055
275.43	35.745
275.80	33.868
276.17	37.067
276.54	38.254
276.91	35.771
277.28	33.203
277.65	35.010
278.02	37.060
278.39	35.156
278.76	33.818
279.13	36.038
279.50	34.823
279.87	37.052
280.23	35.130
280.60	34.623
280.97	33.641
281.34	33.451
281.71	35.818
282.08	35.125
282.45	33.818
282.82	34.103
283.19	31.373
283.56	33.333
283.92	32.149
284.29	33.333
284.66	33.031
285.03	33.092
285.40	33.979
285.77	32.155
286.14	31.779
286.51	32.500
286.87	31.111
287.24	37.622
287.61	30.177
287.98	32.305
288.35	31.220
288.72	32.866
289.08	31.142
289.45	32.125
289.82	30.894
290.19	30.455
290.56	28.025
290.93	29.003
291.29	30.828
291.66	28.909
292.03	31.105
292.40	28.781
292.77	27.367
293.13	27.761
293.50	27.697
293.87	28.444
294.24	27.704
294.60	26.638
294.97	27.035
295.34	29.196
295.71	27.131
296.08	26.211
296.44	26.685
296.81	27.741
297.18	28.049
297.55	25.594
297.91	25.726
298.28	26.238
298.65	25.718
299.02	24.506
299.38	26.428
299.75	25.202
300.12	26.054
300.48	25.000
300.85	24.044
301.22	26.624
301.59	24.747
301.95	25.063
302.32	25.032
302.69	23.059
303.05	24.606
303.42	22.840
303.79	24.575
304.15	24.592
304.52	23.175
304.89	23.693
305.25	22.854
305.62	22.990
305.99	24.085
306.35	21.924
306.72	24.776
307.09	23.973
307.45	24.662
307.82	22.433
308.19	23.289
308.55	24.919
308.92	23.201
309.29	22.703
309.65	22.800
310.02	22.622
310.38	23.226
310.75	23.548
311.12	22.416
311.48	23.197
311.85	23.480
312.22	22.164
312.58	22.661
312.95	23.020
313.31	22.816
313.68	24.636
314.05	25.049
314.41	23.518
314.78	23.162
315.14	23.635
315.51	25.232
315.87	24.752
316.24	24.429
316.61	23.879
316.97	24.951
317.34	24.951
317.70	26.769
318.07	27.045
318.43	27.593
318.80	27.929
319.16	27.024
319.53	27.298
319.89	28.381
320.26	29.200
320.62	29.167
320.99	31.010
321.35	30.808
321.72	32.546
322.08	33.465
322.45	35.323
322.81	34.496
323.18	35.645
323.54	35.900
323.91	36.887
324.27	38.145
324.64	39.236
325.00	39.585
325.37	42.493
325.73	43.627
326.10	42.895
326.46	43.190
326.83	46.678
327.19	47.395
327.56	49.390
327.92	50.394
328.29	52.440
328.65	53.315
329.01	52.888
329.38	53.932
329.74	54.571
330.11	57.210
330.47	58.219
330.84	57.077
331.20	59.199
331.56	60.092
331.93	61.019
332.29	61.491
332.66	61.150
333.02	61.609
333.38	62.963
333.75	62.389
334.11	64.591
334.48	64.596
334.84	65.257
335.20	65.727
335.57	66.999
335.93	66.071
336.29	67.399
336.66	67.809
337.02	66.516
337.38	68.981
337.75	68.449
338.11	70.098
338.47	69.521
338.84	71.127
339.20	69.908
339.56	73.358
339.93	70.636
340.29	70.199
340.65	72.995
341.02	71.815
341.38	72.153
341.74	70.877
342.11	72.838
342.47	74.449
342.83	73.288
343.20	74.719
343.56	73.041
343.92	72.632
344.28	74.235
344.65	75.924
345.01	72.643
345.37	72.213
345.73	74.619
346.10	74.595
346.46	75.508
346.82	74.629
347.19	74.937
347.55	74.056
347.91	75.647
348.27	76.746
348.63	76.003
349.00	76.456
349.36	76.026
349.72	75.060
350.08	74.959
350.45	78.031
350.81	77.660
351.17	76.823
351.53	78.460
351.89	76.650
352.26	76.717
352.62	79.150
352.98	78.525
353.34	78.636
353.70	78.723
354.07	78.468
354.43	76.905
354.79	78.278
355.15	77.255
355.51	80.655
355.87	80.571
356.24	79.397
356.60	79.391
356.96	80.129
357.32	81.439
357.68	81.024
358.04	80.206
358.40	81.314
358.77	79.734
359.13	80.821
359.49	81.725
359.85	82.143
360.21	82.695
360.57	83.346
360.93	83.077
361.29	83.673
361.66	82.585
362.02	82.687
362.38	83.422
362.74	84.524
363.10	82.679
363.46	83.786
363.82	84.732
364.18	82.379
364.54	85.364
364.90	85.694
365.26	86.397
365.62	85.537
365.98	86.633
366.35	82.450
366.71	85.394
367.07	85.943
367.43	86.357
367.79	88.508
368.15	88.147
368.51	85.392
368.87	86.081
369.23	85.589
369.59	87.111
369.95	87.279
370.31	85.613
370.67	86.159
371.03	88.315
371.39	89.869
371.75	88.088
372.11	85.704
372.47	88.636
372.83	88.833
373.19	88.078
373.55	89.874
373.91	88.586
374.27	87.904
374.63	89.891
374.99	89.124
375.35	86.881
375.71	88.074
376.07	87.929
376.42	90.028
376.78	89.993
377.14	88.602
377.50	89.801
377.86	89.229
378.22	89.444
378.58	88.409
378.94	89.001
379.30	90.331
379.66	92.195
380.02	90.172
380.38	89.132
380.74	90.936
381.09	91.259
381.45	90.350
381.81	90.233
382.17	89.809
382.53	90.189
382.89	90.185
383.25	90.932
383.61	92.317
383.97	91.432
384.32	89.832
384.68	89.715
385.04	91.149
385.40	89.721
385.76	90.418
386.12	92.876
386.48	90.812
386.83	93.714
387.19	93.816
387.55	90.909
387.91	90.447
388.27	89.638
388.62	91.518
388.98	88.943
389.34	91.176
389.70	90.619
390.06	91.318
390.42	92.931
390.77	91.031
391.13	91.385
391.49	91.244
391.85	90.643
392.20	90.789
392.56	91.540
392.92	92.466
393.28	91.006
393.64	90.408
393.99	89.310
394.35	89.206
394.71	89.147
395.07	88.474
395.42	92.027
395.78	90.649
396.14	90.379
396.50	92.544
396.85	90.273
397.21	90.197
397.57	90.081
397.92	91.406
398.28	89.574
398.64	90.860
399.00	89.647
399.35	90.130
399.71	89.583
400.07	91.011
400.42	90.123
400.78	90.712
401.14	90.122
401.49	91.045
401.85	90.018
402.21	89.341
402.57	90.068
402.92	89.723
403.28	91.318
403.63	89.418
403.99	91.019
404.35	88.485
404.70	89.089
405.06	89.458
405.42	88.896
405.77	88.400
406.13	86.512
406.49	89.001
406.84	87.478
407.20	88.002
407.55	88.449
407.91	90.667
408.27	89.087
408.62	88.682
408.98	88.542
409.34	88.438
409.69	88.323
410.05	87.051
410.40	88.196
410.76	88.889
411.11	87.756
411.47	87.987
411.83	88.088
412.18	87.013
412.54	89.415
412.89	86.988
413.25	88.312
413.60	88.697
413.96	85.853
414.31	86.513
414.67	87.452
415.03	87.086
415.38	87.178
415.74	87.846
416.09	88.831
416.45	88.889
416.80	87.640
417.16	87.131
417.51	88.321
417.87	86.513
418.22	87.003
418.58	87.605
418.93	88.698
419.29	88.224
419.64	86.965
420.00	87.012
420.35	86.087
420.71	88.344
421.06	86.993
421.42	87.018
421.77	87.388
422.12	86.468
422.48	85.969
422.83	88.410
423.19	86.022
423.54	88.915
423.90	86.203
424.25	86.823
424.61	87.738
424.96	87.930
425.31	86.822
425.67	86.404
426.02	87.314
426.38	90.110
426.73	87.888
427.09	89.970
427.44	87.004
427.79	87.407
428.15	87.262
428.50	86.425
428.85	87.187
429.21	87.355
429.56	88.077
429.92	86.915
430.27	86.544
430.62	86.738
430.98	86.767
431.33	87.680
431.68	88.325
432.04	86.635
432.39	89.149
432.74	90.006
433.10	89.417
433.45	89.913
433.80	87.805
434.16	88.462
434.51	86.421
434.86	87.229
435.22	89.161
435.57	90.152
435.92	88.590
436.28	89.324
436.63	88.687
436.98	88.151
437.34	89.147
437.69	89.848
438.04	88.139
438.39	88.657
438.75	89.425
439.10	89.609
439.45	88.430
439.81	89.366
440.16	88.481
440.51	90.861
440.86	89.288
441.22	90.434
441.57	88.163
441.92	89.816
442.27	89.290
442.63	89.152
442.98	89.352
443.33	89.239
443.68	88.952
444.03	90.044
444.39	88.851
444.74	90.422
445.09	88.302
445.44	88.300
445.79	89.362
446.15	88.989
446.50	87.991
446.85	89.774
447.20	89.801
447.55	91.122
447.91	91.065
448.26	88.592
448.61	88.751
448.96	89.590
449.31	90.382
449.66	88.801
450.02	89.248
450.37	89.059
450.72	89.679
451.07	89.580
451.42	87.964
451.77	89.724
452.12	88.164
452.47	87.438
452.83	90.559
453.18	87.714
453.53	91.033
453.88	90.136
454.23	88.225
454.58	89.340
454.93	89.256
455.28	89.401
455.63	90.291
455.98	89.940
456.34	89.259
456.69	90.357
457.04	89.350
457.39	91.116
457.74	88.276
458.09	87.694
458.44	89.225
458.79	88.937
459.14	89.842
459.49	89.375
459.84	87.978
460.19	86.859
460.54	84.954
460.89	88.700
461.24	89.132
461.59	88.205
461.94	86.375
462.29	88.546
462.64	87.492
462.99	87.573
463.34	89.000
463.69	89.118
464.04	86.725
464.39	85.391
464.74	87.819
465.09	86.791
465.44	86.482
465.79	86.130
466.14	84.401
466.49	85.373
466.84	86.982
467.19	85.878
467.54	86.875
467.89	84.694
468.24	85.980
468.59	87.057
468.94	87.111
469.29	87.147
469.64	87.015
469.99	88.836
470.34	87.583
470.68	88.506
471.03	86.463
471.38	89.646
471.73	87.608
472.08	87.105
472.43	86.055
472.78	85.451
473.13	86.521
473.48	84.332
473.83	86.341
474.17	84.630
474.52	86.476
474.87	85.698
475.22	83.633
475.57	84.901
475.92	84.758
476.27	85.231
476.61	84.611
476.96	84.992
477.31	84.772
477.66	85.941
478.01	81.913
478.36	85.034
478.70	83.489
479.05	84.185
479.40	84.903
479.75	85.613
480.10	82.952
480.45	81.866
480.79	83.134
481.14	84.051
481.49	82.914
481.84	83.585
482.19	83.916
482.53	82.615
482.88	83.760
483.23	83.271
483.58	82.120
483.92	83.458
484.27	81.307
484.62	83.922
484.97	80.725
485.31	81.747
485.66	79.277
486.01	75.829
486.36	73.928
486.70	73.920
487.05	76.477
487.40	78.294
487.75	79.710
488.09	81.347
488.44	80.720
488.79	83.291
489.13	82.850
489.48	82.096
489.83	81.830
490.17	82.464
490.52	81.355
490.87	82.044
491.22	80.537
491.56	81.321
491.91	81.852
492.26	80.661
492.60	79.585
492.95	80.589
493.30	80.467
493.64	81.895
493.99	79.898
494.34	81.129
494.68	80.632
495.03	80.028
495.37	78.920
495.72	81.238
496.07	80.882
496.41	78.805
496.76	79.244
497.11	79.199
497.45	80.671
497.80	79.655
498.14	79.807
498.49	81.220
498.84	79.914
499.18	79.095
499.53	79.060
499.87	80.009
500.22	78.568
500.56	80.825
500.91	78.654
501.26	78.236
501.60	80.731
501.95	78.368
502.29	80.037
502.64	79.655
502.98	80.037
503.33	77.834
503.67	78.190
504.02	78.952
504.36	77.960
504.71	79.043
505.06	77.494
505.40	78.367
505.75	77.387
506.09	78.766
506.44	80.069
506.78	78.860
507.13	79.001
507.47	78.636
507.82	78.318
508.16	79.230
508.51	79.452
508.85	77.855
509.19	79.031
509.54	76.837
509.88	77.743
510.23	78.458
510.57	79.360
510.92	78.094
511.26	78.212
511.61	78.371
511.95	76.775
512.30	77.519
512.64	77.861
512.98	78.242
513.33	78.105
513.67	76.201
514.02	77.814
514.36	77.826
514.70	77.643
515.05	79.810
515.39	77.678
515.74	78.322
516.08	77.529
516.42	78.468
516.77	78.038
517.11	78.191
517.46	77.427
517.80	78.455
518.14	76.723
518.49	78.763
518.83	76.080
519.17	79.330
519.52	76.853
519.86	77.809
520.20	78.150
520.55	79.234
520.89	79.197
521.23	78.528
521.58	78.451
521.92	77.465
522.26	77.730
522.61	78.131
522.95	77.778
523.29	77.419
523.64	77.683
523.98	78.620
524.32	77.021
524.66	76.669
525.01	76.287
525.35	76.580
525.69	76.108
526.04	78.006
526.38	77.852
526.72	76.626
527.06	77.338
527.41	74.876
527.75	78.071
528.09	77.778
528.43	77.119
528.78	76.091
529.12	75.515
529.46	76.852
529.80	76.238
530.15	78.380
530.49	73.785
530.83	75.886
531.17	78.721
531.51	78.534
531.86	76.387
532.20	76.923
532.54	75.785
532.88	76.958
533.22	75.016
533.57	75.062
533.91	73.269
534.25	74.544
534.59	74.619
534.93	74.182
535.27	74.291
535.62	75.275
535.96	75.895
536.30	75.906
536.64	75.789
536.98	75.780
537.32	73.930
537.66	76.200
538.01	74.852
538.35	75.307
538.69	74.793
539.03	73.554
539.37	73.802
539.71	72.975
540.05	75.556
540.39	75.349
540.73	73.739
541.07	75.081
541.42	75.147
541.76	75.290
542.10	74.450
542.44	74.967
542.78	74.440
543.12	72.681
543.46	73.639
543.80	73.650
544.14	73.684
544.48	73.079
544.82	73.188
545.16	75.016
545.50	72.943
545.84	73.790
546.18	75.421
546.52	75.430
546.86	74.570
547.20	74.848
547.54	72.612
547.88	73.980
548.22	72.291
548.56	72.138
548.90	72.535
549.24	74.074
549.58	73.533
549.92	74.725
550.26	74.858
550.60	72.960
550.94	73.662
551.28	74.031
551.62	74.551
551.96	74.035
552.30	73.515
552.64	74.915
552.98	74.034
553.32	71.881
553.66	73.074
554.00	73.988
554.34	72.809
554.68	75.322
555.02	71.932
555.36	73.486
555.69	70.974
556.03	71.736
556.37	72.783
556.71	72.374
557.05	73.669
557.39	73.688
557.73	72.830
558.07	75.199
558.41	73.806
558.75	73.843
559.08	74.198
559.42	73.847
559.76	73.971
560.10	72.805
560.44	71.698
560.78	70.925
561.12	72.032
561.45	71.838
561.79	72.643
562.13	73.038
562.47	71.995
562.81	72.873
563.15	71.104
563.48	71.950
563.82	70.841
564.16	71.746
564.50	70.443
564.84	69.216
565.17	71.557
565.51	71.757
565.85	69.924
566.19	70.006
566.52	71.818
566.86	68.897
567.20	69.399
567.54	68.950
567.88	68.550
568.21	67.566
568.55	67.442
568.89	68.385
569.23	65.775
569.56	66.194
569.90	64.189
570.24	65.052
570.57	63.618
570.91	62.185
571.25	63.095
571.59	62.356
571.92	63.105
572.26	62.709
572.60	62.492
572.93	62.489
573.27	62.467
573.61	62.312
573.95	61.550
574.28	61.859
574.62	61.030
574.96	60.860
575.29	60.863
575.63	61.560
575.97	61.312
576.30	61.524
576.64	61.511
576.98	60.719
577.31	61.899
577.65	60.630
577.98	59.791
578.32	59.849
578.66	60.587
578.99	61.721
579.33	60.131
579.67	60.107
580.00	60.393
580.34	61.414
580.67	60.695
581.01	60.738
581.35	60.053
581.68	59.699
582.02	58.650
582.35	59.892
582.69	59.030
583.02	60.473
583.36	61.425
583.70	61.838
584.03	61.860
584.37	62.714
584.70	61.573
585.04	60.690
585.37	60.578
585.71	60.667
586.04	60.208
586.38	62.121
586.72	61.558
587.05	60.636
587.39	60.765
587.72	60.964
588.06	60.779
588.39	61.399
588.73	62.100
589.06	61.359
589.40	63.401
589.73	62.337
590.07	62.883
590.40	62.623
590.73	63.505
591.07	64.062
591.40	63.728
591.74	65.065
592.07	64.267
592.41	64.655
592.74	61.648
593.08	60.859
593.41	60.993
593.75	59.588
594.08	61.247
594.41	61.400
594.75	61.848
595.08	61.918
595.42	61.681
595.75	61.895
596.09	63.162
596.42	63.576
596.75	63.656
597.09	64.069
597.42	61.678
597.75	62.570
598.09	62.609
598.42	62.328
598.76	61.613
599.09	60.357
599.42	60.189
599.76	60.615
600.09	60.255
600.42	60.263
600.76	60.036
601.09	60.947
601.42	60.807
601.76	60.569
602.09	60.949
602.42	62.062
602.76	61.628
603.09	60.779
603.42	61.851
603.76	60.328
604.09	61.148
604.42	61.965
604.76	62.084
605.09	62.123
605.42	62.035
605.75	60.637
606.09	60.431
606.42	60.891
606.75	60.348
607.09	59.900
607.42	61.061
607.75	59.747
608.08	61.572
608.42	61.139
608.75	61.317
609.08	59.806
609.41	61.685
609.75	60.124
610.08	60.697
610.41	62.058
610.74	62.394
611.07	62.945
611.41	61.874
611.74	62.443
612.07	62.164
612.40	62.382
612.73	61.789
613.07	63.362
613.40	62.875
613.73	60.461
614.06	62.742
614.39	60.252
614.72	62.211
615.06	61.029
615.39	62.261
615.72	60.174
616.05	60.287
616.38	62.757
616.71	63.242
617.05	63.663
617.38	62.177
617.71	62.462
618.04	63.522
618.37	61.739
618.70	62.788
619.03	63.421
619.36	64.223
619.69	65.141
620.03	64.011
620.36	64.639
620.69	63.904
621.02	65.487
621.35	65.936
621.68	65.343
622.01	64.241
622.34	63.994
622.67	63.878
623.00	63.683
623.33	63.831
623.66	63.903
623.99	64.728
624.32	62.767
624.65	62.924
624.99	62.181
625.32	63.577
625.65	65.214
625.98	65.257
626.31	63.919
626.64	64.653
626.97	65.170
627.30	66.833
627.63	65.874
627.96	65.013
628.29	66.054
628.62	65.965
628.95	67.736
629.28	66.332
629.61	66.269
629.94	69.333
630.26	67.779
630.59	67.016
630.92	65.805
631.25	67.127
631.58	65.065
631.91	67.647
632.24	66.456
632.57	66.737
632.90	67.544
633.23	66.890
633.56	69.944
633.89	69.422
634.22	67.083
634.55	70.178
634.88	68.982
635.20	69.295
635.53	70.120
635.86	71.040
636.19	67.176
636.52	65.975
636.85	66.552
637.18	66.014
637.51	68.913
637.83	66.461
638.16	70.332
638.49	67.128
638.82	69.785
639.15	69.000
639.48	68.204
639.81	69.035
640.13	71.224
640.46	69.664
640.79	68.824
641.12	67.950
641.45	70.531
641.77	69.956
642.10	71.491
642.43	72.523
642.76	71.827
643.09	70.859
643.41	73.293
643.74	72.222
644.07	72.256
644.40	72.086
644.73	69.134
645.05	72.583
645.38	70.300
645.71	70.048
646.04	70.432
646.36	73.957
646.69	70.736
647.02	71.769
647.35	74.055
647.67	72.035
648.00	68.780
648.33	70.957
648.66	67.424
648.98	69.565
649.31	67.414
649.64	69.656
649.96	67.511
650.29	69.352
650.62	68.123
650.94	70.827
651.27	73.142
651.60	68.386
651.92	67.572
652.25	69.707
652.58	68.536
652.90	69.194
653.23	66.564
653.56	68.976
653.88	69.889
654.21	66.351
654.54	70.792
654.86	68.380
655.19	64.054
655.52	46.862
655.84	43.237
656.17	54.929
656.49	75.095
656.82	77.839
657.15	59.642
657.47	45.341
657.80	35.236
658.13	37.390
658.45	56.326
658.78	57.720
659.10	59.752
659.43	62.662
659.75	66.414
660.08	70.316
660.41	73.184
660.73	73.952
661.06	71.975
661.38	77.273
661.71	73.654
662.03	71.006
662.36	69.583
662.68	71.285
663.01	70.505
663.33	72.187
663.66	73.109
663.98	72.354
664.31	72.059
664.63	69.636
664.96	68.410
665.28	75.410
665.61	68.421
665.93	69.215
666.26	70.994
666.58	74.268
666.91	74.630
667.23	75.056
667.56	70.842
667.88	69.872
668.21	71.855
668.53	71.584
668.86	70.130
669.18	71.855
669.50	70.217
669.83	72.985
670.15	74.222
670.48	73.856
670.80	71.336
671.13	68.153
671.45	71.702
671.77	70.672
672.10	68.577
672.42	68.021
672.75	65.506
673.07	68.134
673.39	68.535
673.72	69.922
674.04	68.431
674.37	68.738
674.69	68.098
675.01	67.364
675.34	71.663
675.66	67.368
675.98	69.450
676.31	71.639
676.63	69.851
676.95	66.876
677.28	73.598
677.60	67.033
677.92	69.409
678.25	68.172
678.57	65.538
678.89	68.737
679.22	65.619
679.54	68.702
679.86	64.771
680.18	61.896
680.51	64.007
680.83	64.235
681.15	67.358
681.48	66.919
681.80	67.311
682.12	67.816
682.44	61.702
682.77	67.617
683.09	69.099
683.41	69.845
683.73	73.289
684.06	70.455
684.38	64.188
684.70	65.504
685.02	66.417
685.34	64.835
685.67	61.713
685.99	63.058
686.31	62.799
686.63	64.841
686.96	61.607
687.28	60.469
687.60	62.138
687.92	65.448
688.24	65.970
688.56	67.671
688.89	68.050
689.21	68.777
689.53	67.015
689.85	66.297
690.17	64.182
690.49	64.756
690.82	69.393
691.14	65.179
691.46	63.713
691.78	61.044
692.10	65.909
692.42	64.072
692.74	62.033
693.06	63.191
693.39	63.039
693.71	66.157
694.03	65.474
694.35	64.286
694.67	66.362
694.99	68.780
695.31	64.951
695.63	66.746
695.95	71.394
696.27	67.005
696.59	65.544
696.91	67.617
697.23	63.146
697.56	63.966
697.88	60.327
698.20	64.375
698.52	66.022
698.84	62.806
699.16	63.364
699.48	63.895
699.80	68.599
700.12	73.247
700.44	70.027
700.76	70.718
701.08	71.839
701.40	67.318
701.72	74.052
702.04	72.443
702.36	65.439
702.68	67.139
703.00	68.421
703.32	66.755
703.64	68.633
703.96	67.131
704.28	68.314
704.60	71.554
704.91	68.249
705.23	66.862
705.55	71.096
705.87	72.757
706.19	73.498
706.51	67.601
706.83	70.303
707.15	70.028
707.47	66.919
707.79	66.830
708.11	64.155
708.43	64.762
708.74	64.031
709.06	64.935
709.38	64.304
709.70	69.477
710.02	68.546
710.34	64.242
710.66	67.761
710.98	67.898
711.29	67.151
711.61	67.552
711.93	67.308
712.25	69.132
712.57	70.588
712.89	69.550
713.20	66.261
713.52	69.079
713.84	70.886
714.16	65.854
714.48	62.356
714.80	70.213
715.11	64.265
715.43	65.282
715.75	66.087
716.07	65.815
716.39	63.950
716.70	72.093
717.02	67.266
717.34	68.551
717.66	71.269
717.97	74.502
718.29	64.815
718.61	67.518
718.93	75.000
719.24	69.550
719.56	62.712
719.88	67.458
720.20	68.919
720.51	69.338
720.83	74.349
721.15	69.030
721.46	68.085
721.78	71.326
722.10	69.057
722.42	71.805
722.73	74.906
723.05	75.000
723.37	70.850
723.68	69.112
724.00	70.732
724.32	70.565
724.63	77.236
724.95	75.314
725.27	71.255
725.58	72.266
725.90	73.358
726.22	66.792
726.53	60.417
726.85	61.775
727.16	66.548
727.48	65.248
727.80	69.697
728.11	65.942
728.43	71.154
728.74	65.950
729.06	71.533
729.38	69.485
729.69	69.751
730.01	59.044
730.32	67.361
730.64	65.552
730.96	64.686
731.27	65.563
731.59	63.609
731.90	62.682
732.22	61.180
732.53	59.443
732.85	63.462
733.16	65.273
733.48	65.781
733.80	65.260
734.11	64.968
734.43	61.538
734.74	60.857
735.06	57.307
735.37	63.295
735.69	64.968
736.00	63.399
736.32	65.109
736.63	60.703
736.95	64.856
737.26	64.626
737.58	59.677
737.89	66.555
738.21	65.188
738.52	65.000
738.83	66.038
739.15	69.615
739.46	67.153
739.78	65.625
740.09	61.846
740.41	63.871
740.72	65.505
741.04	65.185
741.35	68.333
741.66	67.556
741.98	65.566
742.29	73.206
742.61	70.259
742.92	71.493
743.23	70.085
743.55	73.600
743.86	67.982
744.18	75.221
744.49	77.990
744.80	76.526
745.12	74.545
745.43	68.282
745.74	69.369
746.06	72.018
746.37	73.094
746.68	71.946
747.00	77.315
747.31	79.524
747.62	65.487
747.94	72.687
748.25	68.936
748.56	68.722
748.88	75.743
749.19	81.500
749.50	74.419
749.82	65.041
750.13	66.122
750.44	64.234
750.75	66.316
751.07	63.023
751.38	66.899
751.69	62.094
752.01	65.038
752.32	58.484
752.63	64.539
752.94	67.623
753.26	69.600
753.57	66.667
753.88	67.578
754.19	60.000
754.51	64.583
754.82	61.372
755.13	65.660
755.44	64.286
755.75	59.489
756.07	62.766
756.38	59.489
756.69	62.752
757.00	54.192
757.31	56.677
757.63	58.480
757.94	55.496
758.25	54.167
758.56	52.840
758.87	57.796
759.18	58.182
759.50	58.621
759.81	59.190
760.12	56.562
760.43	55.874
760.74	55.435
761.05	59.605
761.36	53.476
761.67	59.659
761.99	59.627
762.30	63.889
762.61	64.504
762.92	64.062
763.23	66.387
763.54	64.000
763.85	68.359
764.16	66.538
764.47	65.399
764.78	56.890
765.10	57.595
765.41	52.802
765.72	57.485
766.03	60.815
766.34	55.667
766.65	76.170
766.96	66.667
767.27	73.096
767.58	73.438
767.89	74.737
768.20	75.862
768.51	68.020
768.82	69.725
769.13	60.163
769.44	63.968
769.75	64.807
770.06	61.927
770.37	67.873
770.68	59.722
770.99	64.444
771.30	57.787
771.61	69.507
771.92	63.934
772.23	70.168
772.54	66.154
772.85	75.393
773.16	69.681
773.47	66.304
773.78	74.112
774.09	76.190
774.39	74.854
774.70	67.284
775.01	89.130
775.32	87.582
775.63	81.579
775.94	77.698
776.25	87.402
776.56	83.582
776.87	81.148
777.18	85.938
777.48	86.260
777.79	83.333
778.10	78.519
778.41	92.857
778.72	69.343
779.03	75.839
779.34	75.168
779.65	73.649
779.95	71.779
780.26	77.778
780.57	80.000
780.88	87.500
781.19	81.955
781.50	73.649
781.80	77.987
782.11	76.836
782.42	68.987
782.73	71.166
783.04	78.378
783.34	78.873
783.65	80.822
783.96	86.567
784.27	73.427
784.57	69.784
784.88	87.037
785.19	84.127
785.50	97.170
785.81	79.104
786.11	83.607
786.42	79.845
786.73	82.301
787.04	86.792
787.34	88.393
787.65	102.000
787.96	85.586
788.26	82.645
788.57	92.373
788.88	81.818
789.19	77.083
789.49	84.091
789.80	79.389
790.11	111.429
790.41	96.040
790.72	97.590
791.03	104.348
791.33	100.000
791.64	85.567
791.95	99.010
792.25	114.444
792.56	118.182
792.87	125.641
793.17	117.722
793.48	113.793
793.79	106.897
794.09	98.864
794.40	80.672
794.70	82.353
795.01	75.556
795.32	75.540
795.62	81.102
795.93	84.483
796.23	89.381
796.54	95.294
796.85	94.595
797.15	132.394
797.46	112.121
797.76	102.410
798.07	103.797
798.37	123.077
798.68	119.697
798.99	105.634
799.29	98.701
799.60	98.864
799.90	113.699
800.21	125.373
800.51	122.414
800.82	124.561
801.12	129.508
801.43	124.242
801.73	97.297
802.04	125.397
802.34	102.469
802.65	121.875
802.95	138.983
803.26	137.500
803.56	111.429
803.87	113.846
804.17	107.353
804.48	146.296
804.78	125.862
805.09	129.412
805.39	123.077
805.70	123.214
806.00	131.148
806.30	113.636
806.61	110.976
806.91	105.063
807.22	111.842
807.52	107.463
807.83	109.859
808.13	101.563
808.43	108.333
808.74	106.579
809.04	114.493
809.35	128.358
809.65	93.421
809.95	150.000
810.26	128.814
810.56	115.873
810.86	150.000
811.17	169.048
811.47	130.000
811.77	142.593
812.08	136.364
812.38	160.000
812.69	166.667
812.99	186.364
813.29	136.735
813.59	128.571
813.90	161.224
814.20	130.909
814.50	101.538
814.81	117.647
815.11	148.980
815.41	119.672
815.72	161.905
816.02	125.455
816.32	142.857
816.62	162.500
816.93	170.732
817.23	166.667
817.53	150.000
817.84	196.970
818.14	160.870
818.44	140.000
818.74	182.353
819.04	142.500
819.35	182.857
819.65	214.706
819.95	225.000
820.25	250.000
820.56	176.923
820.86	161.364
821.16	165.116
821.46	174.359
821.76	160.000
822.07	208.571
822.37	167.500
822.67	184.848
822.97	139.216
823.27	228.571
823.57	181.081
823.88	190.000
824.18	240.000
824.48	171.429
824.78	224.000
825.08	245.833
825.38	197.297
825.69	180.488
825.99	245.833
826.29	196.552
826.59	176.316
826.89	197.368
827.19	185.294
827.49	225.806
827.79	159.091
828.09	147.727
828.39	146.809
828.70	144.898
829.00	207.407
829.30	187.097
829.60	190.000
829.90	386.667
830.20	207.143
830.50	260.870
830.80	239.130
831.10	210.000
831.40	196.667
831.70	221.739
832.00	238.462
832.30	229.630
832.60	281.250
832.90	250.000
833.20	392.857
833.50	212.903
833.80	234.483
834.10	206.250
834.40	292.308
834.70	250.000
835.00	314.286
835.30	202.857
835.60	438.462
835.90	244.828
836.20	364.286
836.50	220.690
836.80	228.000
837.10	211.111
837.40	290.476
837.70	352.941
838.00	240.741
838.30	257.143
838.60	290.476
838.90	226.923
839.19	305.000
839.49	371.429
839.79	345.000
840.09	280.000
840.39	295.238
840.69	265.217
840.99	350.000
841.29	540.000
841.59	408.333
841.88	368.750
842.18	200.000
842.48	285.714
842.78	190.000
843.08	265.217
843.38	218.750
843.68	816.667
843.97	238.462
844.27	224.138
844.57	285.714
844.87	393.750
845.17	207.407
845.47	1566.667
845.76	544.444
846.06	288.235
846.36	575.000
846.66	385.714
846.96	362.500
847.25	418.182
847.55	427.273
847.85	265.217
848.15	640.000
848.44	400.000
848.74	288.889
849.04	323.529
849.34	570.000
849.63	257.895
849.93	572.727
850.23	1000.000
850.53	442.857
850.82	2700.000
851.12	-4600.000
851.42	4500.000
851.71	280.000
852.01	-1566.667
852.31	212.500
852.61	1633.333
852.90	276.190
853.20	240.000
853.50	370.588
853.79	276.190
854.09	266.667
854.39	325.000
854.68	170.270
854.98	187.097
855.28	183.333
855.57	220.690
855.87	240.741
856.17	215.789
856.46	286.667
856.76	317.647
857.05	213.793
857.35	266.667
857.65	360.000
857.94	243.478
858.24	234.615
858.53	305.000
858.83	254.545
859.13	360.000
859.42	0.000
859.72	555.556
860.01	454.545
860.31	245.455
860.60	273.684
860.90	304.348
861.20	677.778
861.49	525.000
861.79	-5300.000
862.08	700.000
862.38	285.714
862.67	461.538
862.97	441.176
863.26	566.667
863.56	283.333
863.85	433.333
864.15	637.500
864.44	420.000
864.74	916.667
865.03	837.500
865.33	310.526
865.62	472.727
865.92	461.538
866.21	400.000
866.51	0.000
866.80	454.545
867.10	1220.000
867.39	500.000
867.69	472.727
867.98	268.421
868.27	490.909
868.57	342.105
868.86	-4600.000
869.16	350.000
869.45	2350.000
869.75	-5200.000
870.04	433.333
870.33	814.286
870.63	950.000
870.92	2150.000
871.22	785.714
871.51	311.765
871.80	233.333
872.10	371.429
>>>>>End Processed Spectral Data<<<<<
