SpectraSuite Data File
++++++++++++++++++++++++++++++++++++
Date: Wed May 13 19:21:36 PDT 2015
User: schluterlab
Dark Spectrum Present: Yes
Reference Spectrum Present: Yes
Number of Sampled Component Spectra: 1
Spectrometers: USB2E3373
Integration Time (usec): 3000 (USB2E3373)
Spectra Averaged: 3 (USB2E3373)
Boxcar Smoothing: 0 (USB2E3373)
Correct for Electrical Dark: No (USB2E3373)
Strobe/Lamp Enabled: No (USB2E3373)
Correct for Detector Non-linearity: No (USB2E3373)
Correct for Stray Light: No (USB2E3373)
Number of Pixels in Processed Spectrum: 2048
>>>>>Begin Processed Spectral Data<<<<<
178.53	0.000
178.91	-1575.000
179.29	-1500.000
179.67	-238.889
180.04	-1300.000
180.42	2800.000
180.80	1220.000
181.18	-1150.000
181.56	785.714
181.94	0.000
182.31	-742.857
182.69	1900.000
183.07	-625.000
183.45	-522.222
183.83	554.545
184.20	-510.000
184.58	2600.000
184.96	5900.000
185.34	-960.000
185.72	-737.500
186.09	-2500.000
186.47	2800.000
186.85	2700.000
187.23	5500.000
187.61	-1733.333
187.98	1350.000
188.36	618.182
188.74	536.364
189.12	-1120.000
189.49	590.000
189.87	-5300.000
190.25	-1425.000
190.63	392.857
191.00	500.000
191.38	1016.667
191.76	-1425.000
192.14	1475.000
192.51	762.500
192.89	1116.667
193.27	725.000
193.65	-1475.000
194.02	550.000
194.40	1200.000
194.78	560.000
195.15	525.000
195.53	750.000
195.91	-2500.000
196.29	375.000
196.66	336.842
197.04	-460.000
197.42	0.000
197.79	710.000
198.17	-5400.000
198.55	928.571
198.92	737.500
199.30	1000.000
199.68	0.000
200.05	361.111
200.43	985.714
200.81	5000.000
201.18	1866.667
201.56	-1633.333
201.94	744.444
202.31	666.667
202.69	508.333
203.07	590.000
203.44	0.000
203.82	1375.000
204.19	842.857
204.57	485.714
204.95	650.000
205.32	2100.000
205.70	581.818
206.08	385.714
206.45	2750.000
206.83	406.250
207.20	883.333
207.58	820.000
207.96	394.444
208.33	762.500
208.71	-933.333
209.08	728.571
209.46	677.778
209.84	581.818
210.21	-1366.667
210.59	1525.000
210.96	-575.000
211.34	3000.000
211.71	590.000
212.09	966.667
212.46	0.000
212.84	2266.667
213.22	1525.000
213.59	-5600.000
213.97	1133.333
214.34	971.429
214.72	609.091
215.09	1120.000
215.47	-3000.000
215.84	-2900.000
216.22	1833.333
216.59	485.714
216.97	1325.000
217.34	472.727
217.72	-916.667
218.09	0.000
218.47	-5200.000
218.84	811.111
219.22	842.857
219.59	1666.667
219.97	-728.571
220.34	1160.000
220.72	-2000.000
221.09	435.714
221.47	1550.000
221.84	-1150.000
222.22	0.000
222.59	1500.000
222.97	-2450.000
223.34	1240.000
223.72	446.154
224.09	1200.000
224.46	2950.000
224.84	-6100.000
225.21	-960.000
225.59	-5500.000
225.96	660.000
226.34	325.000
226.71	2600.000
227.08	737.500
227.46	630.000
227.83	-1375.000
228.21	-2950.000
228.58	700.000
228.95	-2750.000
229.33	-2400.000
229.70	1700.000
230.08	885.714
230.45	-840.000
230.82	491.667
231.20	1066.667
231.57	800.000
231.95	541.667
232.32	327.273
232.69	390.909
233.07	657.143
233.44	400.000
233.81	-1600.000
234.19	363.158
234.56	500.000
234.93	416.667
235.31	481.818
235.68	461.538
236.05	371.429
236.43	181.818
236.80	305.263
237.17	5500.000
237.55	285.714
237.92	217.857
238.29	252.381
238.67	183.871
239.04	186.207
239.41	166.667
239.79	130.435
240.16	147.619
240.53	131.818
240.91	105.882
241.28	102.000
241.65	116.000
242.02	86.957
242.40	93.548
242.77	98.333
243.14	72.043
243.51	77.528
243.89	70.588
244.26	68.889
244.63	61.290
245.00	61.702
245.38	49.505
245.75	55.140
246.12	48.624
246.49	66.423
246.87	58.400
247.24	50.769
247.61	53.571
247.98	45.752
248.36	39.189
248.73	41.401
249.10	36.306
249.47	41.808
249.84	36.898
250.22	36.898
250.59	38.462
250.96	35.354
251.33	36.967
251.70	37.624
252.08	33.810
252.45	28.700
252.82	30.870
253.19	30.213
253.56	27.451
253.94	31.120
254.31	28.906
254.68	28.077
255.05	25.830
255.42	30.081
255.79	25.368
256.16	28.520
256.54	24.028
256.91	27.402
257.28	23.022
257.65	23.102
258.02	25.466
258.39	23.028
258.76	22.408
259.14	20.833
259.51	21.277
259.88	23.913
260.25	24.773
260.62	22.543
260.99	23.913
261.36	24.625
261.73	22.063
262.10	21.512
262.47	25.634
262.85	20.334
263.22	17.664
263.59	23.362
263.96	20.330
264.33	19.060
264.70	20.526
265.07	23.274
265.44	20.202
265.81	17.518
266.18	19.849
266.55	21.707
266.92	19.656
267.29	20.602
267.66	20.413
268.03	20.682
268.40	17.991
268.77	17.184
269.14	19.144
269.51	21.445
269.88	17.949
270.25	18.284
270.62	18.652
270.99	20.860
271.36	17.167
271.73	18.692
272.10	17.391
272.47	16.774
272.84	21.212
273.21	18.029
273.58	18.122
273.95	16.562
274.32	17.149
274.69	17.987
275.06	16.732
275.43	17.447
275.80	18.838
276.17	17.923
276.54	16.424
276.91	16.601
277.28	16.211
277.65	17.408
278.02	16.149
278.39	19.141
278.76	17.636
279.13	17.736
279.50	18.063
279.87	17.729
280.23	17.365
280.60	15.474
280.97	14.233
281.34	15.575
281.71	15.636
282.08	16.507
282.45	16.000
282.82	17.229
283.19	12.834
283.56	15.263
283.92	15.398
284.29	14.638
284.66	16.334
285.03	13.562
285.40	14.789
285.77	17.003
286.14	14.162
286.51	16.667
286.87	17.265
287.24	15.309
287.61	15.088
287.98	14.286
288.35	14.580
288.72	14.642
289.08	13.772
289.45	13.674
289.82	12.683
290.19	12.559
290.56	14.395
290.93	13.142
291.29	15.184
291.66	13.422
292.03	15.843
292.40	14.978
292.77	13.462
293.13	13.881
293.50	12.828
293.87	13.481
294.24	12.741
294.60	12.373
294.97	13.953
295.34	14.528
295.71	14.062
296.08	11.966
296.44	12.655
296.81	12.021
297.18	13.144
297.55	9.894
297.91	12.005
298.28	11.379
298.65	12.272
299.02	12.253
299.38	13.413
299.75	10.243
300.12	10.983
300.48	12.000
300.85	11.591
301.22	12.357
301.59	11.237
301.95	9.950
302.32	11.168
302.69	10.633
303.05	10.667
303.42	10.741
303.79	10.985
304.15	10.839
304.52	10.892
304.89	11.382
305.25	10.673
305.62	12.571
305.99	11.452
306.35	10.626
306.72	10.762
307.09	12.875
307.45	11.261
307.82	11.384
308.19	11.258
308.55	11.758
308.92	11.171
309.29	10.982
309.65	10.074
310.02	10.782
310.38	10.753
310.75	10.771
311.12	11.259
311.48	11.703
311.85	12.893
312.22	11.967
312.58	11.435
312.95	12.460
313.31	10.971
313.68	13.202
314.05	12.525
314.41	12.462
314.78	12.286
315.14	13.009
315.51	13.491
315.87	13.168
316.24	12.810
316.61	12.671
316.97	13.209
317.34	11.937
317.70	14.914
318.07	14.726
318.43	14.188
318.80	16.120
319.16	16.102
319.53	15.947
319.89	15.810
320.26	15.900
320.62	18.056
320.99	18.687
321.35	17.475
321.72	18.789
322.08	19.250
322.45	18.507
322.81	18.605
323.18	20.906
323.54	19.388
323.91	20.566
324.27	21.606
324.64	21.249
325.00	20.920
325.37	22.202
325.73	23.339
326.10	23.566
326.46	23.656
326.83	25.022
327.19	25.107
327.56	25.958
327.92	26.684
328.29	27.418
328.65	27.808
329.01	28.791
329.38	28.677
329.74	28.347
330.11	29.783
330.47	30.670
330.84	30.423
331.20	30.874
331.56	30.642
331.93	29.630
332.29	31.500
332.66	31.681
333.02	32.267
333.38	32.069
333.75	31.729
334.11	31.762
334.48	32.564
334.84	33.088
335.20	33.000
335.57	33.092
335.93	31.339
336.29	31.593
336.66	33.003
337.02	31.946
337.38	33.704
337.75	31.996
338.11	34.020
338.47	33.333
338.84	33.639
339.20	32.661
339.56	34.124
339.93	33.636
340.29	33.152
340.65	32.709
341.02	33.682
341.38	35.231
341.74	33.684
342.11	33.886
342.47	35.154
342.83	33.476
343.20	34.805
343.56	33.614
343.92	34.298
344.28	34.864
344.65	35.168
345.01	34.596
345.37	33.276
345.73	33.418
346.10	32.992
346.46	33.305
346.82	33.690
347.19	33.918
347.55	34.401
347.91	34.142
348.27	33.854
348.63	34.615
349.00	34.304
349.36	34.729
349.72	32.879
350.08	33.306
350.45	34.988
350.81	34.281
351.17	34.279
351.53	34.316
351.89	33.993
352.26	35.122
352.62	34.162
352.98	34.360
353.34	35.004
353.70	32.897
354.07	35.081
354.43	33.730
354.79	34.674
355.15	34.956
355.51	36.771
355.87	34.531
356.24	34.691
356.60	35.124
356.96	34.755
357.32	35.323
357.68	36.142
358.04	36.263
358.40	36.105
358.77	35.368
359.13	33.149
359.49	34.745
359.85	34.048
360.21	35.407
360.57	35.798
360.93	36.000
361.29	36.508
361.66	34.907
362.02	35.299
362.38	36.350
362.74	35.565
363.10	35.677
363.46	35.510
363.82	35.828
364.18	37.004
364.54	36.553
364.90	36.119
365.26	36.324
365.62	35.720
365.98	36.158
366.35	35.530
366.71	36.226
367.07	36.198
367.43	37.591
367.79	36.474
368.15	36.207
368.51	35.392
368.87	37.116
369.23	36.723
369.59	35.699
369.95	36.691
370.31	35.897
370.67	35.870
371.03	38.127
371.39	38.484
371.75	36.029
372.11	36.486
372.47	37.683
372.83	37.104
373.19	36.922
373.55	38.285
373.91	38.439
374.27	37.663
374.63	37.455
374.99	38.418
375.35	37.613
375.71	36.121
376.07	38.272
376.42	37.689
376.78	38.038
377.14	38.060
377.50	37.417
377.86	37.699
378.22	37.105
378.58	36.529
378.94	38.089
379.30	38.168
379.66	37.881
380.02	38.206
380.38	36.976
380.74	38.896
381.09	38.814
381.45	39.398
381.81	38.268
382.17	37.962
382.53	38.302
382.89	38.025
383.25	39.275
383.61	38.600
383.97	38.399
384.32	39.114
384.68	38.228
385.04	39.090
385.40	38.762
385.76	39.435
386.12	38.148
386.48	38.641
386.83	41.116
387.19	39.951
387.55	39.456
387.91	39.178
388.27	39.178
388.62	39.644
388.98	39.128
389.34	39.237
389.70	38.320
390.06	39.987
390.42	38.716
390.77	38.995
391.13	39.949
391.49	39.340
391.85	38.192
392.20	38.864
392.56	39.899
392.92	40.200
393.28	39.112
393.64	39.029
393.99	37.874
394.35	38.710
394.71	39.210
395.07	37.882
395.42	40.111
395.78	39.758
396.14	39.106
396.50	40.977
396.85	40.114
397.21	39.457
397.57	39.430
397.92	38.942
398.28	39.294
398.64	38.053
399.00	38.612
399.35	38.579
399.71	38.542
400.07	38.794
400.42	38.221
400.78	39.083
401.14	37.927
401.49	39.642
401.85	38.052
402.21	38.263
402.57	38.371
402.92	39.533
403.28	38.726
403.63	39.109
403.99	37.962
404.35	38.121
404.70	37.650
405.06	38.090
405.42	38.677
405.77	37.714
406.13	37.754
406.49	38.439
406.84	37.685
407.20	37.470
407.55	38.928
407.91	39.733
408.27	38.800
408.62	37.748
408.98	38.235
409.34	39.237
409.69	38.258
410.05	38.166
410.40	38.349
410.76	37.336
411.11	37.696
411.47	38.530
411.83	38.119
412.18	36.735
412.54	37.235
412.89	36.928
413.25	38.489
413.60	37.369
413.96	36.976
414.31	37.485
414.67	38.150
415.03	37.483
415.38	38.595
415.74	38.006
416.09	38.863
416.45	37.617
416.80	37.806
417.16	38.740
417.51	37.293
417.87	36.737
418.22	37.981
418.58	37.121
418.93	38.206
419.29	38.829
419.64	38.098
420.00	36.707
420.35	37.739
420.71	37.836
421.06	37.589
421.42	37.310
421.77	37.836
422.12	35.935
422.48	35.888
422.83	37.158
423.19	36.906
423.54	36.390
423.90	37.449
424.25	37.353
424.61	37.500
424.96	38.017
425.31	38.926
425.67	36.798
426.02	36.971
426.38	39.072
426.73	37.098
427.09	37.812
427.44	36.975
427.79	38.873
428.15	38.810
428.50	36.747
428.85	38.737
429.21	36.002
429.56	37.221
429.92	37.192
430.27	36.842
430.62	36.866
430.98	36.741
431.33	37.423
431.68	37.016
432.04	36.635
432.39	36.836
432.74	37.762
433.10	37.974
433.45	38.251
433.80	37.971
434.16	36.592
434.51	37.158
434.86	37.343
435.22	38.243
435.57	38.845
435.92	37.273
436.28	37.841
436.63	37.583
436.98	36.806
437.34	38.044
437.69	38.681
438.04	37.549
438.39	38.746
438.75	38.640
439.10	37.933
439.45	39.020
439.81	38.369
440.16	37.380
440.51	38.371
440.86	38.332
441.22	37.709
441.57	38.588
441.92	37.462
442.27	38.052
442.63	39.073
442.98	39.324
443.33	36.522
443.68	37.894
444.03	38.799
444.39	37.780
444.74	37.716
445.09	38.437
445.44	39.311
445.79	38.199
446.15	38.380
446.50	38.880
446.85	38.078
447.20	37.583
447.55	38.303
447.91	38.114
448.26	37.451
448.61	38.327
448.96	38.981
449.31	38.808
449.66	38.773
450.02	37.827
450.37	39.002
450.72	38.240
451.07	39.488
451.42	37.690
451.77	38.403
452.12	38.222
452.47	39.801
452.83	38.695
453.18	38.203
453.53	39.889
453.88	37.803
454.23	38.255
454.58	39.188
454.93	40.814
455.28	37.843
455.63	37.682
455.98	39.940
456.34	39.447
456.69	38.760
457.04	39.133
457.39	38.223
457.74	38.770
458.09	38.528
458.44	38.597
458.79	37.256
459.14	38.375
459.49	38.412
459.84	38.227
460.19	37.890
460.54	37.269
460.89	38.234
461.24	38.130
461.59	38.408
461.94	38.779
462.29	38.635
462.64	37.588
462.99	38.321
463.34	38.400
463.69	39.462
464.04	38.957
464.39	38.029
464.74	38.384
465.09	37.696
465.44	37.119
465.79	37.640
466.14	37.001
466.49	37.041
466.84	38.295
467.19	37.357
467.54	37.812
467.89	36.435
468.24	37.755
468.59	38.339
468.94	37.141
469.29	38.946
469.64	39.558
469.99	38.566
470.34	38.177
470.68	40.374
471.03	37.755
471.38	38.985
471.73	38.374
472.08	38.355
472.43	38.065
472.78	37.459
473.13	38.447
473.48	37.703
473.83	37.317
474.17	36.901
474.52	39.454
474.87	38.062
475.22	36.622
475.57	36.325
475.92	36.803
476.27	36.359
476.61	37.176
476.96	36.778
477.31	36.107
477.66	36.926
478.01	36.069
478.36	37.176
478.70	35.877
479.05	36.794
479.40	36.540
479.75	36.706
480.10	35.686
480.45	35.602
480.79	35.308
481.14	36.008
481.49	36.497
481.84	35.391
482.19	35.893
482.53	35.459
482.88	35.365
483.23	35.280
483.58	35.578
483.92	35.989
484.27	34.205
484.62	34.957
484.97	34.608
485.31	34.315
485.66	32.203
486.01	30.914
486.36	29.923
486.70	29.868
487.05	30.807
487.40	32.227
487.75	32.749
488.09	33.060
488.44	32.955
488.79	35.226
489.13	35.065
489.48	35.155
489.83	34.139
490.17	35.292
490.52	34.012
490.87	34.283
491.22	35.198
491.56	33.986
491.91	34.807
492.26	33.992
492.60	34.332
492.95	33.489
493.30	33.598
493.64	33.784
493.99	34.215
494.34	34.366
494.68	34.249
495.03	34.492
495.37	34.295
495.72	34.405
496.07	33.643
496.41	32.920
496.76	33.817
497.11	33.633
497.45	33.256
497.80	33.397
498.14	33.768
498.49	34.341
498.84	34.132
499.18	33.714
499.53	33.048
499.87	33.318
500.22	32.360
500.56	34.320
500.91	33.029
501.26	32.859
501.60	33.887
501.95	32.585
502.29	33.224
502.64	32.961
502.98	33.100
503.33	32.450
503.67	32.947
504.02	32.881
504.36	33.271
504.71	31.900
505.06	32.530
505.40	32.766
505.75	32.787
506.09	32.119
506.44	32.906
506.78	32.538
507.13	33.468
507.47	33.333
507.82	33.181
508.16	32.827
508.51	32.674
508.85	32.373
509.19	32.551
509.54	31.786
509.88	32.097
510.23	32.339
510.57	32.508
510.92	32.677
511.26	32.374
511.61	32.261
511.95	32.724
512.30	31.177
512.64	32.509
512.98	32.476
513.33	32.334
513.67	32.337
514.02	31.872
514.36	32.660
514.70	32.429
515.05	31.790
515.39	31.744
515.74	32.095
516.08	33.482
516.42	32.686
516.77	32.720
517.11	32.242
517.46	33.183
517.80	33.217
518.14	31.558
518.49	32.789
518.83	32.216
519.17	31.409
519.52	31.805
519.86	32.801
520.20	31.618
520.55	33.333
520.89	32.968
521.23	32.871
521.58	31.993
521.92	33.068
522.26	31.544
522.61	32.835
522.95	31.614
523.29	31.163
523.64	32.134
523.98	32.101
524.32	31.846
524.66	31.870
525.01	32.292
525.35	31.103
525.69	31.712
526.04	31.776
526.38	31.910
526.72	31.288
527.06	32.266
527.41	30.507
527.75	32.026
528.09	31.471
528.43	31.485
528.78	30.608
529.12	31.394
529.46	30.557
529.80	31.374
530.15	31.090
530.49	29.785
530.83	31.392
531.17	31.789
531.51	31.258
531.86	30.710
532.20	31.291
532.54	31.454
532.88	30.809
533.22	31.106
533.57	30.432
533.91	30.464
534.25	30.437
534.59	29.652
534.93	28.673
535.27	29.209
535.62	29.853
535.96	29.755
536.30	28.862
536.64	30.522
536.98	30.856
537.32	29.691
537.66	30.333
538.01	29.822
538.35	29.476
538.69	31.398
539.03	29.240
539.37	28.626
539.71	27.933
540.05	29.869
540.39	30.100
540.73	28.913
541.07	29.332
541.42	29.354
541.76	30.000
542.10	30.142
542.44	28.940
542.78	29.249
543.12	27.831
543.46	29.377
543.80	29.408
544.14	28.498
544.48	29.587
544.82	28.608
545.16	28.042
545.50	29.370
545.84	29.368
546.18	28.889
546.52	29.250
546.86	29.141
547.20	29.400
547.54	28.591
547.88	28.827
548.22	28.144
548.56	28.302
548.90	27.209
549.24	26.667
549.58	28.649
549.92	28.984
550.26	28.906
550.60	27.801
550.94	29.507
551.28	27.944
551.62	27.390
551.96	28.351
552.30	28.396
552.64	28.871
552.98	28.746
553.32	27.916
553.66	28.698
554.00	27.865
554.34	28.226
554.68	29.041
555.02	27.715
555.36	28.045
555.69	27.605
556.03	27.725
556.37	27.558
556.71	26.535
557.05	28.221
557.39	28.411
557.73	27.523
558.07	28.354
558.41	27.858
558.75	27.994
559.08	28.188
559.42	28.798
559.76	27.721
560.10	27.266
560.44	26.904
560.78	26.281
561.12	26.913
561.45	27.053
561.79	26.434
562.13	25.956
562.47	26.366
562.81	26.987
563.15	25.753
563.48	25.928
563.82	26.223
564.16	25.376
564.50	25.586
564.84	26.549
565.17	25.740
565.51	27.093
565.85	25.317
566.19	25.360
566.52	25.649
566.86	24.834
567.20	25.531
567.54	25.057
567.88	23.900
568.21	24.550
568.55	23.913
568.89	24.611
569.23	23.485
569.56	22.834
569.90	22.075
570.24	21.851
570.57	21.999
570.91	20.621
571.25	20.939
571.59	20.677
571.92	20.968
572.26	20.422
572.60	21.111
572.93	20.810
573.27	21.118
573.61	20.463
573.95	20.568
574.28	20.276
574.62	20.141
574.96	19.618
575.29	20.102
575.63	19.792
575.97	19.917
576.30	19.809
576.64	19.762
576.98	19.859
577.31	19.501
577.65	19.240
577.98	19.320
578.32	18.606
578.66	19.224
578.99	19.333
579.33	19.196
579.67	18.998
580.00	19.540
580.34	19.435
580.67	19.523
581.01	19.474
581.35	18.981
581.68	18.765
582.02	18.279
582.35	18.716
582.69	18.666
583.02	19.230
583.36	18.953
583.70	19.181
584.03	19.854
584.37	19.789
584.70	19.697
585.04	19.203
585.37	19.571
585.71	19.361
586.04	19.111
586.38	19.488
586.72	20.077
587.05	19.343
587.39	19.156
587.72	19.402
588.06	19.344
588.39	19.698
588.73	19.918
589.06	20.193
589.40	20.067
589.73	20.275
590.07	19.858
590.40	20.205
590.73	21.155
591.07	21.327
591.40	21.088
591.74	21.775
592.07	21.204
592.41	21.000
592.74	19.963
593.08	19.554
593.41	19.930
593.75	19.332
594.08	20.583
594.41	19.583
594.75	19.963
595.08	19.828
595.42	19.930
595.75	19.872
596.09	20.766
596.42	21.061
596.75	20.937
597.09	21.255
597.42	20.236
597.75	20.440
598.09	20.739
598.42	20.790
598.76	19.822
599.09	19.422
599.42	19.614
599.76	19.546
600.09	19.308
600.42	19.175
600.76	19.071
601.09	19.563
601.42	19.444
601.76	19.734
602.09	19.130
602.42	20.860
602.76	20.637
603.09	19.945
603.42	20.070
603.76	19.779
604.09	19.581
604.42	19.731
604.76	20.329
605.09	19.747
605.42	19.880
605.75	20.737
606.09	19.845
606.42	19.534
606.75	20.033
607.09	20.008
607.42	19.897
607.75	19.705
608.08	19.540
608.42	20.843
608.75	20.063
609.08	20.768
609.41	20.228
609.75	20.200
610.08	20.641
610.41	19.739
610.74	20.530
611.07	20.652
611.41	20.805
611.74	22.323
612.07	21.532
612.40	21.144
612.73	20.474
613.07	20.797
613.40	21.959
613.73	20.661
614.06	20.699
614.39	20.923
614.72	20.579
615.06	20.851
615.39	20.435
615.72	19.632
616.05	20.255
616.38	21.901
616.71	21.200
617.05	22.026
617.38	21.648
617.71	22.282
618.04	21.815
618.37	21.703
618.70	21.904
619.03	22.039
619.36	21.792
619.69	23.662
620.03	22.596
620.36	22.727
620.69	22.945
621.02	22.566
621.35	23.727
621.68	23.131
622.01	22.446
622.34	22.844
622.67	22.357
623.00	22.010
623.33	21.873
623.66	22.945
623.99	22.091
624.32	22.682
624.65	22.246
624.99	21.813
625.32	22.303
625.65	21.713
625.98	21.906
626.31	22.784
626.64	23.347
626.97	24.190
627.30	22.943
627.63	23.954
627.96	23.465
628.29	23.535
628.62	24.154
628.95	23.962
629.28	24.088
629.61	25.573
629.94	24.762
630.26	25.262
630.59	23.832
630.92	23.659
631.25	24.383
631.58	25.425
631.91	25.152
632.24	24.789
632.57	26.128
632.90	26.425
633.23	26.734
633.56	27.797
633.89	26.274
634.22	28.036
634.55	27.929
634.88	25.749
635.20	27.121
635.53	26.867
635.86	27.104
636.19	26.118
636.52	25.952
636.85	24.857
637.18	25.000
637.51	24.941
637.83	25.524
638.16	26.598
638.49	26.071
638.82	27.181
639.15	26.500
639.48	28.803
639.81	28.016
640.13	28.516
640.46	26.443
640.79	28.666
641.12	25.860
641.45	27.933
641.77	29.161
642.10	27.339
642.43	26.276
642.76	29.102
643.09	27.914
643.41	28.680
643.74	28.395
644.07	28.354
644.40	30.368
644.73	30.551
645.05	28.843
645.38	28.594
645.71	30.113
646.04	30.399
646.36	31.386
646.69	32.776
647.02	27.721
647.35	30.928
647.67	29.912
648.00	29.756
648.33	30.693
648.66	28.333
648.98	29.085
649.31	27.205
649.64	29.596
649.96	28.316
650.29	29.542
650.62	28.317
650.94	30.146
651.27	32.264
651.60	29.451
651.92	30.351
652.25	28.502
652.58	28.972
652.90	30.332
653.23	28.505
653.56	27.087
653.88	30.428
654.21	28.910
654.54	29.208
654.86	29.128
655.19	24.189
655.52	16.139
655.84	12.134
656.17	15.216
656.49	20.407
656.82	21.244
657.15	16.223
657.47	12.059
657.80	9.712
658.13	10.207
658.45	15.521
658.78	16.011
659.10	17.230
659.43	18.924
659.75	20.009
660.08	22.089
660.41	23.929
660.73	29.225
661.06	27.548
661.38	30.364
661.71	29.615
662.03	32.742
662.36	29.423
662.68	32.329
663.01	30.303
663.33	32.059
663.66	34.454
663.98	33.909
664.31	29.622
664.63	29.555
664.96	30.986
665.28	31.762
665.61	30.994
665.93	29.980
666.26	30.426
666.58	31.172
666.91	32.770
667.23	34.157
667.56	31.533
667.88	32.692
668.21	32.623
668.53	32.972
668.86	32.035
669.18	32.196
669.50	33.696
669.83	34.423
670.15	33.556
670.48	32.898
670.80	35.345
671.13	32.059
671.45	31.064
671.77	31.365
672.10	31.054
672.42	28.092
672.75	28.524
673.07	26.761
673.39	29.656
673.72	26.562
674.04	30.784
674.37	30.874
674.69	30.266
675.01	29.289
675.34	33.060
675.66	34.105
675.98	33.605
676.31	30.882
676.63	31.210
676.95	33.333
677.28	32.944
677.60	31.648
677.92	33.333
678.25	30.801
678.57	31.275
678.89	30.261
679.22	29.273
679.54	29.389
679.86	27.523
680.18	28.444
680.51	28.014
680.83	28.826
681.15	30.189
681.48	31.569
681.80	29.594
682.12	30.268
682.44	25.919
682.77	32.994
683.09	32.618
683.41	31.486
683.73	31.567
684.06	31.198
684.38	30.137
684.70	28.876
685.02	30.582
685.34	26.740
685.67	25.874
685.99	24.570
686.31	26.109
686.63	25.442
686.96	27.857
687.28	28.700
687.60	29.167
687.92	28.154
688.24	30.038
688.56	29.920
688.89	29.668
689.21	31.441
689.53	31.524
689.85	31.264
690.17	30.849
690.49	33.758
690.82	32.243
691.14	29.911
691.46	30.169
691.78	30.120
692.10	27.686
692.42	30.140
692.74	27.178
693.06	30.851
693.39	30.390
693.71	29.913
694.03	28.632
694.35	32.468
694.67	30.435
694.99	32.927
695.31	33.088
695.63	30.144
695.95	31.540
696.27	30.203
696.59	33.161
696.91	33.679
697.23	29.812
697.56	29.851
697.88	27.812
698.20	29.583
698.52	30.538
698.84	29.399
699.16	30.645
699.48	31.116
699.80	33.333
700.12	38.442
700.44	33.687
700.76	35.083
701.08	32.471
701.40	37.151
701.72	37.026
702.04	39.773
702.36	31.445
702.68	34.278
703.00	35.180
703.32	31.383
703.64	32.172
703.96	33.705
704.28	36.919
704.60	31.378
704.91	35.905
705.23	36.657
705.55	34.884
705.87	41.196
706.19	37.102
706.51	35.826
706.83	35.152
707.15	34.454
707.47	30.808
707.79	34.398
708.11	29.909
708.43	31.190
708.74	29.337
709.06	31.169
709.38	32.021
709.70	36.337
710.02	33.531
710.34	33.939
710.66	35.224
710.98	30.682
711.29	34.593
711.61	35.103
711.93	34.936
712.25	35.370
712.57	38.603
712.89	33.564
713.20	34.954
713.52	39.474
713.84	33.861
714.16	37.500
714.48	31.322
714.80	39.818
715.11	34.870
715.43	37.685
715.75	34.493
716.07	30.671
716.39	34.169
716.70	39.203
717.02	38.489
717.34	37.456
717.66	42.910
717.97	43.825
718.29	40.370
718.61	38.686
718.93	38.603
719.24	38.062
719.56	35.254
719.88	36.610
720.20	34.797
720.51	38.328
720.83	41.264
721.15	36.940
721.46	37.589
721.78	39.427
722.10	37.736
722.42	40.602
722.73	39.326
723.05	35.246
723.37	40.081
723.68	39.382
724.00	38.211
724.32	35.484
724.63	35.366
724.95	39.749
725.27	40.486
725.58	41.016
725.90	36.861
726.22	36.226
726.53	35.417
726.85	34.471
727.16	38.434
727.48	36.525
727.80	39.015
728.11	35.507
728.43	35.000
728.74	35.842
729.06	40.876
729.38	43.382
729.69	37.011
730.01	32.082
730.32	34.722
730.64	34.114
730.96	33.003
731.27	36.424
731.59	31.804
731.90	33.236
732.22	29.503
732.53	30.650
732.85	32.051
733.16	34.084
733.48	34.219
733.80	33.117
734.11	36.306
734.43	32.249
734.74	31.143
735.06	30.659
735.37	30.925
735.69	29.936
736.00	36.928
736.32	35.202
736.63	33.227
736.95	33.227
737.26	27.211
737.58	31.935
737.89	36.120
738.21	37.201
738.52	41.071
738.83	35.849
739.15	37.308
739.46	37.591
739.78	34.028
740.09	31.692
740.41	38.387
740.72	32.404
741.04	36.296
741.35	42.083
741.66	45.778
741.98	42.453
742.29	44.019
742.61	45.259
742.92	42.986
743.23	39.316
743.55	39.600
743.86	43.421
744.18	42.478
744.49	45.933
744.80	49.296
745.12	44.091
745.43	45.815
745.74	47.297
746.06	39.908
746.37	45.291
746.68	47.511
747.00	43.519
747.31	43.333
747.62	42.035
747.94	39.207
748.25	34.043
748.56	42.291
748.88	45.050
749.19	44.500
749.50	40.930
749.82	38.211
750.13	37.551
750.44	35.036
750.75	36.491
751.07	36.013
751.38	35.889
751.69	37.906
752.01	35.338
752.32	33.935
752.63	36.879
752.94	37.705
753.26	41.600
753.57	34.959
753.88	41.406
754.19	34.643
754.51	40.625
754.82	30.686
755.13	41.132
755.44	37.594
755.75	35.401
756.07	34.397
756.38	29.927
756.69	34.228
757.00	31.737
757.31	29.970
757.63	30.117
757.94	31.903
758.25	29.412
758.56	26.667
758.87	27.957
759.18	32.424
759.50	31.034
759.81	30.530
760.12	29.062
760.43	30.372
760.74	27.717
761.05	30.226
761.36	29.412
761.67	32.102
761.99	34.472
762.30	31.944
762.61	33.588
762.92	38.672
763.23	35.294
763.54	38.000
763.85	32.031
764.16	40.000
764.47	34.601
764.78	31.095
765.10	28.481
765.41	32.448
765.72	30.240
766.03	31.975
766.34	31.667
766.65	39.574
766.96	39.744
767.27	49.239
767.58	47.917
767.89	50.000
768.20	48.851
768.51	43.655
768.82	44.037
769.13	38.618
769.44	36.437
769.75	36.910
770.06	33.486
770.37	47.059
770.68	40.278
770.99	37.778
771.30	39.344
771.61	39.013
771.92	37.295
772.23	41.176
772.54	49.231
772.85	46.597
773.16	42.553
773.47	48.370
773.78	51.269
774.09	44.048
774.39	52.047
774.70	50.000
775.01	55.797
775.32	57.516
775.63	61.184
775.94	54.676
776.25	61.417
776.56	58.209
776.87	63.934
777.18	51.563
777.48	54.962
777.79	60.606
778.10	64.444
778.41	56.250
778.72	53.285
779.03	51.678
779.34	52.349
779.65	50.000
779.95	47.239
780.26	55.556
780.57	55.172
780.88	59.375
781.19	58.647
781.50	53.378
781.80	51.572
782.11	44.633
782.42	44.937
782.73	48.466
783.04	53.378
783.34	54.930
783.65	54.795
783.96	60.448
784.27	53.846
784.57	51.079
784.88	48.148
785.19	62.698
785.50	51.887
785.81	58.209
786.11	59.836
786.42	64.341
786.73	58.407
787.04	66.981
787.34	58.929
787.65	64.000
787.96	62.162
788.26	59.504
788.57	63.559
788.88	65.289
789.19	56.250
789.49	59.091
789.80	60.305
790.11	73.333
790.41	72.277
790.72	83.133
791.03	71.739
791.33	77.907
791.64	75.258
791.95	80.198
792.25	83.333
792.56	92.208
792.87	91.026
793.17	89.873
793.48	78.161
793.79	81.609
794.09	85.227
794.40	60.504
794.70	61.029
795.01	54.074
795.32	64.029
795.62	64.567
795.93	58.621
796.23	69.912
796.54	78.824
796.85	68.919
797.15	95.775
797.46	106.061
797.76	96.386
798.07	81.013
798.37	100.000
798.68	112.121
798.99	71.831
799.29	90.909
799.60	81.818
799.90	102.740
800.21	107.463
800.51	100.000
800.82	122.807
801.12	113.115
801.43	106.061
801.73	90.541
802.04	93.651
802.34	93.827
802.65	103.125
802.95	116.949
803.26	114.063
803.56	82.857
803.87	106.154
804.17	105.882
804.48	131.481
804.78	106.897
805.09	107.353
805.39	119.231
805.70	121.429
806.00	118.033
806.30	83.333
806.61	103.659
806.91	70.886
807.22	90.789
807.52	86.567
807.83	105.634
808.13	96.875
808.43	115.000
808.74	86.842
809.04	98.551
809.35	119.403
809.65	93.421
809.95	119.355
810.26	103.390
810.56	100.000
810.86	159.091
811.17	145.238
811.47	126.667
811.77	100.000
812.08	120.000
812.38	142.000
812.69	177.778
812.99	140.909
813.29	112.245
813.59	126.190
813.90	134.694
814.20	120.000
814.50	96.923
814.81	110.294
815.11	124.490
815.41	113.115
815.72	159.524
816.02	120.000
816.32	145.238
816.62	145.000
816.93	158.537
817.23	171.429
817.53	125.000
817.84	166.667
818.14	145.652
818.44	135.556
818.74	188.235
819.04	145.000
819.35	160.000
819.65	202.941
819.95	217.857
820.25	270.000
820.56	164.103
820.86	140.909
821.16	146.512
821.46	166.667
821.76	142.000
822.07	165.714
822.37	155.000
822.67	196.970
822.97	135.294
823.27	246.429
823.57	156.757
823.88	187.500
824.18	203.333
824.48	173.810
824.78	236.000
825.08	212.500
825.38	172.973
825.69	143.902
825.99	245.833
826.29	182.759
826.59	178.947
826.89	163.158
827.19	197.059
827.49	222.581
827.79	172.727
828.09	163.636
828.39	121.277
828.70	146.939
829.00	214.815
829.30	154.839
829.60	157.500
829.90	320.000
830.20	217.857
830.50	278.261
830.80	226.087
831.10	206.667
831.40	203.333
831.70	191.304
832.00	234.615
832.30	222.222
832.60	331.250
832.90	223.333
833.20	435.714
833.50	177.419
833.80	231.034
834.10	212.500
834.40	226.923
834.70	327.778
835.00	285.714
835.30	182.857
835.60	323.077
835.90	237.931
836.20	342.857
836.50	200.000
836.80	256.000
837.10	200.000
837.40	276.190
837.70	352.941
838.00	237.037
838.30	304.762
838.60	304.762
838.90	273.077
839.19	305.000
839.49	464.286
839.79	365.000
840.09	285.000
840.39	300.000
840.69	243.478
840.99	333.333
841.29	520.000
841.59	400.000
841.88	343.750
842.18	206.897
842.48	266.667
842.78	223.333
843.08	269.565
843.38	237.500
843.68	1000.000
843.97	269.231
844.27	182.759
844.57	280.952
844.87	368.750
845.17	259.259
845.47	2000.000
845.76	577.778
846.06	300.000
846.36	725.000
846.66	392.857
846.96	381.250
847.25	427.273
847.55	490.909
847.85	304.348
848.15	610.000
848.44	414.286
848.74	288.889
849.04	370.588
849.34	630.000
849.63	300.000
849.93	518.182
850.23	1060.000
850.53	521.429
850.82	2300.000
851.12	-5600.000
851.42	5400.000
851.71	315.000
852.01	-1166.667
852.31	279.167
852.61	1900.000
852.90	290.476
853.20	268.000
853.50	341.176
853.79	271.429
854.09	216.667
854.39	400.000
854.68	178.378
854.98	190.323
855.28	210.000
855.57	231.034
855.87	211.111
856.17	326.316
856.46	360.000
856.76	347.059
857.05	203.448
857.35	229.167
857.65	393.333
857.94	252.174
858.24	257.692
858.53	275.000
858.83	290.909
859.13	406.667
859.42	0.000
859.72	633.333
860.01	481.818
860.31	281.818
860.60	352.632
860.90	252.174
861.20	633.333
861.49	533.333
861.79	-5300.000
862.08	687.500
862.38	361.905
862.67	369.231
862.97	352.941
863.26	611.111
863.56	333.333
863.85	441.667
864.15	762.500
864.44	420.000
864.74	916.667
865.03	812.500
865.33	310.526
865.62	436.364
865.92	400.000
866.21	433.333
866.51	0.000
866.80	563.636
867.10	1260.000
867.39	446.154
867.69	481.818
867.98	294.737
868.27	472.727
868.57	336.842
868.86	-5500.000
869.16	350.000
869.45	2250.000
869.75	-4500.000
870.04	450.000
870.33	842.857
870.63	1375.000
870.92	2850.000
871.22	957.143
871.51	364.706
871.80	276.190
872.10	407.143
>>>>>End Processed Spectral Data<<<<<
