SpectraSuite Data File
++++++++++++++++++++++++++++++++++++
Date: Wed May 13 19:13:33 PDT 2015
User: schluterlab
Dark Spectrum Present: Yes
Reference Spectrum Present: Yes
Number of Sampled Component Spectra: 1
Spectrometers: USB2E3373
Integration Time (usec): 3000 (USB2E3373)
Spectra Averaged: 3 (USB2E3373)
Boxcar Smoothing: 0 (USB2E3373)
Correct for Electrical Dark: No (USB2E3373)
Strobe/Lamp Enabled: No (USB2E3373)
Correct for Detector Non-linearity: No (USB2E3373)
Correct for Stray Light: No (USB2E3373)
Number of Pixels in Processed Spectrum: 2048
>>>>>Begin Processed Spectral Data<<<<<
178.53	0.000
178.91	-1325.000
179.29	-1450.000
179.67	-283.333
180.04	-1350.000
180.42	2350.000
180.80	1260.000
181.18	-1125.000
181.56	814.286
181.94	0.000
182.31	-728.571
182.69	2066.667
183.07	-675.000
183.45	-600.000
183.83	618.182
184.20	-530.000
184.58	3000.000
184.96	5300.000
185.34	-1040.000
185.72	-737.500
186.09	-2850.000
186.47	3250.000
186.85	2600.000
187.23	5200.000
187.61	-1933.333
187.98	1575.000
188.36	609.091
188.74	472.727
189.12	-1120.000
189.49	620.000
189.87	-5100.000
190.25	-1550.000
190.63	492.857
191.00	507.692
191.38	933.333
191.76	-1300.000
192.14	1600.000
192.51	862.500
192.89	1133.333
193.27	600.000
193.65	-1450.000
194.02	600.000
194.40	1120.000
194.78	650.000
195.15	516.667
195.53	740.000
195.91	-2450.000
196.29	368.750
196.66	352.632
197.04	-430.000
197.42	0.000
197.79	650.000
198.17	-4900.000
198.55	914.286
198.92	837.500
199.30	1140.000
199.68	0.000
200.05	338.889
200.43	771.429
200.81	5400.000
201.18	2033.333
201.56	-1700.000
201.94	566.667
202.31	611.111
202.69	441.667
203.07	650.000
203.44	0.000
203.82	1425.000
204.19	842.857
204.57	507.143
204.95	675.000
205.32	1766.667
205.70	572.727
206.08	421.429
206.45	3050.000
206.83	362.500
207.20	1083.333
207.58	1000.000
207.96	344.444
208.33	650.000
208.71	-1000.000
209.08	828.571
209.46	666.667
209.84	518.182
210.21	-1700.000
210.59	1650.000
210.96	-475.000
211.34	2900.000
211.71	690.000
212.09	983.333
212.46	0.000
212.84	1566.667
213.22	1550.000
213.59	-4500.000
213.97	750.000
214.34	914.286
214.72	681.818
215.09	1280.000
215.47	-2700.000
215.84	-2250.000
216.22	1666.667
216.59	450.000
216.97	1250.000
217.34	472.727
217.72	-833.333
218.09	0.000
218.47	-4700.000
218.84	744.444
219.22	757.143
219.59	2233.333
219.97	-757.143
220.34	1240.000
220.72	-1800.000
221.09	421.429
221.47	1550.000
221.84	-916.667
222.22	0.000
222.59	1600.000
222.97	-3150.000
223.34	1160.000
223.72	530.769
224.09	1200.000
224.46	2600.000
224.84	-6600.000
225.21	-1260.000
225.59	-5000.000
225.96	610.000
226.34	335.000
226.71	3600.000
227.08	737.500
227.46	560.000
227.83	-1350.000
228.21	-2550.000
228.58	700.000
228.95	-2800.000
229.33	-2400.000
229.70	1966.667
230.08	857.143
230.45	-1160.000
230.82	550.000
231.20	900.000
231.57	728.571
231.95	616.667
232.32	290.909
232.69	490.909
233.07	785.714
233.44	430.769
233.81	-2033.333
234.19	300.000
234.56	525.000
234.93	475.000
235.31	527.273
235.68	438.462
236.05	414.286
236.43	203.030
236.80	357.895
237.17	6100.000
237.55	290.476
237.92	253.571
238.29	266.667
238.67	212.903
239.04	289.655
239.41	200.000
239.79	152.174
240.16	176.190
240.53	165.909
240.91	119.608
241.28	140.000
241.65	156.000
242.02	124.638
242.40	135.484
242.77	133.333
243.14	110.753
243.51	111.236
243.89	115.294
244.26	100.000
244.63	108.602
245.00	95.745
245.38	97.030
245.75	98.131
246.12	88.073
246.49	97.080
246.87	94.400
247.24	91.538
247.61	83.571
247.98	78.431
248.36	80.405
248.73	79.618
249.10	84.713
249.47	75.706
249.84	78.610
250.22	73.262
250.59	71.598
250.96	67.677
251.33	75.355
251.70	73.762
252.08	67.619
252.45	65.471
252.82	68.696
253.19	69.787
253.56	66.667
253.94	70.124
254.31	64.453
254.68	66.923
255.05	63.100
255.42	66.667
255.79	64.338
256.16	68.231
256.54	60.777
256.91	64.413
257.28	59.712
257.65	62.376
258.02	60.559
258.39	60.568
258.76	60.535
259.14	60.417
259.51	58.359
259.88	60.248
260.25	59.517
260.62	59.538
260.99	57.453
261.36	60.360
261.73	57.880
262.10	60.465
262.47	62.254
262.85	58.496
263.22	55.271
263.59	60.114
263.96	57.692
264.33	57.180
264.70	57.895
265.07	59.847
265.44	55.808
265.81	52.068
266.18	55.528
266.55	56.341
266.92	57.248
267.29	56.250
267.66	54.358
268.03	54.318
268.40	57.243
268.77	52.029
269.14	55.631
269.51	53.950
269.88	56.643
270.25	53.047
270.62	53.483
270.99	56.344
271.36	52.361
271.73	56.308
272.10	54.348
272.47	52.043
272.84	52.597
273.21	52.201
273.58	51.747
273.95	51.153
274.32	50.620
274.69	53.961
275.06	52.756
275.43	55.745
275.80	51.904
276.17	51.120
276.54	54.470
276.91	53.953
277.28	51.367
277.65	51.644
278.02	53.002
278.39	51.562
278.76	50.364
279.13	47.925
279.50	50.466
279.87	52.988
280.23	51.697
280.60	51.451
280.97	49.908
281.34	51.504
281.71	51.091
282.08	51.823
282.45	50.545
282.82	49.023
283.19	47.415
283.56	47.544
283.92	50.085
284.29	49.559
284.66	49.002
285.03	48.644
285.40	48.239
285.77	48.822
286.14	48.532
286.51	46.833
286.87	45.470
287.24	45.440
287.61	45.907
287.98	45.130
288.35	46.434
288.72	46.573
289.08	45.696
289.45	45.140
289.82	45.366
290.19	42.386
290.56	44.104
290.93	41.390
291.29	43.865
291.66	40.855
292.03	43.314
292.40	43.759
292.77	41.864
293.13	41.940
293.50	42.420
293.87	41.630
294.24	39.704
294.60	39.738
294.97	39.680
295.34	40.197
295.71	42.330
296.08	41.168
296.44	40.990
296.81	38.177
297.18	40.515
297.55	36.939
297.91	35.884
298.28	40.830
298.65	40.078
299.02	38.735
299.38	37.317
299.75	37.062
300.12	37.420
300.48	36.000
300.85	35.142
301.22	37.452
301.59	35.480
301.95	35.894
302.32	36.714
302.69	35.006
303.05	34.667
303.42	36.173
303.79	35.447
304.15	35.548
304.52	32.677
304.89	35.192
305.25	33.179
305.62	34.428
305.99	35.655
306.35	34.676
306.72	35.090
307.09	34.739
307.45	36.486
307.82	32.924
308.19	34.879
308.55	34.196
308.92	34.264
309.29	31.362
309.65	32.662
310.02	32.664
310.38	34.086
310.75	33.685
311.12	33.572
311.48	32.079
311.85	32.914
312.22	31.426
312.58	33.160
312.95	31.573
313.31	30.971
313.68	33.264
314.05	33.826
314.41	32.965
314.78	31.621
315.14	32.473
315.51	32.750
315.87	32.475
316.24	31.182
316.61	30.312
316.97	30.724
317.34	30.528
317.70	32.792
318.07	32.435
318.43	31.703
318.80	31.771
319.16	31.638
319.53	30.863
319.89	31.524
320.26	31.600
320.62	30.853
320.99	31.414
321.35	30.505
321.72	32.033
322.08	32.577
322.45	32.537
322.81	31.880
323.18	32.177
323.54	31.911
323.91	31.887
324.27	29.637
324.64	28.984
325.00	30.027
325.37	30.937
325.73	31.508
326.10	30.009
326.46	29.659
326.83	30.112
327.19	28.352
327.56	30.401
327.92	31.059
328.29	30.612
328.65	30.663
329.01	31.137
329.38	29.880
329.74	30.656
330.11	30.066
330.47	30.487
330.84	31.893
331.20	29.872
331.56	30.000
331.93	30.000
332.29	29.902
332.66	30.885
333.02	29.068
333.38	29.991
333.75	30.125
334.11	29.004
334.48	30.257
334.84	29.596
335.20	29.909
335.57	29.918
335.93	28.929
336.29	29.670
336.66	29.757
337.02	28.778
337.38	30.278
337.75	28.877
338.11	28.827
338.47	30.018
338.84	30.156
339.20	29.083
339.56	30.566
339.93	29.727
340.29	28.714
340.65	30.214
341.02	30.105
341.38	30.783
341.74	29.035
342.11	29.869
342.47	29.427
342.83	28.938
343.20	29.524
343.56	29.486
343.92	28.860
344.28	29.422
344.65	30.095
345.01	28.872
345.37	27.444
345.73	30.034
346.10	28.730
346.46	28.390
346.82	27.348
347.19	27.736
347.55	26.519
347.91	27.589
348.27	29.170
348.63	28.261
349.00	27.913
349.36	28.325
349.72	29.110
350.08	27.796
350.45	28.560
350.81	28.107
351.17	28.687
351.53	27.518
351.89	27.393
352.26	27.861
352.62	28.949
352.98	27.391
353.34	28.266
353.70	26.923
354.07	28.548
354.43	27.937
354.79	26.629
355.15	27.773
355.51	28.058
355.87	28.408
356.24	27.769
356.60	27.506
356.96	27.273
357.32	27.065
357.68	27.244
358.04	27.158
358.40	28.345
358.77	27.387
359.13	26.677
359.49	27.294
359.85	25.635
360.21	26.396
360.57	27.393
360.93	28.385
361.29	26.909
361.66	26.316
362.02	27.612
362.38	26.388
362.74	25.893
363.10	26.425
363.46	26.266
363.82	26.153
364.18	25.404
364.54	26.895
364.90	26.912
365.26	25.294
365.62	27.027
365.98	25.274
366.35	25.143
366.71	26.537
367.07	25.564
367.43	27.068
367.79	26.410
368.15	26.365
368.51	26.163
368.87	26.695
369.23	26.554
369.59	25.923
369.95	25.368
370.31	25.285
370.67	25.870
371.03	26.217
371.39	26.239
371.75	26.250
372.11	26.600
372.47	26.393
372.83	26.153
373.19	25.434
373.55	26.829
373.91	26.362
374.27	24.811
374.63	25.964
374.99	26.271
375.35	25.122
375.71	25.428
376.07	25.446
376.42	26.547
376.78	26.044
377.14	26.119
377.50	25.695
377.86	24.668
378.22	25.221
378.58	24.248
378.94	24.639
379.30	23.919
379.66	24.810
380.02	24.693
380.38	24.529
380.74	26.110
381.09	25.000
381.45	25.630
381.81	25.491
382.17	24.395
382.53	24.843
382.89	25.000
383.25	24.203
383.61	25.341
383.97	25.078
384.32	24.953
384.68	24.783
385.04	24.339
385.40	24.087
385.76	24.140
386.12	24.806
386.48	24.858
386.83	24.567
387.19	24.985
387.55	24.985
387.91	23.821
388.27	24.770
388.62	24.770
388.98	24.079
389.34	24.969
389.70	24.647
390.06	25.729
390.42	24.384
390.77	24.618
391.13	24.186
391.49	24.429
391.85	24.825
392.20	23.912
392.56	23.548
392.92	23.720
393.28	23.550
393.64	24.880
393.99	24.374
394.35	24.380
394.71	24.279
395.07	23.738
395.42	24.598
395.78	24.746
396.14	24.829
396.50	24.875
396.85	25.429
397.21	23.736
397.57	24.241
397.92	23.978
398.28	22.926
398.64	24.313
399.00	24.342
399.35	23.801
399.71	23.785
400.07	24.246
400.42	25.031
400.78	24.246
401.14	23.598
401.49	24.119
401.85	23.109
402.21	23.892
402.57	23.442
402.92	23.392
403.28	24.047
403.63	24.010
403.99	24.268
404.35	24.061
404.70	23.681
405.06	23.180
405.42	23.830
405.77	23.314
406.13	23.025
406.49	24.364
406.84	23.686
407.20	23.759
407.55	23.803
407.91	24.133
408.27	23.676
408.62	24.022
408.98	24.326
409.34	23.985
409.69	24.774
410.05	24.349
410.40	23.853
410.76	23.178
411.11	23.522
411.47	24.473
411.83	23.335
412.18	23.129
412.54	23.661
412.89	23.373
413.25	23.259
413.60	24.583
413.96	24.044
414.31	23.572
414.67	24.398
415.03	23.377
415.38	24.162
415.74	23.601
416.09	24.494
416.45	24.029
416.80	23.860
417.16	24.933
417.51	24.419
417.87	24.149
418.22	23.722
418.58	24.015
418.93	24.324
419.29	23.616
419.64	24.055
420.00	23.598
420.35	24.464
420.71	24.148
421.06	23.747
421.42	23.977
421.77	24.439
422.12	22.684
422.48	22.828
422.83	23.995
423.19	23.425
423.54	23.970
423.90	23.304
424.25	23.674
424.61	23.095
424.96	23.965
425.31	23.643
425.67	22.921
426.02	23.086
426.38	24.359
426.73	22.937
427.09	23.526
427.44	23.807
427.79	23.404
428.15	24.167
428.50	23.581
428.85	24.076
429.21	23.136
429.56	23.276
429.92	22.446
430.27	23.039
430.62	22.376
430.98	23.819
431.33	23.041
431.68	23.979
432.04	23.482
432.39	23.073
432.74	24.177
433.10	23.713
433.45	23.207
433.80	22.727
434.16	23.024
434.51	23.000
434.86	23.603
435.22	22.846
435.57	23.283
435.92	23.288
436.28	23.428
436.63	24.062
436.98	23.755
437.34	24.031
437.69	24.446
438.04	23.553
438.39	23.642
438.75	23.300
439.10	23.184
439.45	24.085
439.81	24.048
440.16	23.715
440.51	24.253
440.86	23.509
441.22	22.970
441.57	23.355
441.92	23.030
442.27	23.305
442.63	22.907
442.98	23.718
443.33	23.098
443.68	22.974
444.03	22.938
444.39	23.126
444.74	23.052
445.09	23.073
445.44	22.909
445.79	23.701
446.15	23.081
446.50	23.209
446.85	23.176
447.20	22.947
447.55	23.618
447.91	23.442
448.26	23.372
448.61	23.573
448.96	23.865
449.31	23.735
449.66	23.635
450.02	23.120
450.37	23.526
450.72	23.068
451.07	23.035
451.42	23.100
451.77	23.958
452.12	23.037
452.47	24.005
452.83	23.019
453.18	23.166
453.53	25.294
453.88	22.623
454.23	23.311
454.58	23.380
454.93	25.111
455.28	23.317
455.63	24.029
455.98	24.643
456.34	23.555
456.69	23.669
457.04	23.467
457.39	23.787
457.74	23.331
458.09	23.174
458.44	22.919
458.79	22.343
459.14	23.871
459.49	23.176
459.84	23.989
460.19	22.510
460.54	23.264
460.89	24.191
461.24	23.679
461.59	24.114
461.94	24.229
462.29	24.214
462.64	24.186
462.99	23.422
463.34	24.733
463.69	24.265
464.04	23.942
464.39	23.362
464.74	23.827
465.09	24.367
465.44	22.881
465.79	22.931
466.14	23.645
466.49	23.582
466.84	24.343
467.19	23.838
467.54	24.000
467.89	23.589
468.24	23.618
468.59	23.932
468.94	23.091
469.29	23.907
469.64	23.896
469.99	25.304
470.34	24.306
470.68	23.779
471.03	23.741
471.38	25.226
471.73	24.517
472.08	24.211
472.43	23.807
472.78	24.029
473.13	24.840
473.48	24.282
473.83	25.000
474.17	24.207
474.52	23.945
474.87	24.343
475.22	23.854
475.57	22.676
475.92	21.933
476.27	23.168
476.61	23.773
476.96	24.134
477.31	22.920
477.66	23.523
478.01	22.635
478.36	23.744
478.70	23.780
479.05	23.855
479.40	23.490
479.75	23.081
480.10	22.614
480.45	22.703
480.79	22.551
481.14	22.798
481.49	23.398
481.84	21.948
482.19	23.035
482.53	23.532
482.88	23.127
483.23	22.710
483.58	22.702
483.92	23.899
484.27	21.961
484.62	22.543
484.97	22.192
485.31	22.192
485.66	20.305
486.01	19.584
486.36	19.401
486.70	19.967
487.05	20.275
487.40	21.323
487.75	22.043
488.09	23.173
488.44	23.249
488.79	24.485
489.13	24.064
489.48	23.613
489.83	23.306
490.17	23.542
490.52	23.472
490.87	23.293
491.22	23.374
491.56	22.005
491.91	22.150
492.26	22.278
492.60	22.765
492.95	22.919
493.30	22.757
493.64	22.678
493.99	22.145
494.34	22.248
494.68	22.985
495.03	23.543
495.37	22.569
495.72	22.320
496.07	23.109
496.41	22.168
496.76	23.307
497.11	23.233
497.45	23.381
497.80	23.081
498.14	22.802
498.49	23.024
498.84	23.202
499.18	22.762
499.53	22.555
499.87	22.833
500.22	23.033
500.56	23.447
500.91	22.644
501.26	23.471
501.60	23.730
501.95	22.319
502.29	23.618
502.64	23.277
502.98	22.955
503.33	22.532
503.67	23.109
504.02	23.059
504.36	22.976
504.71	23.400
505.06	22.410
505.40	23.043
505.75	23.047
506.09	22.595
506.44	23.187
506.78	23.234
507.13	23.372
507.47	23.788
507.82	23.252
508.16	23.455
508.51	23.338
508.85	22.939
509.19	23.571
509.54	23.878
509.88	22.669
510.23	22.931
510.57	24.149
510.92	22.941
511.26	23.176
511.61	23.755
511.95	22.390
512.30	22.216
512.64	23.482
512.98	23.526
513.33	23.555
513.67	22.785
514.02	23.377
514.36	23.921
514.70	23.852
515.05	23.480
515.39	24.509
515.74	23.649
516.08	23.700
516.42	23.751
516.77	24.136
517.11	23.973
517.46	24.153
517.80	23.868
518.14	23.162
518.49	24.212
518.83	24.205
519.17	24.018
519.52	23.826
519.86	24.073
520.20	24.335
520.55	25.015
520.89	25.182
521.23	24.910
521.58	23.950
521.92	24.311
522.26	22.697
522.61	24.361
522.95	24.125
523.29	23.981
523.64	24.268
523.98	23.660
524.32	24.186
524.66	23.572
525.01	23.468
525.35	23.916
525.69	24.323
526.04	24.361
526.38	23.551
526.72	24.233
527.06	24.670
527.41	23.391
527.75	24.309
528.09	24.599
528.43	25.048
528.78	24.155
529.12	22.909
529.46	24.495
529.80	24.938
530.15	24.424
530.49	23.446
530.83	25.127
531.17	24.608
531.51	24.773
531.86	24.258
532.20	24.837
532.54	25.240
532.88	24.904
533.22	24.047
533.57	23.272
533.91	23.600
534.25	23.086
534.59	25.076
534.93	23.795
535.27	24.140
535.62	23.748
535.96	25.612
536.30	24.539
536.64	25.113
536.98	24.287
537.32	24.490
537.66	24.400
538.01	25.082
538.35	24.887
538.69	25.144
539.03	24.042
539.37	23.578
539.71	23.202
540.05	23.922
540.39	24.651
540.73	23.545
541.07	25.438
541.42	24.462
541.76	25.032
542.10	24.127
542.44	24.371
542.78	25.231
543.12	24.056
543.46	24.590
543.80	24.073
544.14	23.556
544.48	25.270
544.82	23.605
545.16	25.114
545.50	23.201
545.84	24.126
546.18	24.916
546.52	25.602
546.86	25.017
547.20	25.489
547.54	25.184
547.88	24.809
548.22	24.720
548.56	24.654
548.90	23.752
549.24	24.512
549.58	24.966
549.92	25.412
550.26	25.284
550.60	25.173
550.94	25.282
551.28	24.287
551.62	24.012
551.96	24.702
552.30	25.119
552.64	24.882
552.98	24.610
553.32	24.275
553.66	25.426
554.00	24.640
554.34	24.845
554.68	26.252
555.02	25.176
555.36	25.191
555.69	26.049
556.03	24.630
556.37	25.034
556.71	25.784
557.05	25.210
557.39	24.913
557.73	25.053
558.07	25.816
558.41	24.819
558.75	25.129
559.08	25.503
559.42	25.775
559.76	25.441
560.10	24.054
560.44	24.458
560.78	23.819
561.12	24.274
561.45	24.772
561.79	24.918
562.13	25.620
562.47	24.863
562.81	24.895
563.15	24.816
563.48	23.873
563.82	24.331
564.16	23.806
564.50	24.089
564.84	23.704
565.17	23.810
565.51	24.089
565.85	24.683
566.19	24.170
566.52	25.016
566.86	24.051
567.20	23.998
567.54	23.516
567.88	23.303
568.21	23.016
568.55	23.104
568.89	22.228
569.23	22.326
569.56	21.822
569.90	21.925
570.24	21.600
570.57	21.421
570.91	21.558
571.25	21.062
571.59	20.972
571.92	21.025
572.26	21.057
572.60	21.742
572.93	22.159
573.27	21.503
573.61	21.329
573.95	21.240
574.28	21.231
574.62	20.627
574.96	20.669
575.29	20.805
575.63	21.443
575.97	21.557
576.30	21.136
576.64	21.051
576.98	20.953
577.31	21.049
577.65	20.673
577.98	20.185
578.32	20.036
578.66	20.734
578.99	21.319
579.33	21.012
579.67	21.430
580.00	21.242
580.34	21.144
580.67	21.390
581.01	21.767
581.35	21.006
581.68	20.365
582.02	20.045
582.35	20.416
582.69	20.675
583.02	20.820
583.36	21.605
583.70	22.053
584.03	22.362
584.37	22.292
584.70	21.708
585.04	21.624
585.37	21.156
585.71	21.570
586.04	21.020
586.38	21.317
586.72	21.872
587.05	21.163
587.39	20.712
587.72	21.103
588.06	21.505
588.39	22.030
588.73	21.443
589.06	22.156
589.40	22.727
589.73	22.598
590.07	22.384
590.40	22.178
590.73	22.912
591.07	22.914
591.40	22.944
591.74	23.593
592.07	22.949
592.41	22.282
592.74	21.610
593.08	20.953
593.41	21.544
593.75	21.299
594.08	22.159
594.41	22.022
594.75	21.848
595.08	22.727
595.42	22.382
595.75	22.329
596.09	23.019
596.42	23.065
596.75	23.005
597.09	23.593
597.42	22.175
597.75	23.846
598.09	22.391
598.42	22.723
598.76	22.456
599.09	21.665
599.42	21.434
599.76	21.852
600.09	21.202
600.42	21.877
600.76	21.750
601.09	21.967
601.42	22.070
601.76	22.353
602.09	22.372
602.42	22.492
602.76	22.773
603.09	22.738
603.42	22.179
603.76	21.951
604.09	21.946
604.42	22.381
604.76	23.113
605.09	22.805
605.42	22.103
605.75	22.351
606.09	22.204
606.42	22.068
606.75	23.227
607.09	22.938
607.42	22.465
607.75	21.899
608.08	22.015
608.42	22.994
608.75	23.264
609.08	22.525
609.41	22.703
609.75	22.249
610.08	23.610
610.41	22.858
610.74	23.226
611.07	23.172
611.41	22.964
611.74	24.334
612.07	23.602
612.40	24.082
612.73	23.632
613.07	23.922
613.40	22.591
613.73	22.391
614.06	23.118
614.39	23.125
614.72	23.263
615.06	23.004
615.39	22.718
615.72	23.057
616.05	23.445
616.38	23.735
616.71	23.931
617.05	23.616
617.38	22.850
617.71	23.784
618.04	23.798
618.37	23.418
618.70	24.642
619.03	25.395
619.36	24.915
619.69	24.859
620.03	25.343
620.36	24.198
620.69	25.753
621.02	25.000
621.35	25.215
621.68	24.922
622.01	25.000
622.34	24.962
622.67	25.475
623.00	22.817
623.33	24.232
623.66	24.232
623.99	24.080
624.32	23.680
624.65	24.506
624.99	23.371
625.32	24.837
625.65	25.470
625.98	24.904
626.31	25.194
626.64	26.204
626.97	26.101
627.30	25.021
627.63	26.169
627.96	26.072
628.29	25.722
628.62	28.362
628.95	27.547
629.28	25.821
629.61	26.489
629.94	26.000
630.26	26.883
630.59	26.120
630.92	25.670
631.25	26.160
631.58	26.026
631.91	26.876
632.24	26.160
632.57	27.492
632.90	28.289
633.23	27.405
633.56	28.249
633.89	27.860
634.22	26.901
634.55	28.402
634.88	26.108
635.20	27.838
635.53	28.916
635.86	27.970
636.19	27.882
636.52	27.336
636.85	26.231
637.18	25.576
637.51	27.778
637.83	26.264
638.16	28.772
638.49	27.708
638.82	26.675
639.15	29.500
639.48	31.297
639.81	30.563
640.13	28.646
640.46	29.530
640.79	26.552
641.12	29.986
641.45	27.933
641.77	29.750
642.10	28.216
642.43	27.778
642.76	28.947
643.09	30.061
643.41	28.680
643.74	29.321
644.07	29.116
644.40	29.294
644.73	30.551
645.05	31.062
645.38	29.542
645.71	28.502
646.04	31.894
646.36	31.886
646.69	29.431
647.02	31.463
647.35	29.553
647.67	30.088
648.00	30.569
648.33	29.208
648.66	29.545
648.98	31.484
649.31	27.803
649.64	28.999
649.96	28.763
650.29	30.332
650.62	29.450
650.94	31.280
651.27	31.250
651.60	30.283
651.92	30.511
652.25	29.316
652.58	29.907
652.90	28.752
653.23	27.581
653.56	29.606
653.88	29.319
654.21	28.752
654.54	29.043
654.86	29.595
655.19	26.351
655.52	18.470
655.84	14.584
656.17	19.139
656.49	27.196
656.82	29.749
657.15	24.127
657.47	18.627
657.80	14.641
658.13	15.833
658.45	24.297
658.78	25.236
659.10	26.982
659.43	28.285
659.75	29.343
660.08	31.329
660.41	33.706
660.73	33.291
661.06	31.847
661.38	33.818
661.71	32.885
662.03	33.728
662.36	30.616
662.68	31.928
663.01	31.717
663.33	32.484
663.66	32.563
663.98	33.909
664.31	31.092
664.63	29.555
664.96	31.187
665.28	31.557
665.61	31.384
665.93	32.998
666.26	31.237
666.58	30.335
666.91	33.827
667.23	36.180
667.56	31.965
667.88	33.547
668.21	36.247
668.53	30.803
668.86	32.035
669.18	33.475
669.50	34.565
669.83	35.294
670.15	31.778
670.48	32.026
670.80	33.405
671.13	32.909
671.45	32.766
671.77	32.587
672.10	30.314
672.42	28.799
672.75	28.856
673.07	29.754
673.39	29.476
673.72	30.469
674.04	33.137
674.37	31.650
674.69	30.675
675.01	30.753
675.34	32.444
675.66	36.000
675.98	34.216
676.31	31.723
676.63	33.758
676.95	32.285
677.28	31.075
677.60	34.505
677.92	33.544
678.25	33.265
678.57	32.072
678.89	29.459
679.22	33.006
679.54	31.489
679.86	34.128
680.18	31.843
680.51	34.397
680.83	29.004
681.15	30.189
681.48	31.002
681.80	31.141
682.12	31.801
682.44	28.240
682.77	35.642
683.09	34.549
683.41	31.486
683.73	34.879
684.06	33.884
684.38	30.724
684.70	31.589
685.02	30.769
685.34	30.586
685.67	30.070
685.99	28.694
686.31	28.498
686.63	26.678
686.96	30.179
687.28	31.047
687.60	28.623
687.92	32.907
688.24	31.179
688.56	33.936
688.89	33.195
689.21	36.681
689.53	31.524
689.85	35.698
690.17	28.986
690.49	33.758
690.82	34.813
691.14	33.705
691.46	31.013
691.78	29.518
692.10	33.264
692.42	32.535
692.74	29.461
693.06	32.553
693.39	31.622
693.71	31.659
694.03	33.684
694.35	30.952
694.67	34.325
694.99	36.341
695.31	32.353
695.63	31.818
695.95	34.230
696.27	30.203
696.59	35.233
696.91	34.715
697.23	28.169
697.56	33.689
697.88	30.266
698.20	28.958
698.52	31.613
698.84	33.185
699.16	30.184
699.48	33.729
699.80	34.300
700.12	38.701
700.44	35.544
700.76	37.845
701.08	37.356
701.40	35.475
701.72	36.443
702.04	42.045
702.36	31.728
702.68	33.994
703.00	35.180
703.32	32.181
703.64	31.903
703.96	34.262
704.28	35.465
704.60	35.484
704.91	34.125
705.23	36.070
705.55	42.525
705.87	42.193
706.19	38.869
706.51	36.760
706.83	39.394
707.15	36.415
707.47	33.838
707.79	34.152
708.11	30.594
708.43	33.095
708.74	31.888
709.06	36.104
709.38	37.008
709.70	36.047
710.02	35.905
710.34	33.333
710.66	38.209
710.98	34.659
711.29	34.302
711.61	38.643
711.93	32.372
712.25	37.621
712.57	40.074
712.89	37.716
713.20	36.778
713.52	38.487
713.84	37.658
714.16	38.110
714.48	32.759
714.80	37.994
715.11	34.582
715.43	33.234
715.75	31.014
716.07	36.102
716.39	36.050
716.70	38.870
717.02	39.928
717.34	40.283
717.66	42.537
717.97	42.231
718.29	40.370
718.61	40.146
718.93	39.338
719.24	37.716
719.56	39.322
719.88	35.932
720.20	36.486
720.51	39.721
720.83	42.379
721.15	36.567
721.46	37.943
721.78	41.935
722.10	38.868
722.42	42.857
722.73	43.446
723.05	39.754
723.37	38.866
723.68	41.313
724.00	37.805
724.32	43.548
724.63	39.431
724.95	40.586
725.27	38.462
725.58	39.062
725.90	42.336
726.22	42.642
726.53	40.972
726.85	39.590
727.16	42.705
727.48	37.943
727.80	38.636
728.11	39.130
728.43	37.692
728.74	38.351
729.06	43.066
729.38	41.912
729.69	41.637
730.01	36.519
730.32	37.500
730.64	38.796
730.96	36.304
731.27	42.384
731.59	36.086
731.90	36.152
732.22	38.820
732.53	32.198
732.85	36.859
733.16	36.334
733.48	35.880
733.80	34.740
734.11	37.898
734.43	36.391
734.74	33.714
735.06	34.097
735.37	36.416
735.69	35.987
736.00	36.601
736.32	38.629
736.63	37.700
736.95	36.102
737.26	33.673
737.58	36.452
737.89	35.452
738.21	38.908
738.52	38.929
738.83	37.358
739.15	38.077
739.46	39.416
739.78	34.722
740.09	34.154
740.41	35.484
740.72	39.373
741.04	40.000
741.35	37.083
741.66	43.111
741.98	41.038
742.29	45.455
742.61	44.397
742.92	38.009
743.23	45.299
743.55	43.200
743.86	42.105
744.18	45.133
744.49	44.498
744.80	46.948
745.12	41.364
745.43	42.731
745.74	48.198
746.06	36.697
746.37	44.395
746.68	39.367
747.00	44.444
747.31	49.048
747.62	38.938
747.94	40.969
748.25	37.021
748.56	40.969
748.88	37.624
749.19	47.000
749.50	47.442
749.82	37.805
750.13	40.000
750.44	38.321
750.75	37.895
751.07	38.585
751.38	40.418
751.69	36.823
752.01	42.481
752.32	35.379
752.63	38.298
752.94	39.754
753.26	44.400
753.57	38.618
753.88	40.234
754.19	35.000
754.51	39.583
754.82	31.769
755.13	43.019
755.44	37.218
755.75	36.861
756.07	34.752
756.38	34.307
756.69	35.906
757.00	31.737
757.31	34.421
757.63	31.579
757.94	29.759
758.25	31.618
758.56	31.111
758.87	33.602
759.18	34.242
759.50	36.050
759.81	32.710
760.12	33.437
760.43	35.530
760.74	31.250
761.05	31.356
761.36	30.481
761.67	33.239
761.99	34.783
762.30	35.417
762.61	37.786
762.92	40.625
763.23	42.857
763.54	42.000
763.85	34.375
764.16	41.923
764.47	42.586
764.78	36.042
765.10	32.911
765.41	35.103
765.72	35.928
766.03	33.229
766.34	37.333
766.65	41.702
766.96	39.316
767.27	48.223
767.58	47.917
767.89	49.474
768.20	54.598
768.51	48.223
768.82	45.413
769.13	37.805
769.44	39.271
769.75	39.485
770.06	37.156
770.37	46.154
770.68	42.593
770.99	39.111
771.30	38.115
771.61	39.910
771.92	41.393
772.23	46.218
772.54	47.179
772.85	49.215
773.16	48.404
773.47	51.630
773.78	49.746
774.09	51.786
774.39	50.292
774.70	51.235
775.01	60.870
775.32	58.824
775.63	52.632
775.94	54.676
776.25	71.654
776.56	61.194
776.87	59.016
777.18	57.812
777.48	64.885
777.79	62.121
778.10	58.519
778.41	72.321
778.72	56.934
779.03	53.691
779.34	54.362
779.65	53.378
779.95	50.307
780.26	54.248
780.57	59.310
780.88	67.188
781.19	57.143
781.50	56.757
781.80	57.233
782.11	51.412
782.42	51.266
782.73	43.558
783.04	52.703
783.34	59.859
783.65	61.644
783.96	59.701
784.27	55.944
784.57	46.763
784.88	63.889
785.19	65.079
785.50	71.698
785.81	61.940
786.11	74.590
786.42	62.016
786.73	60.177
787.04	65.094
787.34	68.750
787.65	70.000
787.96	64.865
788.26	60.331
788.57	67.797
788.88	64.463
789.19	61.111
789.49	60.606
789.80	61.832
790.11	71.429
790.41	79.208
790.72	80.723
791.03	75.000
791.33	81.395
791.64	75.258
791.95	77.228
792.25	78.889
792.56	93.506
792.87	94.872
793.17	92.405
793.48	82.759
793.79	83.908
794.09	80.682
794.40	64.706
794.70	68.382
795.01	54.815
795.32	62.590
795.62	66.142
795.93	66.379
796.23	66.372
796.54	70.588
796.85	91.892
797.15	107.042
797.46	84.848
797.76	91.566
798.07	68.354
798.37	98.462
798.68	81.818
798.99	66.197
799.29	97.403
799.60	86.364
799.90	82.192
800.21	105.970
800.51	101.724
800.82	119.298
801.12	106.557
801.43	109.091
801.73	104.054
802.04	103.175
802.34	96.296
802.65	110.938
802.95	118.644
803.26	123.438
803.56	78.571
803.87	112.308
804.17	110.294
804.48	142.593
804.78	96.552
805.09	102.941
805.39	109.615
805.70	112.500
806.00	106.557
806.30	90.909
806.61	82.927
806.91	83.544
807.22	93.421
807.52	91.045
807.83	101.408
808.13	120.313
808.43	100.000
808.74	82.895
809.04	98.551
809.35	104.478
809.65	88.158
809.95	125.806
810.26	106.780
810.56	101.587
810.86	143.182
811.17	150.000
811.47	115.000
811.77	101.852
812.08	140.000
812.38	134.000
812.69	158.333
812.99	170.455
813.29	128.571
813.59	104.762
813.90	130.612
814.20	116.364
814.50	104.615
814.81	110.294
815.11	138.776
815.41	109.836
815.72	154.762
816.02	132.727
816.32	157.143
816.62	147.500
816.93	131.707
817.23	161.905
817.53	145.455
817.84	190.909
818.14	147.826
818.44	128.889
818.74	170.588
819.04	162.500
819.35	165.714
819.65	188.235
819.95	196.429
820.25	235.000
820.56	187.179
820.86	159.091
821.16	155.814
821.46	148.718
821.76	150.000
822.07	185.714
822.37	190.000
822.67	169.697
822.97	123.529
823.27	185.714
823.57	167.568
823.88	157.500
824.18	203.333
824.48	161.905
824.78	236.000
825.08	208.333
825.38	170.270
825.69	153.659
825.99	250.000
826.29	186.207
826.59	168.421
826.89	173.684
827.19	191.176
827.49	222.581
827.79	161.364
828.09	170.455
828.39	117.021
828.70	165.306
829.00	214.815
829.30	190.323
829.60	140.000
829.90	320.000
830.20	210.714
830.50	208.696
830.80	252.174
831.10	203.333
831.40	203.333
831.70	200.000
832.00	257.692
832.30	244.444
832.60	275.000
832.90	243.333
833.20	435.714
833.50	232.258
833.80	206.897
834.10	215.625
834.40	242.308
834.70	316.667
835.00	347.619
835.30	160.000
835.60	400.000
835.90	220.690
836.20	328.571
836.50	213.793
836.80	188.000
837.10	208.333
837.40	285.714
837.70	382.353
838.00	244.444
838.30	247.619
838.60	309.524
838.90	238.462
839.19	280.000
839.49	407.143
839.79	340.000
840.09	275.000
840.39	295.238
840.69	200.000
840.99	288.889
841.29	580.000
841.59	425.000
841.88	393.750
842.18	186.207
842.48	295.238
842.78	190.000
843.08	247.826
843.38	206.250
843.68	933.333
843.97	203.846
844.27	206.897
844.57	300.000
844.87	393.750
845.17	259.259
845.47	1900.000
845.76	555.556
846.06	411.765
846.36	575.000
846.66	464.286
846.96	306.250
847.25	463.636
847.55	609.091
847.85	317.391
848.15	510.000
848.44	357.143
848.74	311.111
849.04	341.176
849.34	610.000
849.63	284.211
849.93	490.909
850.23	1180.000
850.53	450.000
850.82	2400.000
851.12	-5100.000
851.42	4700.000
851.71	295.000
852.01	-1566.667
852.31	245.833
852.61	1866.667
852.90	300.000
853.20	256.000
853.50	352.941
853.79	338.095
854.09	237.500
854.39	406.250
854.68	186.486
854.98	196.774
855.28	186.667
855.57	227.586
855.87	251.852
856.17	289.474
856.46	300.000
856.76	270.588
857.05	227.586
857.35	225.000
857.65	380.000
857.94	295.652
858.24	250.000
858.53	345.000
858.83	259.091
859.13	366.667
859.42	0.000
859.72	533.333
860.01	490.909
860.31	277.273
860.60	310.526
860.90	252.174
861.20	577.778
861.49	575.000
861.79	-4900.000
862.08	700.000
862.38	309.524
862.67	384.615
862.97	376.471
863.26	577.778
863.56	294.444
863.85	491.667
864.15	612.500
864.44	433.333
864.74	883.333
865.03	812.500
865.33	342.105
865.62	400.000
865.92	407.692
866.21	450.000
866.51	0.000
866.80	490.909
867.10	1320.000
867.39	476.923
867.69	518.182
867.98	278.947
868.27	554.545
868.57	331.579
868.86	-4500.000
869.16	431.250
869.45	2750.000
869.75	-4600.000
870.04	466.667
870.33	857.143
870.63	1375.000
870.92	3150.000
871.22	742.857
871.51	358.824
871.80	271.429
872.10	407.143
>>>>>End Processed Spectral Data<<<<<
