SpectraSuite Data File
++++++++++++++++++++++++++++++++++++
Date: Wed May 13 19:38:54 PDT 2015
User: schluterlab
Dark Spectrum Present: Yes
Reference Spectrum Present: Yes
Number of Sampled Component Spectra: 1
Spectrometers: USB2E3373
Integration Time (usec): 3000 (USB2E3373)
Spectra Averaged: 3 (USB2E3373)
Boxcar Smoothing: 0 (USB2E3373)
Correct for Electrical Dark: No (USB2E3373)
Strobe/Lamp Enabled: No (USB2E3373)
Correct for Detector Non-linearity: No (USB2E3373)
Correct for Stray Light: No (USB2E3373)
Number of Pixels in Processed Spectrum: 2048
>>>>>Begin Processed Spectral Data<<<<<
178.53	0.000
178.91	-1300.000
179.29	-1375.000
179.67	-261.111
180.04	-1325.000
180.42	2400.000
180.80	1000.000
181.18	-1025.000
181.56	728.571
181.94	0.000
182.31	-628.571
182.69	1966.667
183.07	-550.000
183.45	-555.556
183.83	545.455
184.20	-440.000
184.58	2950.000
184.96	5900.000
185.34	-920.000
185.72	-637.500
186.09	-2650.000
186.47	2900.000
186.85	2450.000
187.23	5600.000
187.61	-1900.000
187.98	1375.000
188.36	518.182
188.74	563.636
189.12	-1000.000
189.49	550.000
189.87	-5200.000
190.25	-1325.000
190.63	378.571
191.00	407.692
191.38	783.333
191.76	-1475.000
192.14	1400.000
192.51	637.500
192.89	1250.000
193.27	575.000
193.65	-1325.000
194.02	520.000
194.40	1020.000
194.78	580.000
195.15	491.667
195.53	640.000
195.91	-2300.000
196.29	431.250
196.66	378.947
197.04	-370.000
197.42	0.000
197.79	650.000
198.17	-5100.000
198.55	700.000
198.92	650.000
199.30	780.000
199.68	0.000
200.05	361.111
200.43	700.000
200.81	4600.000
201.18	2133.333
201.56	-1466.667
201.94	755.556
202.31	644.444
202.69	391.667
203.07	460.000
203.44	0.000
203.82	1175.000
204.19	842.857
204.57	464.286
204.95	625.000
205.32	1800.000
205.70	563.636
206.08	421.429
206.45	2750.000
206.83	387.500
207.20	933.333
207.58	820.000
207.96	361.111
208.33	687.500
208.71	-850.000
209.08	828.571
209.46	622.222
209.84	500.000
210.21	-1766.667
210.59	1375.000
210.96	-500.000
211.34	2350.000
211.71	600.000
212.09	766.667
212.46	0.000
212.84	1800.000
213.22	1400.000
213.59	-4400.000
213.97	850.000
214.34	828.571
214.72	581.818
215.09	1060.000
215.47	-1850.000
215.84	-2650.000
216.22	1966.667
216.59	471.429
216.97	1450.000
217.34	436.364
217.72	-783.333
218.09	0.000
218.47	-4900.000
218.84	800.000
219.22	828.571
219.59	1633.333
219.97	-600.000
220.34	1060.000
220.72	-1900.000
221.09	421.429
221.47	1625.000
221.84	-1000.000
222.22	0.000
222.59	1525.000
222.97	-3250.000
223.34	1260.000
223.72	469.231
224.09	980.000
224.46	2400.000
224.84	-4700.000
225.21	-1140.000
225.59	-4900.000
225.96	670.000
226.34	315.000
226.71	3150.000
227.08	662.500
227.46	640.000
227.83	-1350.000
228.21	-2500.000
228.58	677.778
228.95	-2300.000
229.33	-2150.000
229.70	2033.333
230.08	785.714
230.45	-700.000
230.82	491.667
231.20	883.333
231.57	642.857
231.95	525.000
232.32	259.091
232.69	409.091
233.07	857.143
233.44	400.000
233.81	-1833.333
234.19	331.579
234.56	475.000
234.93	416.667
235.31	481.818
235.68	276.923
236.05	457.143
236.43	175.758
236.80	278.947
237.17	4300.000
237.55	261.905
237.92	203.571
238.29	285.714
238.67	187.097
239.04	179.310
239.41	141.667
239.79	108.696
240.16	154.762
240.53	145.455
240.91	101.961
241.28	128.000
241.65	98.000
242.02	97.101
242.40	85.484
242.77	98.333
243.14	64.516
243.51	87.640
243.89	71.765
244.26	63.333
244.63	63.441
245.00	56.383
245.38	57.426
245.75	51.402
246.12	53.211
246.49	67.883
246.87	54.400
247.24	50.000
247.61	42.143
247.98	45.098
248.36	40.541
248.73	44.586
249.10	45.860
249.47	38.418
249.84	45.989
250.22	37.968
250.59	39.645
250.96	39.394
251.33	38.863
251.70	40.099
252.08	29.524
252.45	32.735
252.82	31.304
253.19	30.638
253.56	37.255
253.94	34.025
254.31	29.688
254.68	35.385
255.05	29.151
255.42	30.081
255.79	29.779
256.16	31.769
256.54	23.675
256.91	31.673
257.28	25.899
257.65	27.063
258.02	26.087
258.39	25.552
258.76	26.087
259.14	25.595
259.51	25.532
259.88	24.224
260.25	27.795
260.62	25.145
260.99	23.913
261.36	27.628
261.73	26.648
262.10	21.512
262.47	25.634
262.85	25.070
263.22	23.362
263.59	24.786
263.96	22.802
264.33	22.193
264.70	20.789
265.07	24.552
265.44	23.990
265.81	20.925
266.18	22.613
266.55	23.415
266.92	24.079
267.29	21.528
267.66	20.183
268.03	19.545
268.40	21.028
268.77	21.480
269.14	20.270
269.51	21.670
269.88	21.212
270.25	20.993
270.62	21.798
270.99	23.011
271.36	19.957
271.73	19.393
272.10	20.652
272.47	21.505
272.84	21.212
273.21	21.174
273.58	18.996
273.95	16.352
274.32	20.661
274.69	19.272
275.06	18.504
275.43	20.426
275.80	19.639
276.17	18.126
276.54	20.582
276.91	18.182
277.28	19.531
277.65	17.988
278.02	17.598
278.39	20.898
278.76	20.909
279.13	20.566
279.50	20.857
279.87	20.319
280.23	18.363
280.60	17.408
280.97	17.375
281.34	20.177
281.71	19.818
282.08	18.810
282.45	18.364
282.82	19.538
283.19	15.508
283.56	16.491
283.92	20.643
284.29	19.048
284.66	17.060
285.03	16.637
285.40	18.134
285.77	16.498
286.14	16.753
286.51	18.167
286.87	17.094
287.24	18.241
287.61	15.891
287.98	18.019
288.35	17.433
288.72	17.290
289.08	16.119
289.45	15.815
289.82	16.423
290.19	14.600
290.56	16.233
290.93	14.804
291.29	16.258
291.66	15.634
292.03	17.587
292.40	16.593
292.77	16.420
293.13	15.522
293.50	14.431
293.87	14.963
294.24	14.370
294.60	13.100
294.97	15.262
295.34	15.092
295.71	14.773
296.08	13.248
296.44	15.681
296.81	14.135
297.18	15.718
297.55	13.061
297.91	14.380
298.28	17.001
298.65	14.230
299.02	13.439
299.38	12.749
299.75	13.073
300.12	14.815
300.48	14.875
300.85	13.564
301.22	14.140
301.59	13.005
301.95	13.980
302.32	14.377
302.69	12.784
303.05	13.818
303.42	13.457
303.79	13.137
304.15	11.189
304.52	12.051
304.89	13.124
305.25	12.761
305.62	13.364
305.99	14.286
306.35	12.192
306.72	13.677
307.09	13.430
307.45	13.626
307.82	12.835
308.19	13.907
308.55	14.563
308.92	13.534
309.29	12.460
309.65	11.983
310.02	13.319
310.38	13.011
310.75	14.467
311.12	13.920
311.48	13.480
311.85	13.941
312.22	14.360
312.58	14.033
312.95	14.361
313.31	13.592
313.68	14.449
314.05	15.779
314.41	15.276
314.78	14.502
315.14	14.796
315.51	16.272
315.87	15.545
316.24	16.187
316.61	14.815
316.97	15.166
317.34	15.068
317.70	15.583
318.07	16.939
318.43	17.417
318.80	17.432
319.16	17.420
319.53	16.510
319.89	18.952
320.26	18.100
320.62	17.956
320.99	17.778
321.35	18.990
321.72	19.815
322.08	19.447
322.45	22.786
322.81	20.446
323.18	21.291
323.54	21.429
323.91	21.132
324.27	21.128
324.64	21.715
325.00	21.731
325.37	23.112
325.73	23.788
326.10	23.742
326.46	23.297
326.83	24.763
327.19	24.253
327.56	25.523
327.92	25.809
328.29	27.329
328.65	25.506
329.01	26.264
329.38	26.087
329.74	26.223
330.11	26.107
330.47	26.079
330.84	27.574
331.20	27.140
331.56	27.431
331.93	27.130
332.29	27.152
332.66	28.319
333.02	27.605
333.38	27.733
333.75	27.540
334.11	27.135
334.48	27.152
334.84	27.757
335.20	28.364
335.57	26.836
335.93	26.518
336.29	27.015
336.66	28.314
337.02	27.421
337.38	28.056
337.75	27.362
338.11	26.589
338.47	28.821
338.84	29.148
339.20	28.532
339.56	29.197
339.93	27.545
340.29	28.623
340.65	27.273
341.02	28.098
341.38	28.025
341.74	27.018
342.11	26.550
342.47	26.960
342.83	27.312
343.20	27.186
343.56	28.222
343.92	27.807
344.28	26.276
344.65	28.203
345.01	26.599
345.37	26.844
345.73	27.919
346.10	27.025
346.46	27.627
346.82	26.606
347.19	27.736
347.55	28.243
347.91	27.104
348.27	28.595
348.63	27.592
349.00	27.913
349.36	28.325
349.72	27.907
350.08	26.661
350.45	27.909
350.81	28.432
351.17	27.634
351.53	27.846
351.89	27.145
352.26	27.466
352.62	27.586
352.98	27.715
353.34	28.595
353.70	28.069
354.07	28.145
354.43	27.381
354.79	27.273
355.15	27.374
355.51	28.617
355.87	27.837
356.24	28.013
356.60	28.388
356.96	27.514
357.32	27.392
357.68	28.976
358.04	28.187
358.40	27.712
358.77	28.169
359.13	28.177
359.49	27.216
359.85	26.429
360.21	28.628
360.57	29.339
360.93	27.923
361.29	28.798
361.66	28.019
362.02	28.209
362.38	29.658
362.74	28.125
363.10	26.499
363.46	27.293
363.82	28.345
364.18	27.753
364.54	29.049
364.90	29.745
365.26	28.015
365.62	28.999
365.98	28.123
366.35	27.937
366.71	27.549
367.07	27.822
367.43	28.520
367.79	29.265
368.15	28.736
368.51	28.924
368.87	28.622
369.23	29.481
369.59	29.544
369.95	28.456
370.31	28.348
370.67	28.261
371.03	29.288
371.39	29.373
371.75	28.309
372.11	28.805
372.47	29.326
372.83	29.827
373.19	28.468
373.55	28.899
373.91	30.633
374.27	29.003
374.63	29.309
374.99	29.520
375.35	28.193
375.71	28.787
376.07	29.424
376.42	29.574
376.78	29.423
377.14	29.512
377.50	29.272
377.86	28.391
378.22	29.393
378.58	27.882
378.94	28.913
379.30	28.499
379.66	29.759
380.02	28.256
380.38	28.415
380.74	29.052
381.09	28.667
381.45	29.502
381.81	29.423
382.17	28.981
382.53	29.686
382.89	29.877
383.25	29.081
383.61	29.864
383.97	28.893
384.32	28.759
384.68	28.625
385.04	29.195
385.40	28.916
385.76	28.440
386.12	29.469
386.48	29.390
386.83	29.763
387.19	30.427
387.55	29.746
387.91	29.686
388.27	28.694
388.62	29.072
388.98	28.501
389.34	29.787
389.70	29.001
390.06	29.658
390.42	28.729
390.77	28.944
391.13	30.313
391.49	28.617
391.85	29.153
392.20	27.823
392.56	29.104
392.92	29.076
393.28	28.580
393.64	29.496
393.99	28.589
394.35	29.777
394.71	29.297
395.07	28.723
395.42	29.604
395.78	28.753
396.14	28.119
396.50	29.073
396.85	29.816
397.21	28.607
397.57	28.642
397.92	28.666
398.28	28.307
398.64	28.256
399.00	27.756
399.35	27.975
399.71	28.183
400.07	29.273
400.42	29.325
400.78	28.770
401.14	28.354
401.49	28.657
401.85	28.010
402.21	27.545
402.57	28.439
402.92	27.680
403.28	28.295
403.63	29.022
403.99	27.707
404.35	28.242
404.70	27.998
405.06	27.432
405.42	28.571
405.77	27.714
406.13	27.032
406.49	27.203
406.84	26.994
407.20	26.123
407.55	26.930
407.91	27.467
408.27	27.824
408.62	27.333
408.98	27.451
409.34	27.429
409.69	27.484
410.05	27.881
410.40	27.278
410.76	27.718
411.11	27.322
411.47	26.773
411.83	26.695
412.18	27.149
412.54	26.775
412.89	26.807
413.25	26.860
413.60	27.177
413.96	26.108
414.31	25.881
414.67	26.869
415.03	28.344
415.38	26.740
415.74	27.588
416.09	27.433
416.45	26.841
416.80	26.768
417.16	28.083
417.51	27.538
417.87	26.397
418.22	27.066
418.58	27.631
418.93	27.273
419.29	28.071
419.64	26.889
420.00	27.195
420.35	27.304
420.71	27.555
421.06	26.671
421.42	27.076
421.77	26.401
422.12	27.120
422.48	26.390
422.83	26.733
423.19	26.298
423.54	27.104
423.90	26.667
424.25	26.633
424.61	26.607
424.96	26.239
425.31	26.800
425.67	25.955
426.02	26.000
426.38	27.045
426.73	26.039
427.09	27.112
427.44	27.200
427.79	26.970
428.15	26.012
428.50	26.565
428.85	27.592
429.21	26.726
429.56	26.387
429.92	26.875
430.27	26.514
430.62	25.806
430.98	26.258
431.33	25.979
431.68	26.702
432.04	25.240
432.39	26.556
432.74	25.972
433.10	25.863
433.45	26.764
433.80	25.443
434.16	26.122
434.51	25.947
434.86	26.682
435.22	26.681
435.57	26.930
435.92	27.150
436.28	27.224
436.63	27.097
436.98	25.816
437.34	26.178
437.69	27.130
438.04	27.544
438.39	26.149
438.75	28.123
439.10	27.095
439.45	26.978
439.81	26.405
440.16	26.143
440.51	26.362
440.86	26.636
441.22	26.307
441.57	26.592
441.92	26.510
442.27	27.018
442.63	24.961
442.98	27.099
443.33	26.413
443.68	26.329
444.03	26.110
444.39	26.144
444.74	26.948
445.09	26.469
445.44	25.697
445.79	25.878
446.15	26.098
446.50	26.333
446.85	25.694
447.20	25.752
447.55	25.963
447.91	26.751
448.26	25.264
448.61	25.947
448.96	26.633
449.31	26.378
449.66	25.436
450.02	26.240
450.37	26.871
450.72	25.719
451.07	26.143
451.42	25.775
451.77	26.659
452.12	25.231
452.47	26.119
452.83	25.758
453.18	25.550
453.53	27.396
453.88	26.167
454.23	26.121
454.58	25.803
454.93	27.082
455.28	25.935
455.63	25.789
455.98	26.726
456.34	25.942
456.69	26.925
457.04	25.449
457.39	26.826
457.74	26.001
458.09	26.107
458.44	25.827
458.79	25.217
459.14	26.467
459.49	25.686
459.84	25.485
460.19	24.926
460.54	25.058
460.89	25.507
461.24	26.655
461.59	26.496
461.94	25.894
462.29	25.163
462.64	26.037
462.99	24.854
463.34	26.867
463.69	25.954
464.04	25.449
464.39	25.159
464.74	25.371
465.09	25.151
465.44	24.044
465.79	24.888
466.14	24.412
466.49	24.694
466.84	25.277
467.19	24.744
467.54	24.812
467.89	25.270
468.24	25.073
468.59	25.885
468.94	25.046
469.29	24.871
469.64	26.037
469.99	26.049
470.34	24.240
470.68	26.006
471.03	25.714
471.38	25.643
471.73	24.983
472.08	26.316
472.43	24.435
472.78	25.214
473.13	24.968
473.48	25.343
473.83	26.037
474.17	24.829
474.52	25.186
474.87	24.869
475.22	24.608
475.57	24.503
475.92	24.164
476.27	24.634
476.61	24.214
476.96	24.134
477.31	23.548
477.66	24.726
478.01	24.255
478.36	24.379
478.70	23.105
479.05	24.334
479.40	24.667
479.75	23.945
480.10	23.807
480.45	23.989
480.79	23.698
481.14	24.070
481.49	24.063
481.84	23.411
482.19	24.307
482.53	23.624
482.88	22.848
483.23	23.785
483.58	23.567
483.92	23.243
484.27	23.007
484.62	22.457
484.97	22.862
485.31	23.493
485.66	22.296
486.01	20.836
486.36	20.480
486.70	20.315
487.05	20.749
487.40	21.195
487.75	21.714
488.09	22.020
488.44	21.648
488.79	23.074
489.13	23.759
489.48	22.838
489.83	23.090
490.17	22.929
490.52	22.719
490.87	22.840
491.22	22.010
491.56	22.415
491.91	22.801
492.26	22.278
492.60	22.719
492.95	22.217
493.30	22.477
493.64	23.145
493.99	22.470
494.34	22.387
494.68	23.077
495.03	23.872
495.37	22.336
495.72	22.076
496.07	23.341
496.41	21.504
496.76	22.691
497.11	22.287
497.45	22.031
497.80	22.505
498.14	21.691
498.49	22.244
498.84	23.011
499.18	21.905
499.53	22.507
499.87	21.994
500.22	22.562
500.56	22.379
500.91	22.260
501.26	22.191
501.60	22.591
501.95	21.769
502.29	22.868
502.64	22.672
502.98	21.646
503.33	21.435
503.67	21.717
504.02	21.328
504.36	22.040
504.71	21.788
505.06	21.976
505.40	21.877
505.75	21.745
506.09	22.060
506.44	22.003
506.78	21.286
507.13	22.463
507.47	22.222
507.82	22.594
508.16	22.188
508.51	22.983
508.85	21.698
509.19	22.143
509.54	21.480
509.88	21.999
510.23	22.057
510.57	22.085
510.92	21.491
511.26	21.942
511.61	22.459
511.95	21.451
512.30	21.951
512.64	22.354
512.98	21.919
513.33	21.681
513.67	20.971
514.02	21.483
514.36	23.102
514.70	21.970
515.05	22.421
515.39	22.602
515.74	22.241
516.08	22.974
516.42	22.531
516.77	22.798
517.11	21.920
517.46	22.856
517.80	22.764
518.14	21.772
518.49	22.462
518.83	23.352
519.17	22.344
519.52	22.071
519.86	22.647
520.20	22.890
520.55	22.980
520.89	22.810
521.23	23.402
521.58	23.109
521.92	22.474
522.26	22.514
522.61	22.679
522.95	22.161
523.29	22.642
523.64	22.805
523.98	23.044
524.32	22.256
524.66	22.910
525.01	22.488
525.35	21.995
525.69	22.599
526.04	23.053
526.38	22.453
526.72	22.270
527.06	22.348
527.41	21.658
527.75	23.023
528.09	22.736
528.43	22.945
528.78	21.696
529.12	21.758
529.46	22.658
529.80	22.153
530.15	22.804
530.49	21.538
530.83	22.278
531.17	22.585
531.51	22.892
531.86	22.839
532.20	23.012
532.54	21.653
532.88	21.694
533.22	21.924
533.57	21.543
533.91	21.011
534.25	21.507
534.59	21.904
534.93	21.118
535.27	21.605
535.62	21.612
535.96	22.159
536.30	20.852
536.64	20.734
536.98	21.765
537.32	21.856
537.66	21.933
538.01	22.251
538.35	21.784
538.69	21.761
539.03	21.313
539.37	21.086
539.71	20.220
540.05	22.418
540.39	21.329
540.73	20.699
541.07	21.999
541.42	21.526
541.76	22.065
542.10	21.734
542.44	22.119
542.78	21.937
543.12	20.729
543.46	21.836
543.80	22.121
544.14	20.732
544.48	21.841
544.82	20.783
545.16	22.837
545.50	20.823
545.84	21.976
546.18	21.077
546.52	21.542
546.86	20.412
547.20	22.724
547.54	21.242
547.88	21.556
548.22	21.171
548.56	20.566
548.90	20.935
549.24	21.616
549.58	21.146
549.92	21.841
550.26	21.449
550.60	21.715
550.94	21.127
551.28	20.775
551.62	21.136
551.96	19.930
552.30	21.229
552.64	21.974
552.98	22.237
553.32	20.162
553.66	21.472
554.00	21.551
554.34	21.049
554.68	21.888
555.02	21.439
555.36	21.155
555.69	20.298
556.03	20.390
556.37	20.873
556.71	20.805
557.05	21.008
557.39	22.043
557.73	21.101
558.07	20.885
558.41	20.478
558.75	21.014
559.08	20.656
559.42	20.786
559.76	21.029
560.10	20.128
560.44	20.964
560.78	20.692
561.12	20.778
561.45	20.339
561.79	20.699
562.13	19.584
562.47	19.740
562.81	20.153
563.15	20.936
563.48	20.093
563.82	19.635
564.16	19.751
564.50	18.880
564.84	19.406
565.17	19.627
565.51	19.808
565.85	19.860
566.19	19.411
566.52	20.456
566.86	18.867
567.20	19.163
567.54	18.950
567.88	18.142
568.21	19.577
568.55	18.908
568.89	17.753
569.23	17.959
569.56	17.611
569.90	17.547
570.24	17.546
570.57	16.933
570.91	16.710
571.25	16.800
571.59	16.819
571.92	16.475
572.26	16.724
572.60	16.456
572.93	16.582
573.27	16.859
573.61	16.360
573.95	16.615
574.28	16.307
574.62	16.132
574.96	15.723
575.29	15.737
575.63	16.184
575.97	16.064
576.30	16.065
576.64	15.770
576.98	15.946
577.31	16.104
577.65	15.765
577.98	15.963
578.32	15.409
578.66	15.828
578.99	15.727
579.33	15.904
579.67	15.325
580.00	15.560
580.34	15.828
580.67	15.623
581.01	16.101
581.35	15.238
581.68	15.436
582.02	15.043
582.35	15.570
582.69	15.369
583.02	15.045
583.36	15.794
583.70	15.609
584.03	15.752
584.37	16.047
584.70	15.778
585.04	15.680
585.37	15.517
585.71	15.578
586.04	15.463
586.38	15.674
586.72	16.073
587.05	15.050
587.39	15.383
587.72	15.692
588.06	15.608
588.39	15.748
588.73	15.928
589.06	16.329
589.40	16.397
589.73	16.191
590.07	16.406
590.40	15.857
590.73	16.432
591.07	17.013
591.40	16.871
591.74	17.229
592.07	16.885
592.41	16.990
592.74	15.918
593.08	15.556
593.41	16.324
593.75	15.397
594.08	15.756
594.41	16.402
594.75	16.229
595.08	16.106
595.42	16.392
595.75	15.776
596.09	16.635
596.42	17.053
596.75	16.927
597.09	16.926
597.42	16.189
597.75	16.731
598.09	16.391
598.42	16.452
598.76	16.336
599.09	16.040
599.42	15.539
599.76	15.959
600.09	15.665
600.42	16.107
600.76	15.500
601.09	15.410
601.42	15.791
601.76	16.167
602.09	16.047
602.42	16.162
602.76	16.647
603.09	15.696
603.42	15.853
603.76	15.434
604.09	15.587
604.42	15.899
604.76	16.280
605.09	16.252
605.42	15.819
605.75	15.563
606.09	16.104
606.42	15.611
606.75	16.300
607.09	16.032
607.42	15.961
607.75	15.359
608.08	15.849
608.42	16.629
608.75	15.419
609.08	15.957
609.41	16.659
609.75	16.008
610.08	16.447
610.41	15.130
610.74	16.036
611.07	16.601
611.41	16.830
611.74	16.440
612.07	16.718
612.40	17.104
612.73	16.684
613.07	17.026
613.40	16.008
613.73	16.256
614.06	16.774
614.39	16.466
614.72	16.842
615.06	16.807
615.39	16.136
615.72	16.667
616.05	16.693
616.38	16.898
616.71	17.102
617.05	16.843
617.38	17.378
617.71	17.357
618.04	16.587
618.37	17.090
618.70	17.424
619.03	17.500
619.36	17.244
619.69	18.592
620.03	18.063
620.36	18.048
620.69	17.671
621.02	17.773
621.35	17.306
621.68	17.056
622.01	17.337
622.34	18.533
622.67	17.643
623.00	16.948
623.33	16.941
623.66	17.584
623.99	19.219
624.32	18.046
624.65	16.808
624.99	17.422
625.32	17.161
625.65	17.881
625.98	17.448
626.31	17.807
626.64	18.286
626.97	16.958
627.30	16.874
627.63	18.704
627.96	18.671
628.29	17.760
628.62	19.122
628.95	18.774
629.28	19.069
629.61	18.607
629.94	19.143
630.26	18.875
630.59	19.638
630.92	17.912
631.25	18.657
631.58	18.519
631.91	19.270
632.24	18.987
632.57	20.252
632.90	19.956
633.23	19.799
633.56	20.565
633.89	19.706
634.22	19.977
634.55	21.183
634.88	18.084
635.20	21.386
635.53	19.759
635.86	21.040
636.19	19.647
636.52	20.300
636.85	20.733
637.18	20.161
637.51	22.459
637.83	19.605
638.16	21.611
638.49	21.159
638.82	20.986
639.15	20.875
639.48	21.322
639.81	20.912
640.13	21.354
640.46	20.537
640.79	21.532
641.12	20.495
641.45	20.670
641.77	22.239
642.10	23.538
642.43	20.571
642.76	20.743
643.09	21.933
643.41	22.155
643.74	22.994
644.07	21.494
644.40	23.006
644.73	22.835
645.05	23.138
645.38	22.591
645.71	21.900
646.04	22.757
646.36	23.372
646.69	23.913
647.02	24.150
647.35	23.368
647.67	23.540
648.00	20.325
648.33	21.122
648.66	22.121
648.98	21.139
649.31	19.432
649.64	20.777
649.96	21.311
650.29	21.327
650.62	21.845
650.94	23.015
651.27	22.804
651.60	22.629
651.92	22.524
652.25	20.358
652.58	23.364
652.90	22.117
653.23	20.801
653.56	20.787
653.88	21.870
654.21	23.381
654.54	21.122
654.86	20.249
655.19	19.459
655.52	13.329
655.84	10.974
656.17	13.594
656.49	18.456
656.82	19.114
657.15	14.417
657.47	10.633
657.80	8.186
658.13	8.439
658.45	12.861
658.78	12.871
659.10	13.399
659.43	14.500
659.75	14.739
660.08	16.266
660.41	18.901
660.73	20.330
661.06	21.656
661.38	23.273
661.71	22.308
662.03	23.669
662.36	19.881
662.68	24.297
663.01	22.828
663.33	23.567
663.66	24.370
663.98	23.758
664.31	22.269
664.63	24.494
664.96	21.127
665.28	24.795
665.61	24.172
665.93	21.730
666.26	23.935
666.58	22.385
666.91	25.159
667.23	25.618
667.56	20.302
667.88	21.795
668.21	27.932
668.53	27.332
668.86	24.675
669.18	24.733
669.50	24.348
669.83	25.272
670.15	27.111
670.48	22.876
670.80	24.138
671.13	25.053
671.45	21.489
671.77	22.200
672.10	21.996
672.42	21.378
672.75	21.393
673.07	21.127
673.39	21.338
673.72	20.312
674.04	23.922
674.37	21.942
674.69	22.699
675.01	23.222
675.34	23.819
675.66	24.211
675.98	24.033
676.31	23.109
676.63	25.053
676.95	22.642
677.28	24.766
677.60	23.736
677.92	25.316
678.25	23.203
678.57	25.100
678.89	22.846
679.22	23.576
679.54	23.282
679.86	24.404
680.18	20.751
680.51	22.518
680.83	22.776
681.15	23.396
681.48	23.440
681.80	22.050
682.12	21.264
682.44	19.923
682.77	24.847
683.09	25.966
683.41	23.503
683.73	23.400
684.06	22.314
684.38	22.309
684.70	23.643
685.02	23.452
685.34	20.513
685.67	19.580
685.99	20.619
686.31	20.648
686.63	19.965
686.96	21.071
687.28	23.827
687.60	21.558
687.92	22.121
688.24	21.483
688.56	24.096
688.89	23.859
689.21	27.074
689.53	23.382
689.85	27.938
690.17	23.188
690.49	23.992
690.82	24.533
691.14	22.098
691.46	21.519
691.78	23.293
692.10	24.793
692.42	24.750
692.74	22.614
693.06	23.191
693.39	22.998
693.71	24.672
694.03	24.211
694.35	24.026
694.67	24.485
694.99	24.878
695.31	21.569
695.63	23.445
695.95	23.961
696.27	25.635
696.59	23.057
696.91	27.202
697.23	21.831
697.56	24.733
697.88	20.654
698.20	22.708
698.52	23.011
698.84	23.163
699.16	24.194
699.48	23.753
699.80	23.913
700.12	27.013
700.44	25.729
700.76	27.348
701.08	27.299
701.40	25.698
701.72	25.948
702.04	34.659
702.36	23.796
702.68	26.062
703.00	24.654
703.32	21.011
703.64	24.665
703.96	26.184
704.28	26.163
704.60	29.326
704.91	28.783
705.23	29.912
705.55	31.229
705.87	30.233
706.19	28.269
706.51	31.153
706.83	26.061
707.15	31.092
707.47	24.747
707.79	23.587
708.11	25.571
708.43	22.857
708.74	23.214
709.06	24.675
709.38	29.134
709.70	28.488
710.02	29.377
710.34	24.848
710.66	27.761
710.98	28.977
711.29	27.907
711.61	30.088
711.93	26.603
712.25	25.080
712.57	29.044
712.89	30.104
713.20	27.660
713.52	30.263
713.84	29.114
714.16	28.049
714.48	30.172
714.80	27.660
715.11	24.784
715.43	27.003
715.75	22.899
716.07	29.393
716.39	26.019
716.70	34.551
717.02	28.777
717.34	29.682
717.66	31.716
717.97	31.076
718.29	29.630
718.61	28.832
718.93	29.044
719.24	29.066
719.56	27.797
719.88	30.847
720.20	29.730
720.51	31.010
720.83	30.483
721.15	27.985
721.46	32.270
721.78	36.201
722.10	32.075
722.42	31.955
722.73	32.584
723.05	29.918
723.37	34.008
723.68	30.502
724.00	33.740
724.32	32.258
724.63	31.707
724.95	31.381
725.27	37.247
725.58	31.641
725.90	35.036
726.22	28.302
726.53	27.431
726.85	28.328
727.16	32.740
727.48	27.305
727.80	32.955
728.11	30.072
728.43	26.154
728.74	30.824
729.06	34.307
729.38	37.500
729.69	28.470
730.01	28.328
730.32	29.167
730.64	28.428
730.96	24.092
731.27	29.801
731.59	26.606
731.90	28.280
732.22	27.950
732.53	24.149
732.85	25.641
733.16	25.723
733.48	30.897
733.80	29.221
734.11	28.025
734.43	27.219
734.74	26.000
735.06	23.496
735.37	31.503
735.69	26.115
736.00	28.758
736.32	28.972
736.63	23.323
736.95	28.435
737.26	25.850
737.58	27.419
737.89	27.759
738.21	30.717
738.52	26.786
738.83	24.151
739.15	29.231
739.46	32.482
739.78	31.250
740.09	25.846
740.41	29.032
740.72	28.920
741.04	31.111
741.35	32.917
741.66	34.222
741.98	34.906
742.29	37.799
742.61	39.655
742.92	31.674
743.23	32.051
743.55	35.200
743.86	32.895
744.18	37.611
744.49	37.799
744.80	34.742
745.12	35.909
745.43	33.040
745.74	38.288
746.06	40.367
746.37	33.632
746.68	36.652
747.00	34.259
747.31	36.667
747.62	33.186
747.94	33.480
748.25	30.213
748.56	36.564
748.88	35.644
749.19	38.000
749.50	33.488
749.82	32.114
750.13	29.796
750.44	32.482
750.75	29.123
751.07	29.582
751.38	28.920
751.69	32.852
752.01	28.571
752.32	28.520
752.63	26.950
752.94	31.148
753.26	37.200
753.57	31.301
753.88	34.375
754.19	30.000
754.51	30.903
754.82	30.686
755.13	33.208
755.44	33.459
755.75	31.022
756.07	28.723
756.38	25.547
756.69	26.846
757.00	26.946
757.31	27.300
757.63	23.392
757.94	23.056
758.25	24.020
758.56	22.222
758.87	24.194
759.18	30.303
759.50	21.003
759.81	28.660
760.12	24.688
760.43	27.507
760.74	24.728
761.05	25.141
761.36	24.332
761.67	27.557
761.99	27.640
762.30	31.597
762.61	32.824
762.92	31.250
763.23	29.412
763.54	30.800
763.85	29.297
764.16	32.308
764.47	29.658
764.78	26.502
765.10	26.266
765.41	26.254
765.72	29.042
766.03	26.646
766.34	29.000
766.65	33.617
766.96	28.632
767.27	40.609
767.58	38.021
767.89	37.895
768.20	40.805
768.51	37.056
768.82	36.239
769.13	31.707
769.44	32.794
769.75	30.901
770.06	30.275
770.37	35.747
770.68	37.963
770.99	33.333
771.30	26.639
771.61	31.839
771.92	35.656
772.23	35.714
772.54	37.949
772.85	35.602
773.16	40.957
773.47	41.848
773.78	42.132
774.09	51.190
774.39	42.105
774.70	48.765
775.01	44.928
775.32	46.405
775.63	44.079
775.94	45.324
776.25	48.819
776.56	51.493
776.87	48.361
777.18	57.812
777.48	52.672
777.79	54.545
778.10	51.111
778.41	57.143
778.72	42.336
779.03	49.664
779.34	48.322
779.65	43.243
779.95	39.877
780.26	49.020
780.57	46.207
780.88	57.813
781.19	45.113
781.50	50.000
781.80	44.654
782.11	36.158
782.42	41.772
782.73	36.810
783.04	41.892
783.34	47.183
783.65	47.260
783.96	51.493
784.27	43.357
784.57	41.007
784.88	37.963
785.19	50.000
785.50	44.340
785.81	56.716
786.11	53.279
786.42	51.163
786.73	61.947
787.04	62.264
787.34	56.250
787.65	55.000
787.96	57.658
788.26	54.545
788.57	58.475
788.88	66.942
789.19	51.389
789.49	54.545
789.80	51.908
790.11	68.571
790.41	70.297
790.72	51.807
791.03	69.565
791.33	67.442
791.64	70.103
791.95	70.297
792.25	68.889
792.56	80.519
792.87	87.179
793.17	86.076
793.48	71.264
793.79	72.414
794.09	56.818
794.40	56.303
794.70	58.824
795.01	48.889
795.32	48.921
795.62	50.394
795.93	54.310
796.23	58.407
796.54	67.059
796.85	72.973
797.15	91.549
797.46	95.455
797.76	75.904
798.07	78.481
798.37	83.077
798.68	84.848
798.99	71.831
799.29	79.221
799.60	72.727
799.90	91.781
800.21	88.060
800.51	98.276
800.82	94.737
801.12	95.082
801.43	87.879
801.73	72.973
802.04	101.587
802.34	80.247
802.65	81.250
802.95	103.390
803.26	103.125
803.56	85.714
803.87	80.000
804.17	101.471
804.48	125.926
804.78	94.828
805.09	88.235
805.39	107.692
805.70	117.857
806.00	101.639
806.30	83.333
806.61	74.390
806.91	72.152
807.22	81.579
807.52	79.104
807.83	95.775
808.13	89.062
808.43	91.667
808.74	82.895
809.04	88.406
809.35	94.030
809.65	88.158
809.95	111.290
810.26	106.780
810.56	96.825
810.86	145.455
811.17	150.000
811.47	118.333
811.77	127.778
812.08	112.727
812.38	140.000
812.69	141.667
812.99	140.909
813.29	122.449
813.59	116.667
813.90	122.449
814.20	100.000
814.50	86.154
814.81	105.882
815.11	116.327
815.41	113.115
815.72	150.000
816.02	125.455
816.32	140.476
816.62	130.000
816.93	134.146
817.23	150.000
817.53	136.364
817.84	184.848
818.14	119.565
818.44	146.667
818.74	158.824
819.04	165.000
819.35	151.429
819.65	173.529
819.95	171.429
820.25	220.000
820.56	158.974
820.86	125.000
821.16	130.233
821.46	125.641
821.76	130.000
822.07	140.000
822.37	167.500
822.67	172.727
822.97	119.608
823.27	246.429
823.57	156.757
823.88	165.000
824.18	183.333
824.48	157.143
824.78	200.000
825.08	158.333
825.38	156.757
825.69	121.951
825.99	245.833
826.29	175.862
826.59	157.895
826.89	131.579
827.19	188.235
827.49	193.548
827.79	156.818
828.09	120.455
828.39	121.277
828.70	128.571
829.00	196.296
829.30	151.613
829.60	127.500
829.90	286.667
830.20	217.857
830.50	191.304
830.80	204.348
831.10	196.667
831.40	183.333
831.70	221.739
832.00	242.308
832.30	203.704
832.60	325.000
832.90	196.667
833.20	371.429
833.50	187.097
833.80	196.552
834.10	178.125
834.40	234.615
834.70	277.778
835.00	295.238
835.30	182.857
835.60	315.385
835.90	179.310
836.20	321.429
836.50	200.000
836.80	200.000
837.10	180.556
837.40	242.857
837.70	335.294
838.00	229.630
838.30	266.667
838.60	271.429
838.90	242.308
839.19	335.000
839.49	385.714
839.79	345.000
840.09	275.000
840.39	300.000
840.69	243.478
840.99	244.444
841.29	400.000
841.59	391.667
841.88	331.250
842.18	200.000
842.48	228.571
842.78	186.667
843.08	243.478
843.38	215.625
843.68	800.000
843.97	250.000
844.27	196.552
844.57	290.476
844.87	356.250
845.17	244.444
845.47	1866.667
845.76	477.778
846.06	300.000
846.36	487.500
846.66	428.571
846.96	287.500
847.25	427.273
847.55	427.273
847.85	252.174
848.15	540.000
848.44	357.143
848.74	233.333
849.04	370.588
849.34	550.000
849.63	315.789
849.93	427.273
850.23	1140.000
850.53	400.000
850.82	2550.000
851.12	-4200.000
851.42	4200.000
851.71	305.000
852.01	-1433.333
852.31	262.500
852.61	1833.333
852.90	257.143
853.20	228.000
853.50	305.882
853.79	280.952
854.09	204.167
854.39	312.500
854.68	167.568
854.98	190.323
855.28	166.667
855.57	234.483
855.87	211.111
856.17	268.421
856.46	233.333
856.76	305.882
857.05	165.517
857.35	216.667
857.65	353.333
857.94	226.087
858.24	257.692
858.53	285.000
858.83	245.455
859.13	333.333
859.42	0.000
859.72	588.889
860.01	427.273
860.31	281.818
860.60	231.579
860.90	256.522
861.20	400.000
861.49	475.000
861.79	-4800.000
862.08	687.500
862.38	276.190
862.67	276.923
862.97	335.294
863.26	544.444
863.56	338.889
863.85	450.000
864.15	662.500
864.44	380.000
864.74	800.000
865.03	675.000
865.33	315.789
865.62	472.727
865.92	430.769
866.21	375.000
866.51	0.000
866.80	481.818
867.10	1120.000
867.39	438.462
867.69	500.000
867.98	236.842
868.27	390.909
868.57	315.789
868.86	-4800.000
869.16	350.000
869.45	2450.000
869.75	-3900.000
870.04	425.000
870.33	757.143
870.63	1150.000
870.92	2550.000
871.22	771.429
871.51	358.824
871.80	285.714
872.10	378.571
>>>>>End Processed Spectral Data<<<<<
