SpectraSuite Data File
++++++++++++++++++++++++++++++++++++
Date: Wed May 13 19:58:15 PDT 2015
User: schluterlab
Dark Spectrum Present: Yes
Reference Spectrum Present: Yes
Number of Sampled Component Spectra: 1
Spectrometers: USB2E3373
Integration Time (usec): 3000 (USB2E3373)
Spectra Averaged: 3 (USB2E3373)
Boxcar Smoothing: 0 (USB2E3373)
Correct for Electrical Dark: No (USB2E3373)
Strobe/Lamp Enabled: No (USB2E3373)
Correct for Detector Non-linearity: No (USB2E3373)
Correct for Stray Light: No (USB2E3373)
Number of Pixels in Processed Spectrum: 2048
>>>>>Begin Processed Spectral Data<<<<<
178.53	0.000
178.91	-1300.000
179.29	-1350.000
179.67	-216.667
180.04	-1100.000
180.42	2150.000
180.80	1060.000
181.18	-825.000
181.56	700.000
181.94	0.000
182.31	-714.286
182.69	1766.667
183.07	-512.500
183.45	-566.667
183.83	554.545
184.20	-460.000
184.58	2350.000
184.96	4700.000
185.34	-980.000
185.72	-562.500
186.09	-2250.000
186.47	2050.000
186.85	2450.000
187.23	4200.000
187.61	-1633.333
187.98	1300.000
188.36	572.727
188.74	509.091
189.12	-860.000
189.49	550.000
189.87	-4100.000
190.25	-1375.000
190.63	457.143
191.00	376.923
191.38	883.333
191.76	-1175.000
192.14	1275.000
192.51	637.500
192.89	1116.667
193.27	450.000
193.65	-1225.000
194.02	450.000
194.40	740.000
194.78	450.000
195.15	483.333
195.53	710.000
195.91	-2400.000
196.29	331.250
196.66	310.526
197.04	-330.000
197.42	0.000
197.79	600.000
198.17	-5500.000
198.55	842.857
198.92	700.000
199.30	920.000
199.68	0.000
200.05	288.889
200.43	828.571
200.81	4800.000
201.18	1766.667
201.56	-1500.000
201.94	566.667
202.31	522.222
202.69	383.333
203.07	520.000
203.44	0.000
203.82	1350.000
204.19	742.857
204.57	407.143
204.95	650.000
205.32	1266.667
205.70	436.364
206.08	357.143
206.45	2750.000
206.83	368.750
207.20	866.667
207.58	860.000
207.96	277.778
208.33	700.000
208.71	-833.333
209.08	757.143
209.46	588.889
209.84	472.727
210.21	-1333.333
210.59	1325.000
210.96	-400.000
211.34	2450.000
211.71	570.000
212.09	816.667
212.46	0.000
212.84	1733.333
213.22	1125.000
213.59	-4600.000
213.97	850.000
214.34	714.286
214.72	454.545
215.09	1000.000
215.47	-1900.000
215.84	-2400.000
216.22	1533.333
216.59	378.571
216.97	1100.000
217.34	409.091
217.72	-783.333
218.09	0.000
218.47	-4800.000
218.84	577.778
219.22	728.571
219.59	1366.667
219.97	-642.857
220.34	1020.000
220.72	-1733.333
221.09	357.143
221.47	1275.000
221.84	-833.333
222.22	0.000
222.59	1425.000
222.97	-2250.000
223.34	1180.000
223.72	392.308
224.09	1000.000
224.46	2100.000
224.84	-3900.000
225.21	-1060.000
225.59	-4000.000
225.96	560.000
226.34	315.000
226.71	2550.000
227.08	612.500
227.46	590.000
227.83	-1175.000
228.21	-2550.000
228.58	622.222
228.95	-2650.000
229.33	-2100.000
229.70	1866.667
230.08	657.143
230.45	-780.000
230.82	425.000
231.20	833.333
231.57	628.571
231.95	491.667
232.32	240.909
232.69	427.273
233.07	757.143
233.44	384.615
233.81	-1933.333
234.19	284.211
234.56	458.333
234.93	316.667
235.31	454.545
235.68	300.000
236.05	392.857
236.43	193.939
236.80	247.368
237.17	3800.000
237.55	228.571
237.92	239.286
238.29	290.476
238.67	193.548
239.04	213.793
239.41	177.778
239.79	147.826
240.16	150.000
240.53	118.182
240.91	94.118
241.28	114.000
241.65	96.000
242.02	108.696
242.40	117.742
242.77	108.333
243.14	84.946
243.51	91.011
243.89	88.235
244.26	87.778
244.63	78.495
245.00	82.979
245.38	78.218
245.75	69.159
246.12	69.725
246.49	74.453
246.87	76.800
247.24	64.615
247.61	67.143
247.98	67.974
248.36	64.865
248.73	61.146
249.10	66.879
249.47	56.497
249.84	63.636
250.22	57.219
250.59	59.172
250.96	56.566
251.33	54.976
251.70	57.426
252.08	47.619
252.45	53.812
252.82	52.174
253.19	55.745
253.56	53.725
253.94	54.357
254.31	51.953
254.68	49.231
255.05	53.875
255.42	51.220
255.79	48.529
256.16	49.097
256.54	43.110
256.91	55.160
257.28	43.165
257.65	44.224
258.02	45.342
258.39	49.527
258.76	46.823
259.14	44.940
259.51	43.465
259.88	43.168
260.25	48.036
260.62	42.775
260.99	45.031
261.36	44.444
261.73	47.278
262.10	42.442
262.47	43.099
262.85	46.240
263.22	42.165
263.59	43.020
263.96	42.857
264.33	44.648
264.70	40.263
265.07	43.223
265.44	42.677
265.81	41.119
266.18	44.975
266.55	40.488
266.92	42.752
267.29	40.741
267.66	41.514
268.03	42.273
268.40	38.785
268.77	40.095
269.14	39.865
269.51	40.181
269.88	41.492
270.25	41.084
270.62	40.000
270.99	40.860
271.36	42.060
271.73	38.084
272.10	39.130
272.47	41.720
272.84	40.693
273.21	40.671
273.58	41.266
273.95	38.155
274.32	36.983
274.69	42.184
275.06	36.811
275.43	39.149
275.80	39.479
276.17	40.733
276.54	39.709
276.91	38.933
277.28	37.891
277.65	37.911
278.02	39.959
278.39	40.039
278.76	35.818
279.13	39.623
279.50	36.685
279.87	38.247
280.23	36.128
280.60	38.491
280.97	38.632
281.34	36.991
281.71	39.091
282.08	39.155
282.45	36.545
282.82	35.879
283.19	35.829
283.56	37.018
283.92	36.210
284.29	35.273
284.66	35.572
285.03	35.986
285.40	36.444
285.77	35.354
286.14	34.888
286.51	36.000
286.87	35.556
287.24	36.482
287.61	34.831
287.98	34.416
288.35	34.231
288.72	32.710
289.08	34.585
289.45	33.443
289.82	33.171
290.19	35.008
290.56	31.087
290.93	32.931
291.29	32.822
291.66	31.858
292.03	32.703
292.40	33.333
292.77	31.213
293.13	33.284
293.50	32.507
293.87	31.704
294.24	29.778
294.60	28.967
294.97	30.669
295.34	30.889
295.71	31.534
296.08	29.915
296.44	30.536
296.81	29.458
297.18	29.133
297.55	25.594
297.91	28.760
298.28	28.246
298.65	29.634
299.02	27.800
299.38	27.756
299.75	27.763
300.12	26.564
300.48	26.250
300.85	27.620
301.22	27.516
301.59	26.263
301.95	26.952
302.32	26.573
302.69	26.762
303.05	27.636
303.42	26.420
303.79	25.934
304.15	25.291
304.52	25.145
304.89	25.552
305.25	24.942
305.62	25.142
305.99	25.738
306.35	25.056
306.72	25.897
307.09	26.193
307.45	26.914
307.82	23.549
308.19	25.607
308.55	25.674
308.92	25.456
309.29	24.076
309.65	23.224
310.02	24.947
310.38	25.161
310.75	23.654
311.12	25.077
311.48	25.601
311.85	24.214
312.22	26.431
312.58	23.597
312.95	25.026
313.31	22.718
313.68	23.285
314.05	25.740
314.41	25.628
314.78	22.961
315.14	23.337
315.51	23.584
315.87	25.545
316.24	23.337
316.61	22.320
316.97	23.875
317.34	23.190
317.70	23.805
318.07	23.677
318.43	25.147
318.80	24.742
319.16	22.599
319.53	23.077
319.89	24.286
320.26	24.500
320.62	24.008
320.99	24.040
321.35	23.232
321.72	25.462
322.08	23.692
322.45	26.070
322.81	25.484
323.18	25.530
323.54	24.768
323.91	25.094
324.27	24.761
324.64	23.486
325.00	23.084
325.37	24.022
325.73	24.147
326.10	23.389
326.46	24.552
326.83	24.418
327.19	24.424
327.56	23.345
327.92	24.584
328.29	25.288
328.65	25.230
329.01	25.090
329.38	23.404
329.74	24.469
330.11	24.034
330.47	23.416
330.84	25.000
331.20	24.408
331.56	23.853
331.93	23.333
332.29	24.224
332.66	24.690
333.02	23.218
333.38	24.932
333.75	24.421
334.11	24.199
334.48	24.490
334.84	23.254
335.20	24.364
335.57	23.935
335.93	24.554
336.29	22.802
336.66	22.994
337.02	23.891
337.38	24.167
337.75	22.906
338.11	22.292
338.47	23.297
338.84	24.381
339.20	24.128
339.56	24.909
339.93	22.273
340.29	23.732
340.65	22.995
341.02	23.298
341.38	24.288
341.74	22.982
342.11	24.105
342.47	23.789
342.83	22.260
343.20	24.416
343.56	23.252
343.92	23.509
344.28	23.554
344.65	23.302
345.01	23.064
345.37	22.298
345.73	23.181
346.10	21.824
346.46	23.559
346.82	21.911
347.19	21.972
347.55	22.660
347.91	22.896
348.27	22.514
348.63	22.826
349.00	22.249
349.36	22.085
349.72	22.855
350.08	22.204
350.45	23.027
350.81	21.852
351.17	21.880
351.53	21.622
351.89	22.607
352.26	23.283
352.62	21.732
352.98	21.313
353.34	22.350
353.70	21.195
354.07	21.452
354.43	20.556
354.79	21.561
355.15	21.947
355.51	22.142
355.87	21.061
356.24	21.254
356.60	21.893
356.96	21.078
357.32	20.605
357.68	21.654
358.04	20.823
358.40	21.853
358.77	21.909
359.13	21.547
359.49	20.392
359.85	20.556
360.21	20.813
360.57	21.790
360.93	21.231
361.29	21.164
361.66	20.898
362.02	21.493
362.38	21.293
362.74	20.833
363.10	19.911
363.46	19.369
363.82	19.879
364.18	20.264
364.54	21.471
364.90	21.388
365.26	20.662
365.62	21.549
365.98	20.088
366.35	20.201
366.71	19.957
367.07	20.320
367.43	21.118
367.79	21.271
368.15	22.055
368.51	19.477
368.87	20.914
369.23	19.898
369.59	20.927
369.95	19.632
370.31	21.083
370.67	19.855
371.03	20.674
371.39	20.773
371.75	20.441
372.11	20.128
372.47	20.601
372.83	20.101
373.19	20.231
373.55	20.399
373.91	21.944
374.27	20.412
374.63	19.855
374.99	20.198
375.35	19.679
375.71	20.836
376.07	20.096
376.42	20.702
376.78	21.007
377.14	19.878
377.50	20.265
377.86	19.415
378.22	19.848
378.58	18.797
378.94	19.107
379.30	19.338
379.66	19.353
380.02	19.717
380.38	19.247
380.74	19.088
381.09	19.743
381.45	19.545
381.81	19.287
382.17	18.854
382.53	18.805
382.89	19.012
383.25	18.512
383.61	19.455
383.97	19.199
384.32	19.089
384.68	18.587
385.04	19.053
385.40	18.824
385.76	19.287
386.12	19.948
386.48	19.257
386.83	18.345
387.19	19.728
387.55	18.491
387.91	20.012
388.27	18.394
388.62	19.361
388.98	18.857
389.34	19.086
389.70	18.394
390.06	19.708
390.42	19.001
390.77	18.957
391.13	18.698
391.49	19.099
391.85	18.778
392.20	18.486
392.56	18.434
392.92	18.893
393.28	18.402
393.64	18.165
393.99	19.181
394.35	18.610
394.71	18.883
395.07	18.380
395.42	18.727
395.78	19.084
396.14	18.622
396.50	19.424
396.85	18.945
397.21	18.557
397.57	18.661
397.92	17.788
398.28	17.377
398.64	18.100
399.00	18.243
399.35	17.879
399.71	18.345
400.07	18.628
400.42	18.896
400.78	18.637
401.14	18.354
401.49	18.567
401.85	18.330
402.21	17.305
402.57	17.705
402.92	18.726
403.28	18.676
403.63	18.626
403.99	17.580
404.35	18.000
404.70	17.626
405.06	18.462
405.42	18.840
405.77	18.057
406.13	17.889
406.49	18.510
406.84	18.606
407.20	17.908
407.55	17.486
407.91	18.200
408.27	17.805
408.62	18.242
408.98	17.831
409.34	18.512
409.69	18.645
410.05	18.525
410.40	18.165
410.76	18.041
411.11	18.275
411.47	17.700
411.83	18.326
412.18	18.182
412.54	18.680
412.89	18.916
413.25	18.477
413.60	18.530
413.96	18.154
414.31	17.618
414.67	17.871
415.03	18.344
415.38	18.814
415.74	17.814
416.09	18.746
416.45	18.273
416.80	17.779
417.16	18.767
417.51	18.779
417.87	18.304
418.22	18.738
418.58	19.303
418.93	18.735
419.29	18.842
419.64	18.703
420.00	18.415
420.35	18.841
420.71	18.769
421.06	17.064
421.42	18.363
421.77	19.283
422.12	17.518
422.48	17.431
422.83	17.705
423.19	18.287
423.54	18.108
423.90	18.551
424.25	18.537
424.61	18.750
424.96	18.251
425.31	18.826
425.67	17.640
426.02	17.886
426.38	17.949
426.73	17.145
427.09	17.386
427.44	18.229
427.79	18.401
428.15	18.333
428.50	18.198
428.85	18.236
429.21	17.615
429.56	16.382
429.92	17.363
430.27	17.974
430.62	17.460
430.98	18.319
431.33	18.660
431.68	18.010
432.04	18.424
432.39	17.761
432.74	18.193
433.10	18.223
433.45	18.601
433.80	17.683
434.16	17.628
434.51	18.263
434.86	17.902
435.22	18.010
435.57	18.237
435.92	18.490
436.28	18.446
436.63	18.488
436.98	18.489
437.34	18.128
437.69	18.145
438.04	17.931
438.39	18.030
438.75	18.884
439.10	17.989
439.45	18.713
439.81	18.429
440.16	17.504
440.51	18.219
440.86	18.182
441.22	17.575
441.57	17.728
441.92	17.707
442.27	18.299
442.63	17.746
442.98	18.423
443.33	17.283
443.68	18.121
444.03	18.058
444.39	17.916
444.74	18.290
445.09	18.275
445.44	17.988
445.79	18.209
446.15	18.317
446.50	17.824
446.85	18.397
447.20	18.511
447.55	17.979
447.91	17.705
448.26	18.475
448.61	18.824
448.96	18.494
449.31	18.560
449.66	18.627
450.02	17.437
450.37	18.537
450.72	18.161
451.07	18.099
451.42	17.508
451.77	18.849
452.12	17.610
452.47	19.216
452.83	18.765
453.18	18.215
453.53	19.604
453.88	17.720
454.23	18.290
454.58	18.534
454.93	19.644
455.28	18.641
455.63	18.507
455.98	18.869
456.34	18.467
456.69	18.034
457.04	18.885
457.39	17.709
457.74	17.934
458.09	18.286
458.44	17.788
458.79	17.787
459.14	18.510
459.49	18.739
459.84	16.787
460.19	17.501
460.54	17.998
460.89	18.705
461.24	19.308
461.59	19.349
461.94	17.879
462.29	19.228
462.64	18.443
462.99	18.738
463.34	18.200
463.69	18.574
464.04	19.188
464.39	19.420
464.74	18.063
465.09	17.370
465.44	17.618
465.79	17.617
466.14	17.953
466.49	17.964
466.84	18.856
467.19	18.527
467.54	19.625
467.89	18.007
468.24	18.557
468.59	18.742
468.94	17.838
469.29	18.445
469.64	18.876
469.99	19.418
470.34	18.626
470.68	18.822
471.03	18.027
471.38	17.929
471.73	18.521
472.08	19.211
472.43	18.342
472.78	18.499
473.13	18.293
473.48	18.602
473.83	18.354
474.17	17.735
474.52	18.610
474.87	18.272
475.22	17.992
475.57	17.947
475.92	18.375
476.27	17.475
476.61	17.926
476.96	16.877
477.31	17.844
477.66	17.943
478.01	16.937
478.36	18.720
478.70	17.549
479.05	17.519
479.40	18.270
479.75	17.743
480.10	17.644
480.45	17.420
480.79	17.391
481.14	17.857
481.49	17.798
481.84	17.238
482.19	17.765
482.53	17.018
482.88	18.055
483.23	17.570
483.58	17.288
483.92	17.760
484.27	17.255
484.62	17.414
484.97	16.791
485.31	17.226
485.66	15.806
486.01	15.291
486.36	15.437
486.70	15.556
487.05	16.351
487.40	16.522
487.75	16.813
488.09	16.955
488.44	16.978
488.79	17.613
489.13	17.380
489.48	17.455
489.83	16.487
490.17	17.492
490.52	17.360
490.87	17.322
491.22	17.144
491.56	16.856
491.91	16.985
492.26	16.399
492.60	17.373
492.95	16.324
493.30	17.383
493.64	16.892
493.99	16.852
494.34	16.559
494.68	17.582
495.03	17.716
495.37	17.171
495.72	17.349
496.07	17.309
496.41	16.814
496.76	16.931
497.11	17.335
497.45	17.513
497.80	17.083
498.14	16.763
498.49	16.927
498.84	17.114
499.18	16.810
499.53	17.569
499.87	17.335
500.22	17.193
500.56	17.767
500.91	17.644
501.26	17.354
501.60	17.940
501.95	16.865
502.29	17.432
502.64	16.946
502.98	17.438
503.33	16.545
503.67	17.077
504.02	17.774
504.36	17.267
504.71	16.854
505.06	17.590
505.40	17.404
505.75	16.779
506.09	16.521
506.44	17.119
506.78	17.340
507.13	16.860
507.47	17.222
507.82	17.832
508.16	17.680
508.51	17.555
508.85	17.428
509.19	17.602
509.54	17.398
509.88	17.002
510.23	17.686
510.57	18.318
510.92	17.607
511.26	17.523
511.61	17.531
511.95	16.649
512.30	17.338
512.64	17.464
512.98	17.738
513.33	18.415
513.67	17.930
514.02	17.154
514.36	16.821
514.70	16.989
515.05	16.843
515.39	17.443
515.74	17.624
516.08	17.719
516.42	17.814
516.77	18.785
517.11	17.037
517.46	18.002
517.80	17.247
518.14	16.618
518.49	17.795
518.83	18.182
519.17	17.321
519.52	17.940
519.86	18.483
520.20	18.728
520.55	18.671
520.89	18.248
521.23	18.637
521.58	17.887
521.92	18.249
522.26	17.450
522.61	17.944
522.95	18.232
523.29	17.772
523.64	18.780
523.98	18.053
524.32	17.069
524.66	18.100
525.01	17.402
525.35	17.472
525.69	17.672
526.04	18.380
526.38	17.816
526.72	18.589
527.06	18.079
527.41	17.017
527.75	18.135
528.09	18.112
528.43	17.718
528.78	17.886
529.12	17.455
529.46	18.677
529.80	18.193
530.15	18.754
530.49	18.523
530.83	18.418
531.17	18.016
531.51	18.547
531.86	18.387
532.20	18.579
532.54	18.642
532.88	18.742
533.22	17.489
533.57	18.086
533.91	18.182
534.25	18.408
534.59	17.694
534.93	18.263
535.27	18.286
535.62	17.521
535.96	18.205
536.30	18.690
536.64	19.124
536.98	17.916
537.32	18.104
537.66	17.800
538.01	18.631
538.35	18.681
538.69	19.336
539.03	18.259
539.37	18.083
539.71	17.045
540.05	18.366
540.39	18.605
540.73	18.435
541.07	19.079
541.42	18.656
541.76	18.258
542.10	19.211
542.44	18.212
542.78	19.829
543.12	17.722
543.46	18.689
543.80	18.608
544.14	17.073
544.48	19.238
544.82	18.473
545.16	18.803
545.50	17.931
545.84	18.481
546.18	18.316
546.52	19.133
546.86	17.938
547.20	18.948
547.54	18.103
547.88	18.878
548.22	18.306
548.56	17.987
548.90	18.886
549.24	18.451
549.58	18.349
549.92	18.544
550.26	19.105
550.60	18.326
550.94	19.648
551.28	16.971
551.62	18.404
551.96	18.737
552.30	18.635
552.64	18.661
552.98	19.458
553.32	18.543
553.66	19.564
554.00	19.012
554.34	18.979
554.68	19.814
555.02	18.124
555.36	18.650
555.69	18.742
556.03	18.573
556.37	18.486
556.71	18.622
557.05	19.328
557.39	18.754
557.73	18.913
558.07	19.289
558.41	18.234
558.75	19.912
559.08	19.463
559.42	18.821
559.76	19.044
560.10	18.415
560.44	19.147
560.78	18.097
561.12	18.865
561.45	18.188
561.79	18.392
562.13	19.048
562.47	18.306
562.81	18.619
563.15	19.532
563.48	18.700
563.82	18.526
564.16	18.247
564.50	18.620
564.84	18.142
565.17	18.211
565.51	19.105
565.85	19.162
566.19	17.721
566.52	18.239
566.86	17.963
567.20	18.160
567.54	17.466
567.88	17.708
568.21	18.201
568.55	18.200
568.89	17.704
569.23	16.756
569.56	17.045
569.90	16.906
570.24	16.900
570.57	16.457
570.91	15.869
571.25	16.862
571.59	16.789
571.92	16.532
572.26	16.984
572.60	17.027
572.93	16.822
573.27	17.273
573.61	17.085
573.95	16.744
574.28	16.231
574.62	16.424
574.96	16.296
575.29	16.465
575.63	16.743
575.97	16.142
576.30	16.808
576.64	16.983
576.98	16.505
577.31	16.266
577.65	16.634
577.98	16.224
578.32	15.886
578.66	16.520
578.99	16.252
579.33	16.412
579.67	16.590
580.00	16.759
580.34	16.730
580.67	16.426
581.01	16.393
581.35	16.077
581.68	16.366
582.02	16.005
582.35	16.329
582.69	16.411
583.02	16.321
583.36	16.417
583.70	17.158
584.03	16.823
584.37	17.207
584.70	16.510
585.04	16.683
585.37	16.473
585.71	16.823
586.04	16.791
586.38	16.641
586.72	17.260
587.05	16.626
587.39	16.280
587.72	16.619
588.06	16.515
588.39	17.229
588.73	16.779
589.06	17.077
589.40	17.643
589.73	17.635
590.07	17.260
590.40	16.916
590.73	17.721
591.07	17.867
591.40	17.292
591.74	17.879
592.07	17.539
592.41	17.652
592.74	16.779
593.08	17.155
593.41	16.767
593.75	16.490
594.08	16.929
594.41	17.250
594.75	17.338
595.08	17.430
595.42	16.813
595.75	16.916
596.09	17.462
596.42	18.035
596.75	17.687
597.09	18.442
597.42	16.653
597.75	17.723
598.09	17.478
598.42	17.096
598.76	16.741
599.09	16.572
599.42	16.667
599.76	17.460
600.09	16.102
600.42	16.728
600.76	16.786
601.09	17.013
601.42	17.314
601.76	16.698
602.09	17.510
602.42	17.237
602.76	17.372
603.09	16.876
603.42	17.142
603.76	16.387
604.09	16.518
604.42	17.244
604.76	17.630
605.09	17.125
605.42	17.272
605.75	17.384
606.09	16.633
606.42	16.878
606.75	17.793
607.09	16.785
607.42	16.560
607.75	16.076
608.08	17.282
608.42	17.122
608.75	17.087
609.08	17.068
609.41	17.087
609.75	17.627
610.08	17.484
610.41	17.458
610.74	17.550
611.07	17.490
611.41	17.321
611.74	17.647
612.07	17.081
612.40	18.468
612.73	17.053
613.07	17.996
613.40	17.483
613.73	17.095
614.06	17.849
614.39	17.881
614.72	17.895
615.06	17.647
615.39	16.614
615.72	17.280
616.05	17.225
616.38	17.676
616.71	17.815
617.05	18.080
617.38	17.739
617.71	17.477
618.04	18.029
618.37	17.623
618.70	18.108
619.03	18.750
619.36	18.534
619.69	18.732
620.03	18.201
620.36	17.981
620.69	18.973
621.02	19.248
621.35	18.794
621.68	17.913
622.01	18.421
622.34	18.230
622.67	19.620
623.00	17.975
623.33	17.727
623.66	17.370
623.99	18.483
624.32	17.903
624.65	18.362
624.99	17.493
625.32	17.596
625.65	18.708
625.98	18.370
626.31	19.207
626.64	18.286
626.97	19.036
627.30	17.290
627.63	18.704
627.96	18.671
628.29	18.810
628.62	19.945
628.95	21.321
629.28	19.617
629.61	19.798
629.94	19.905
630.26	18.684
630.59	18.684
630.92	19.444
631.25	19.151
631.58	19.520
631.91	19.574
632.24	19.093
632.57	19.412
632.90	19.298
633.23	19.463
633.56	19.774
633.89	21.291
634.22	19.523
634.55	20.237
634.88	18.683
635.20	20.072
635.53	21.084
635.86	20.545
636.19	20.000
636.52	19.146
636.85	18.442
637.18	19.355
637.51	21.040
637.83	18.619
638.16	19.949
638.49	21.285
638.82	18.710
639.15	20.750
639.48	21.072
639.81	21.582
640.13	20.964
640.46	21.208
640.79	19.287
641.12	18.157
641.45	19.972
641.77	21.944
642.10	20.614
642.43	21.171
642.76	20.124
643.09	23.006
643.41	22.762
643.74	21.914
644.07	21.341
644.40	21.012
644.73	22.362
645.05	22.345
645.38	20.853
645.71	21.095
646.04	19.934
646.36	23.539
646.69	23.411
647.02	22.449
647.35	22.165
647.67	22.124
648.00	22.602
648.33	20.957
648.66	21.364
648.98	21.439
649.31	22.123
649.64	21.824
649.96	21.013
650.29	20.853
650.62	21.197
650.94	22.366
651.27	23.142
651.60	22.629
651.92	22.045
652.25	21.661
652.58	22.430
652.90	22.749
653.23	20.801
653.56	19.370
653.88	23.138
654.21	22.433
654.54	23.927
654.86	21.651
655.19	19.459
655.52	14.226
655.84	12.315
656.17	16.337
656.49	22.452
656.82	23.655
657.15	18.725
657.47	14.044
657.80	10.807
658.13	11.382
658.45	17.363
658.78	17.725
659.10	18.103
659.43	19.333
659.75	20.232
660.08	20.823
660.41	23.277
660.73	21.728
661.06	24.522
661.38	24.182
661.71	24.808
662.03	24.458
662.36	23.062
662.68	25.502
663.01	22.626
663.33	25.690
663.66	22.689
663.98	23.110
664.31	22.899
664.63	21.053
664.96	23.944
665.28	22.951
665.61	22.222
665.93	22.736
666.26	23.327
666.58	24.686
666.91	27.907
667.23	25.618
667.56	22.462
667.88	23.504
668.21	26.866
668.53	22.343
668.86	21.861
669.18	25.160
669.50	23.696
669.83	26.144
670.15	23.333
670.48	22.658
670.80	23.922
671.13	26.327
671.45	22.340
671.77	25.662
672.10	23.105
672.42	23.675
672.75	22.056
673.07	22.711
673.39	20.976
673.72	23.438
674.04	22.941
674.37	23.107
674.69	22.699
675.01	20.711
675.34	26.078
675.66	26.105
675.98	25.662
676.31	24.580
676.63	24.204
676.95	24.109
677.28	23.131
677.60	24.835
677.92	25.105
678.25	24.230
678.57	21.912
678.89	25.251
679.22	22.593
679.54	23.282
679.86	23.670
680.18	21.467
680.51	23.404
680.83	25.979
681.15	25.094
681.48	23.819
681.80	21.663
682.12	22.989
682.44	20.890
682.77	24.236
683.09	24.464
683.41	22.173
683.73	24.283
684.06	25.207
684.38	23.679
684.70	24.419
685.02	24.203
685.34	21.429
685.67	22.727
685.99	20.275
686.31	20.307
686.63	20.141
686.96	22.500
687.28	20.939
687.60	22.464
687.92	21.938
688.24	21.293
688.56	24.699
688.89	25.726
689.21	22.707
689.53	24.217
689.85	25.499
690.17	20.083
690.49	25.478
690.82	26.869
691.14	23.437
691.46	21.941
691.78	23.293
692.10	22.521
692.42	23.353
692.74	24.274
693.06	24.681
693.39	25.462
693.71	25.328
694.03	23.789
694.35	23.377
694.67	25.172
694.99	22.683
695.31	24.265
695.63	24.163
695.95	25.672
696.27	21.320
696.59	25.907
696.91	28.756
697.23	24.178
697.56	24.733
697.88	19.632
698.20	22.708
698.52	24.086
698.84	23.831
699.16	21.429
699.48	25.178
699.80	23.188
700.12	28.831
700.44	27.321
700.76	26.243
701.08	24.425
701.40	26.816
701.72	27.697
702.04	28.125
702.36	27.195
702.68	26.062
703.00	25.762
703.32	26.330
703.64	28.954
703.96	28.969
704.28	27.616
704.60	29.912
704.91	28.190
705.23	26.393
705.55	27.243
705.87	31.229
706.19	28.269
706.51	26.168
706.83	27.576
707.15	27.451
707.47	25.000
707.79	24.324
708.11	26.256
708.43	25.000
708.74	22.449
709.06	24.935
709.38	27.034
709.70	26.744
710.02	28.190
710.34	25.152
710.66	30.448
710.98	28.409
711.29	29.070
711.61	32.743
711.93	25.641
712.25	29.260
712.57	30.882
712.89	26.990
713.20	29.787
713.52	30.921
713.84	28.797
714.16	26.829
714.48	25.287
714.80	31.915
715.11	27.089
715.43	30.267
715.75	26.667
716.07	26.518
716.39	27.586
716.70	31.561
717.02	28.417
717.34	32.509
717.66	33.582
717.97	28.287
718.29	26.296
718.61	30.657
718.93	31.985
719.24	29.758
719.56	30.169
719.88	29.492
720.20	31.757
720.51	30.314
720.83	31.227
721.15	31.716
721.46	30.496
721.78	34.050
722.10	30.566
722.42	30.451
722.73	32.210
723.05	31.148
723.37	34.413
723.68	28.185
724.00	29.675
724.32	32.258
724.63	29.675
724.95	32.218
725.27	32.794
725.58	32.422
725.90	36.861
726.22	28.679
726.53	26.389
726.85	31.399
727.16	35.587
727.48	29.078
727.80	31.061
728.11	30.435
728.43	26.538
728.74	29.749
729.06	33.942
729.38	37.132
729.69	34.164
730.01	27.645
730.32	31.250
730.64	27.759
730.96	28.053
731.27	30.795
731.59	30.275
731.90	27.405
732.22	26.708
732.53	28.793
732.85	29.808
733.16	29.582
733.48	30.897
733.80	29.870
734.11	30.573
734.43	29.586
734.74	26.571
735.06	24.069
735.37	28.613
735.69	28.025
736.00	28.105
736.32	29.283
736.63	26.518
736.95	28.435
737.26	22.449
737.58	29.032
737.89	29.097
738.21	27.986
738.52	29.643
738.83	29.057
739.15	29.231
739.46	30.292
739.78	32.986
740.09	27.692
740.41	31.935
740.72	32.056
741.04	33.333
741.35	29.583
741.66	40.444
741.98	27.830
742.29	33.493
742.61	36.638
742.92	29.412
743.23	38.462
743.55	35.600
743.86	33.772
744.18	35.841
744.49	40.670
744.80	40.376
745.12	36.364
745.43	37.004
745.74	40.090
746.06	32.110
746.37	39.910
746.68	38.009
747.00	40.278
747.31	34.286
747.62	33.628
747.94	32.599
748.25	31.915
748.56	40.529
748.88	36.139
749.19	38.000
749.50	30.698
749.82	31.707
750.13	30.612
750.44	32.847
750.75	31.228
751.07	32.797
751.38	34.495
751.69	28.159
752.01	30.451
752.32	30.686
752.63	30.142
752.94	35.246
753.26	39.600
753.57	32.927
753.88	32.422
754.19	28.214
754.51	30.903
754.82	27.437
755.13	35.094
755.44	30.451
755.75	26.642
756.07	30.851
756.38	34.672
756.69	29.530
757.00	31.437
757.31	27.893
757.63	26.316
757.94	25.201
758.25	25.000
758.56	24.444
758.87	28.226
759.18	28.182
759.50	27.586
759.81	29.907
760.12	24.375
760.43	26.648
760.74	28.533
761.05	27.966
761.36	28.610
761.67	29.545
761.99	27.950
762.30	31.597
762.61	32.443
762.92	38.672
763.23	34.034
763.54	35.200
763.85	28.906
764.16	36.154
764.47	34.221
764.78	30.742
765.10	26.266
765.41	26.549
765.72	26.946
766.03	29.154
766.34	31.333
766.65	32.340
766.96	33.333
767.27	39.086
767.58	38.542
767.89	40.526
768.20	42.529
768.51	37.056
768.82	37.156
769.13	28.862
769.44	27.126
769.75	34.764
770.06	26.606
770.37	41.629
770.68	36.574
770.99	33.333
771.30	31.148
771.61	33.632
771.92	33.607
772.23	38.655
772.54	38.462
772.85	40.314
773.16	41.489
773.47	41.848
773.78	46.193
774.09	45.238
774.39	42.690
774.70	35.185
775.01	45.652
775.32	52.288
775.63	40.132
775.94	48.921
776.25	46.457
776.56	54.478
776.87	59.016
777.18	43.750
777.48	52.672
777.79	50.000
778.10	51.852
778.41	50.893
778.72	40.146
779.03	46.980
779.34	47.651
779.65	43.919
779.95	39.264
780.26	45.098
780.57	53.103
780.88	60.156
781.19	47.368
781.50	50.000
781.80	40.252
782.11	40.113
782.42	43.038
782.73	39.264
783.04	47.973
783.34	53.521
783.65	50.685
783.96	54.478
784.27	44.755
784.57	43.165
784.88	43.519
785.19	55.556
785.50	52.830
785.81	60.448
786.11	54.098
786.42	51.938
786.73	46.903
787.04	54.717
787.34	57.143
787.65	68.000
787.96	62.162
788.26	52.066
788.57	58.475
788.88	55.372
789.19	57.639
789.49	66.667
789.80	61.832
790.11	64.762
790.41	61.386
790.72	68.675
791.03	65.217
791.33	68.605
791.64	64.948
791.95	58.416
792.25	66.667
792.56	76.623
792.87	76.923
793.17	84.810
793.48	82.759
793.79	71.264
794.09	69.318
794.40	51.261
794.70	52.206
795.01	43.704
795.32	40.288
795.62	52.756
795.93	52.586
796.23	53.097
796.54	64.706
796.85	72.973
797.15	83.099
797.46	77.273
797.76	75.904
798.07	73.418
798.37	84.615
798.68	83.333
798.99	67.606
799.29	71.429
799.60	70.455
799.90	86.301
800.21	101.493
800.51	101.724
800.82	80.702
801.12	98.361
801.43	92.424
801.73	74.324
802.04	96.825
802.34	80.247
802.65	82.813
802.95	98.305
803.26	106.250
803.56	85.714
803.87	73.846
804.17	94.118
804.48	112.963
804.78	89.655
805.09	80.882
805.39	101.923
805.70	85.714
806.00	81.967
806.30	68.182
806.61	79.268
806.91	72.152
807.22	56.579
807.52	79.104
807.83	84.507
808.13	84.375
808.43	93.333
808.74	73.684
809.04	85.507
809.35	79.104
809.65	84.211
809.95	106.452
810.26	89.831
810.56	95.238
810.86	134.091
811.17	121.429
811.47	95.000
811.77	94.444
812.08	100.000
812.38	132.000
812.69	152.778
812.99	145.455
813.29	110.204
813.59	95.238
813.90	108.163
814.20	98.182
814.50	81.538
814.81	92.647
815.11	100.000
815.41	100.000
815.72	116.667
816.02	114.545
816.32	135.714
816.62	147.500
816.93	129.268
817.23	140.476
817.53	118.182
817.84	160.606
818.14	110.870
818.44	133.333
818.74	150.000
819.04	132.500
819.35	122.857
819.65	152.941
819.95	182.143
820.25	210.000
820.56	174.359
820.86	131.818
821.16	132.558
821.46	125.641
821.76	118.000
822.07	154.286
822.37	160.000
822.67	154.545
822.97	111.765
823.27	167.857
823.57	154.054
823.88	172.500
824.18	186.667
824.48	140.476
824.78	196.000
825.08	175.000
825.38	154.054
825.69	141.463
825.99	212.500
826.29	186.207
826.59	150.000
826.89	152.632
827.19	167.647
827.49	167.742
827.79	109.091
828.09	129.545
828.39	104.255
828.70	136.735
829.00	203.704
829.30	174.194
829.60	155.000
829.90	273.333
830.20	185.714
830.50	178.261
830.80	191.304
831.10	183.333
831.40	176.667
831.70	117.391
832.00	192.308
832.30	196.296
832.60	268.750
832.90	196.667
833.20	421.429
833.50	174.194
833.80	175.862
834.10	162.500
834.40	196.154
834.70	227.778
835.00	304.762
835.30	148.571
835.60	307.692
835.90	203.448
836.20	321.429
836.50	200.000
836.80	188.000
837.10	166.667
837.40	247.619
837.70	300.000
838.00	192.593
838.30	257.143
838.60	276.190
838.90	242.308
839.19	195.000
839.49	428.571
839.79	340.000
840.09	280.000
840.39	280.952
840.69	273.913
840.99	305.556
841.29	420.000
841.59	341.667
841.88	293.750
842.18	165.517
842.48	271.429
842.78	213.333
843.08	247.826
843.38	168.750
843.68	800.000
843.97	230.769
844.27	224.138
844.57	309.524
844.87	300.000
845.17	207.407
845.47	1466.667
845.76	488.889
846.06	329.412
846.36	612.500
846.66	357.143
846.96	268.750
847.25	445.455
847.55	354.545
847.85	200.000
848.15	500.000
848.44	292.857
848.74	238.889
849.04	270.588
849.34	600.000
849.63	284.211
849.93	372.727
850.23	880.000
850.53	428.571
850.82	2450.000
851.12	-4300.000
851.42	4700.000
851.71	265.000
852.01	-1400.000
852.31	254.167
852.61	1800.000
852.90	290.476
853.20	196.000
853.50	358.824
853.79	247.619
854.09	183.333
854.39	343.750
854.68	154.054
854.98	190.323
855.28	133.333
855.57	217.241
855.87	192.593
856.17	226.316
856.46	260.000
856.76	276.471
857.05	210.345
857.35	200.000
857.65	340.000
857.94	230.435
858.24	234.615
858.53	305.000
858.83	240.909
859.13	366.667
859.42	0.000
859.72	600.000
860.01	481.818
860.31	263.636
860.60	268.421
860.90	230.435
861.20	611.111
861.49	491.667
861.79	-4900.000
862.08	587.500
862.38	257.143
862.67	315.385
862.97	288.235
863.26	566.667
863.56	327.778
863.85	466.667
864.15	550.000
864.44	393.333
864.74	933.333
865.03	537.500
865.33	263.158
865.62	436.364
865.92	430.769
866.21	333.333
866.51	0.000
866.80	536.364
867.10	980.000
867.39	407.692
867.69	527.273
867.98	263.158
868.27	563.636
868.57	284.211
868.86	-4200.000
869.16	412.500
869.45	2000.000
869.75	-4400.000
870.04	450.000
870.33	528.571
870.63	950.000
870.92	2450.000
871.22	700.000
871.51	352.941
871.80	214.286
872.10	428.571
>>>>>End Processed Spectral Data<<<<<
