SpectraSuite Data File
++++++++++++++++++++++++++++++++++++
Date: Wed May 13 19:29:09 PDT 2015
User: schluterlab
Dark Spectrum Present: Yes
Reference Spectrum Present: Yes
Number of Sampled Component Spectra: 1
Spectrometers: USB2E3373
Integration Time (usec): 3000 (USB2E3373)
Spectra Averaged: 3 (USB2E3373)
Boxcar Smoothing: 0 (USB2E3373)
Correct for Electrical Dark: No (USB2E3373)
Strobe/Lamp Enabled: No (USB2E3373)
Correct for Detector Non-linearity: No (USB2E3373)
Correct for Stray Light: No (USB2E3373)
Number of Pixels in Processed Spectrum: 2048
>>>>>Begin Processed Spectral Data<<<<<
178.53	0.000
178.91	-1350.000
179.29	-1075.000
179.67	-205.556
180.04	-1325.000
180.42	2650.000
180.80	1320.000
181.18	-1100.000
181.56	671.429
181.94	0.000
182.31	-671.429
182.69	1966.667
183.07	-600.000
183.45	-555.556
183.83	545.455
184.20	-480.000
184.58	2350.000
184.96	5400.000
185.34	-900.000
185.72	-575.000
186.09	-2550.000
186.47	2650.000
186.85	2700.000
187.23	5200.000
187.61	-1633.333
187.98	1200.000
188.36	590.909
188.74	481.818
189.12	-940.000
189.49	540.000
189.87	-4600.000
190.25	-1275.000
190.63	428.571
191.00	415.385
191.38	800.000
191.76	-1200.000
192.14	1125.000
192.51	662.500
192.89	1116.667
193.27	625.000
193.65	-1275.000
194.02	480.000
194.40	1040.000
194.78	570.000
195.15	466.667
195.53	610.000
195.91	-2300.000
196.29	343.750
196.66	273.684
197.04	-340.000
197.42	0.000
197.79	630.000
198.17	-5300.000
198.55	642.857
198.92	650.000
199.30	980.000
199.68	0.000
200.05	338.889
200.43	742.857
200.81	4900.000
201.18	1766.667
201.56	-1500.000
201.94	644.444
202.31	588.889
202.69	416.667
203.07	520.000
203.44	0.000
203.82	1150.000
204.19	785.714
204.57	428.571
204.95	725.000
205.32	1566.667
205.70	518.182
206.08	307.143
206.45	2800.000
206.83	406.250
207.20	916.667
207.58	860.000
207.96	277.778
208.33	700.000
208.71	-850.000
209.08	785.714
209.46	688.889
209.84	600.000
210.21	-1733.333
210.59	1450.000
210.96	-512.500
211.34	2800.000
211.71	630.000
212.09	866.667
212.46	0.000
212.84	1833.333
213.22	1475.000
213.59	-4500.000
213.97	700.000
214.34	785.714
214.72	536.364
215.09	1040.000
215.47	-2500.000
215.84	-2800.000
216.22	1866.667
216.59	435.714
216.97	1275.000
217.34	454.545
217.72	-833.333
218.09	0.000
218.47	-5600.000
218.84	533.333
219.22	685.714
219.59	2166.667
219.97	-600.000
220.34	1040.000
220.72	-1933.333
221.09	421.429
221.47	1550.000
221.84	-966.667
222.22	0.000
222.59	1275.000
222.97	-2450.000
223.34	1480.000
223.72	453.846
224.09	1000.000
224.46	2450.000
224.84	-5500.000
225.21	-1040.000
225.59	-4100.000
225.96	590.000
226.34	290.000
226.71	1900.000
227.08	687.500
227.46	470.000
227.83	-1150.000
228.21	-2550.000
228.58	633.333
228.95	-2650.000
229.33	-2550.000
229.70	1733.333
230.08	885.714
230.45	-900.000
230.82	475.000
231.20	850.000
231.57	771.429
231.95	433.333
232.32	263.636
232.69	481.818
233.07	685.714
233.44	369.231
233.81	-1433.333
234.19	315.789
234.56	483.333
234.93	466.667
235.31	454.545
235.68	400.000
236.05	385.714
236.43	215.152
236.80	289.474
237.17	5300.000
237.55	276.190
237.92	214.286
238.29	314.286
238.67	164.516
239.04	251.724
239.41	163.889
239.79	154.348
240.16	154.762
240.53	181.818
240.91	129.412
241.28	136.000
241.65	144.000
242.02	110.145
242.40	114.516
242.77	136.667
243.14	91.398
243.51	106.742
243.89	89.412
244.26	98.889
244.63	80.645
245.00	90.426
245.38	90.099
245.75	79.439
246.12	73.394
246.49	83.212
246.87	80.000
247.24	83.077
247.61	81.429
247.98	71.242
248.36	68.243
248.73	78.981
249.10	71.338
249.47	67.232
249.84	69.519
250.22	64.171
250.59	75.148
250.96	68.687
251.33	65.403
251.70	73.267
252.08	65.714
252.45	63.677
252.82	61.304
253.19	65.532
253.56	63.529
253.94	63.900
254.31	57.422
254.68	62.692
255.05	61.624
255.42	57.724
255.79	62.868
256.16	59.567
256.54	54.417
256.91	60.854
257.28	58.993
257.65	57.096
258.02	53.727
258.39	56.151
258.76	55.853
259.14	55.357
259.51	53.799
259.88	48.447
260.25	58.308
260.62	52.890
260.99	54.348
261.36	55.856
261.73	53.868
262.10	50.872
262.47	54.366
262.85	53.760
263.22	54.131
263.59	54.701
263.96	50.824
264.33	52.480
264.70	51.579
265.07	50.384
265.44	53.283
265.81	49.148
266.18	53.518
266.55	49.756
266.92	51.351
267.29	47.917
267.66	49.541
268.03	48.409
268.40	52.570
268.77	51.074
269.14	51.577
269.51	48.758
269.88	50.350
270.25	47.630
270.62	50.562
270.99	49.247
271.36	50.644
271.73	49.533
272.10	48.478
272.47	50.753
272.84	49.351
273.21	46.541
273.58	47.598
273.95	49.057
274.32	47.934
274.69	49.251
275.06	46.457
275.43	49.574
275.80	47.094
276.17	49.491
276.54	48.857
276.91	44.862
277.28	46.875
277.65	46.422
278.02	48.861
278.39	48.047
278.76	45.636
279.13	46.415
279.50	45.438
279.87	46.414
280.23	48.902
280.60	46.228
280.97	46.580
281.34	46.372
281.71	46.182
282.08	47.985
282.45	44.727
282.82	45.293
283.19	42.424
283.56	44.912
283.92	46.193
284.29	44.974
284.66	45.917
285.03	43.580
285.40	44.542
285.77	45.286
286.14	43.869
286.51	43.000
286.87	45.299
287.24	43.485
287.61	41.252
287.98	43.019
288.35	41.204
288.72	41.900
289.08	42.879
289.45	42.010
289.82	43.415
290.19	40.345
290.56	38.132
290.93	38.218
291.29	40.184
291.66	39.823
292.03	40.988
292.40	40.382
292.77	37.574
293.13	38.507
293.50	39.650
293.87	38.074
294.24	36.889
294.60	38.137
294.97	35.320
295.34	36.812
295.71	38.210
296.08	35.897
296.44	37.827
296.81	36.592
297.18	35.501
297.55	32.322
297.91	36.544
298.28	37.082
298.65	36.423
299.02	34.519
299.38	34.794
299.75	33.962
300.12	33.333
300.48	35.000
300.85	32.306
301.22	33.631
301.59	33.838
301.95	33.375
302.32	35.302
302.69	34.528
303.05	34.545
303.42	33.580
303.79	30.917
304.15	30.886
304.52	32.097
304.89	30.894
305.25	31.323
305.62	31.937
305.99	30.933
306.35	31.544
306.72	32.399
307.09	32.186
307.45	33.221
307.82	31.585
308.19	31.347
308.55	32.362
308.92	30.934
309.29	30.412
309.65	30.435
310.02	30.761
310.38	31.720
310.75	31.362
311.12	30.911
311.48	31.557
311.85	31.761
312.22	31.530
312.58	30.665
312.95	31.045
313.31	30.291
313.68	31.705
314.05	32.544
314.41	32.060
314.78	31.420
315.14	30.089
315.51	31.514
315.87	31.386
316.24	31.182
316.61	30.214
316.97	31.507
317.34	31.409
317.70	30.497
318.07	30.029
318.43	32.387
318.80	31.396
319.16	32.580
319.53	31.238
319.89	31.048
320.26	32.600
320.62	31.647
320.99	33.333
321.35	32.020
321.72	32.033
322.08	33.662
322.45	34.726
322.81	33.915
323.18	35.260
323.54	33.581
323.91	34.340
324.27	33.843
324.64	31.407
325.00	32.191
325.37	33.667
325.73	34.111
326.10	33.363
326.46	32.527
326.83	34.513
327.19	34.159
327.56	32.927
327.92	33.771
328.29	34.161
328.65	33.057
329.01	34.386
329.38	34.320
329.74	32.410
330.11	34.684
330.47	34.160
330.84	33.732
331.20	33.971
331.56	33.303
331.93	34.352
332.29	34.073
332.66	34.779
333.02	34.735
333.38	35.050
333.75	34.670
334.11	34.520
334.48	34.161
334.84	34.099
335.20	33.727
335.57	33.636
335.93	33.482
336.29	32.784
336.66	33.724
337.02	33.756
337.38	35.093
337.75	33.512
338.11	34.199
338.47	34.254
338.84	35.747
339.20	34.954
339.56	34.945
339.93	33.727
340.29	32.518
340.65	32.888
341.02	34.031
341.38	33.897
341.74	32.105
342.11	33.275
342.47	33.833
342.83	32.877
343.20	34.459
343.56	33.024
343.92	33.684
344.28	32.738
344.65	34.394
345.01	31.566
345.37	33.019
345.73	31.810
346.10	33.419
346.46	33.051
346.82	33.690
347.19	32.331
347.55	31.527
347.91	33.010
348.27	33.196
348.63	32.023
349.00	31.796
349.36	32.348
349.72	32.077
350.08	31.848
350.45	32.221
350.81	32.169
351.17	32.334
351.53	32.514
351.89	31.683
352.26	32.044
352.62	31.997
352.98	32.658
353.34	31.389
353.70	30.851
354.07	32.177
354.43	31.349
354.79	31.134
355.15	32.003
355.51	32.374
355.87	32.245
356.24	32.655
356.60	29.912
356.96	31.295
357.32	31.071
357.68	31.102
358.04	31.275
358.40	31.275
358.77	31.612
359.13	30.466
359.49	31.373
359.85	30.397
360.21	30.463
360.57	31.907
360.93	32.154
361.29	31.822
361.66	31.192
362.02	31.418
362.38	31.863
362.74	32.068
363.10	31.384
363.46	30.374
363.82	31.217
364.18	31.498
364.54	31.426
364.90	31.232
365.26	30.221
365.62	31.045
365.98	31.045
366.35	30.372
366.71	30.947
367.07	31.100
367.43	30.189
367.79	31.049
368.15	31.825
368.51	31.032
368.87	30.764
369.23	31.090
369.59	31.571
369.95	30.588
370.31	30.840
370.67	31.377
371.03	31.760
371.39	31.195
371.75	31.471
372.11	30.725
372.47	30.792
372.83	30.980
373.19	30.130
373.55	30.451
373.91	31.370
374.27	29.622
374.63	30.255
374.99	30.438
375.35	29.867
375.71	30.569
376.07	31.756
376.42	30.468
376.78	31.544
377.14	31.479
377.50	30.927
377.86	30.452
378.22	31.353
378.58	29.198
378.94	30.044
379.30	30.852
379.66	31.282
380.02	31.327
380.38	29.205
380.74	30.612
381.09	30.379
381.45	30.916
381.81	31.450
382.17	31.146
382.53	29.937
382.89	31.481
383.25	30.644
383.61	29.740
383.97	30.957
384.32	30.692
384.68	29.554
385.04	31.039
385.40	30.836
385.76	31.572
386.12	30.699
386.48	31.089
386.83	31.366
387.19	32.220
387.55	31.787
387.91	31.620
388.27	30.779
388.62	32.145
388.98	31.327
389.34	31.539
389.70	31.637
390.06	32.446
390.42	31.907
390.77	31.870
391.13	31.844
391.49	31.155
391.85	31.381
392.20	30.978
392.56	31.818
392.92	31.666
393.28	31.006
393.64	31.355
393.99	31.643
394.35	32.568
394.71	32.309
395.07	31.028
395.42	32.262
395.78	31.170
396.14	31.719
396.50	33.145
396.85	31.723
397.21	31.504
397.57	32.362
397.92	31.130
398.28	31.222
398.64	33.154
399.00	32.401
399.35	30.626
399.71	31.829
400.07	32.229
400.42	32.209
400.78	33.293
401.14	31.951
401.49	32.179
401.85	32.244
402.21	31.976
402.57	31.832
402.92	33.039
403.28	32.167
403.63	32.178
403.99	32.739
404.35	32.364
404.70	32.374
405.06	32.440
405.42	32.439
405.77	32.171
406.13	32.788
406.49	33.590
406.84	32.546
407.20	33.097
407.55	32.993
407.91	33.400
408.27	33.695
408.62	33.353
408.98	32.659
409.34	34.010
409.69	33.419
410.05	33.209
410.40	33.394
410.76	33.274
411.11	32.630
411.47	32.780
411.83	33.170
412.18	33.333
412.54	33.126
412.89	33.253
413.25	33.176
413.60	34.342
413.96	32.423
414.31	32.989
414.67	34.411
415.03	33.245
415.38	33.956
415.74	33.312
416.09	34.749
416.45	34.672
416.80	33.708
417.16	34.517
417.51	33.776
417.87	34.040
418.22	34.448
418.58	34.668
418.93	34.337
419.29	33.927
419.64	35.264
420.00	34.695
420.35	34.493
420.71	34.967
421.06	33.890
421.42	34.561
421.77	34.753
422.12	33.184
422.48	34.053
422.83	34.945
423.19	34.696
423.54	34.939
423.90	35.014
424.25	34.953
424.61	34.702
424.96	34.927
425.31	34.939
425.67	34.888
426.02	34.514
426.38	35.836
426.73	34.699
427.09	35.076
427.44	35.480
427.79	34.560
428.15	35.536
428.50	35.927
428.85	36.651
429.21	34.843
429.56	34.940
429.92	35.229
430.27	34.211
430.62	34.613
430.98	34.977
431.33	35.876
431.68	35.026
432.04	34.398
432.39	35.637
432.74	36.146
433.10	36.220
433.45	37.026
433.80	34.701
434.16	35.363
434.51	35.947
434.86	35.348
435.22	35.353
435.57	36.717
435.92	35.752
436.28	35.350
436.63	36.369
436.98	35.489
437.34	36.852
437.69	36.931
438.04	35.413
438.39	36.418
438.75	36.839
439.10	36.760
439.45	36.482
439.81	36.435
440.16	36.025
440.51	36.145
440.86	36.595
441.22	35.150
441.57	36.200
441.92	37.001
442.27	35.576
442.63	35.861
442.98	36.901
443.33	37.174
443.68	36.035
444.03	37.286
444.39	36.076
444.74	36.797
445.09	36.442
445.44	37.671
445.79	36.121
446.15	36.951
446.50	36.618
446.85	35.457
447.20	36.257
447.55	36.628
447.91	36.624
448.26	36.728
448.61	37.083
448.96	38.649
449.31	37.627
449.66	37.254
450.02	36.546
450.37	36.168
450.72	36.548
451.07	36.746
451.42	36.960
451.77	37.405
452.12	36.721
452.47	36.754
452.83	36.480
453.18	36.736
453.53	37.662
453.88	36.976
454.23	37.418
454.58	37.735
454.93	38.017
455.28	37.344
455.63	36.529
455.98	37.976
456.34	36.558
456.69	37.696
457.04	38.700
457.39	37.171
457.74	36.390
458.09	36.458
458.44	36.887
458.79	35.358
459.14	37.133
459.49	36.311
459.84	35.845
460.19	36.064
460.54	36.343
460.89	37.027
461.24	37.219
461.59	38.408
461.94	36.067
462.29	37.448
462.64	37.460
462.99	36.435
463.34	38.133
463.69	37.148
464.04	36.580
464.39	36.058
464.74	37.195
465.09	37.274
465.44	36.233
465.79	35.682
466.14	35.851
466.49	35.706
466.84	37.011
467.19	36.089
467.54	36.812
467.89	36.915
468.24	37.115
468.59	36.935
468.94	36.408
469.29	35.733
469.64	37.282
469.99	37.415
470.34	36.658
470.68	38.003
471.03	36.327
471.38	37.943
471.73	37.708
472.08	38.355
472.43	36.558
472.78	36.998
473.13	36.329
473.48	36.829
473.83	37.256
474.17	35.657
474.52	36.600
474.87	36.311
475.22	36.622
475.57	36.432
475.92	36.750
476.27	35.964
476.61	36.459
476.96	36.449
477.31	35.531
477.66	36.433
478.01	36.539
478.36	37.229
478.70	36.397
479.05	35.463
479.40	37.206
479.75	35.892
480.10	35.736
480.45	35.126
480.79	35.690
481.14	36.350
481.49	36.070
481.84	35.345
482.19	36.120
482.53	35.138
482.88	36.668
483.23	37.009
483.58	35.896
483.92	36.692
484.27	34.161
484.62	34.871
484.97	35.317
485.31	35.445
485.66	33.628
486.01	32.996
486.36	31.985
486.70	32.211
487.05	33.288
487.40	34.831
487.75	35.022
488.09	35.547
488.44	35.557
488.79	36.564
489.13	36.516
489.48	35.522
489.83	35.477
490.17	36.957
490.52	36.182
490.87	35.369
491.22	34.561
491.56	34.624
491.91	34.435
492.26	34.819
492.60	34.977
492.95	34.565
493.30	34.626
493.64	35.604
493.99	34.215
494.34	35.800
494.68	35.073
495.03	35.855
495.37	34.667
495.72	35.721
496.07	35.963
496.41	33.673
496.76	35.576
497.11	35.119
497.45	34.886
497.80	35.125
498.14	35.556
498.49	35.512
498.84	35.091
499.18	34.571
499.53	34.473
499.87	34.902
500.22	35.374
500.56	35.146
500.91	35.000
501.26	35.183
501.60	35.596
501.95	34.005
502.29	35.426
502.64	35.475
502.98	34.829
503.33	34.141
503.67	34.710
504.02	34.284
504.36	34.722
504.71	34.343
505.06	34.458
505.40	35.051
505.75	34.860
506.09	34.548
506.44	34.780
506.78	33.902
507.13	34.932
507.47	34.747
507.82	35.360
508.16	35.917
508.51	36.479
508.85	34.806
509.19	34.490
509.54	34.745
509.88	34.312
510.23	34.807
510.57	35.501
510.92	34.749
511.26	35.149
511.61	35.529
511.95	33.612
512.30	34.040
512.64	34.390
512.98	35.209
513.33	35.011
513.67	33.885
514.02	34.848
514.36	35.390
514.70	35.196
515.05	34.635
515.39	34.997
515.74	35.473
516.08	35.215
516.42	35.239
516.77	35.786
517.11	34.406
517.46	35.497
517.80	35.250
518.14	34.684
518.49	35.298
518.83	34.773
519.17	34.873
519.52	34.352
519.86	34.683
520.20	35.260
520.55	35.607
520.89	36.253
521.23	36.248
521.58	35.114
521.92	35.456
522.26	34.411
522.61	34.579
522.95	34.745
523.29	34.693
523.64	35.549
523.98	35.120
524.32	35.223
524.66	35.238
525.01	35.294
525.35	35.192
525.69	33.682
526.04	36.137
526.38	35.143
526.72	34.540
527.06	35.217
527.41	34.097
527.75	34.920
528.09	35.260
528.43	34.608
528.78	35.526
529.12	34.121
529.46	35.579
529.80	35.582
530.15	34.953
530.49	34.154
530.83	35.316
531.17	36.227
531.51	34.760
531.86	35.806
532.20	36.050
532.54	35.874
532.88	34.724
533.22	34.041
533.57	34.383
533.91	34.136
534.25	33.961
534.59	34.167
534.93	35.158
535.27	34.158
535.62	34.737
535.96	34.840
536.30	35.029
536.64	35.544
536.98	34.904
537.32	33.904
537.66	34.667
538.01	35.484
538.35	34.842
538.69	35.418
539.03	33.853
539.37	34.058
539.71	33.312
540.05	33.529
540.39	34.618
540.73	33.247
541.07	35.237
541.42	34.964
541.76	34.839
542.10	35.123
542.44	35.695
542.78	35.573
543.12	33.973
543.46	33.770
543.80	34.353
544.14	33.055
544.48	34.540
544.82	33.740
545.16	34.808
545.50	33.355
545.84	33.871
546.18	35.354
546.52	35.169
546.86	34.983
547.20	35.266
547.54	34.603
547.88	34.949
548.22	33.935
548.56	34.088
548.90	33.419
549.24	34.478
549.58	34.652
549.92	35.371
550.26	34.091
550.60	34.647
550.94	35.141
551.28	34.089
551.62	34.723
551.96	32.912
552.30	33.925
552.64	34.618
552.98	34.508
553.32	33.783
553.66	33.470
554.00	33.905
554.34	33.747
554.68	34.764
555.02	34.062
555.36	33.403
555.69	33.288
556.03	33.378
556.37	34.311
556.71	33.492
557.05	34.244
557.39	33.870
557.73	33.310
558.07	34.445
558.41	33.213
558.75	33.799
559.08	33.706
559.42	33.636
559.76	33.529
560.10	33.119
560.44	33.543
560.78	32.868
561.12	32.850
561.45	33.312
561.79	33.289
562.13	32.663
562.47	33.538
562.81	33.054
563.15	32.375
563.48	32.759
563.82	33.920
564.16	32.832
564.50	31.966
564.84	33.249
565.17	33.462
565.51	32.460
565.85	33.629
566.19	32.686
566.52	33.312
566.86	32.068
567.20	33.019
567.54	31.792
567.88	32.156
568.21	32.169
568.55	31.395
568.89	31.907
569.23	30.838
569.56	30.607
569.90	30.377
570.24	30.463
570.57	29.956
570.91	29.573
571.25	29.957
571.59	29.426
571.92	29.983
572.26	30.474
572.60	29.760
572.93	29.655
573.27	29.607
573.61	30.067
573.95	30.000
574.28	29.221
574.62	29.033
574.96	29.223
575.29	29.074
575.63	29.599
575.97	29.576
576.30	29.873
576.64	29.012
576.98	29.315
577.31	28.951
577.65	28.925
577.98	28.629
578.32	28.455
578.66	29.015
578.99	29.057
579.33	29.509
579.67	28.947
580.00	29.154
580.34	29.307
580.67	28.882
581.01	29.008
581.35	28.268
581.68	28.380
582.02	28.372
582.35	28.391
582.69	28.861
583.02	28.834
583.36	29.583
583.70	30.195
584.03	29.728
584.37	29.802
584.70	30.016
585.04	29.281
585.37	28.914
585.71	29.065
586.04	29.041
586.38	29.519
586.72	29.660
587.05	28.579
587.39	29.261
587.72	28.730
588.06	28.949
588.39	29.081
588.73	29.422
589.06	29.667
589.40	30.000
589.73	30.165
590.07	30.214
590.40	29.960
590.73	30.133
591.07	30.199
591.40	30.240
591.74	31.515
592.07	29.712
592.41	29.888
592.74	28.577
593.08	28.914
593.41	28.345
593.75	28.264
594.08	28.897
594.41	29.021
594.75	29.649
595.08	28.883
595.42	28.967
595.75	28.668
596.09	29.929
596.42	30.570
596.75	29.802
597.09	30.519
597.42	29.089
597.75	29.711
598.09	29.913
598.42	28.694
598.76	28.537
599.09	27.974
599.42	27.547
599.76	29.026
600.09	28.379
600.42	28.634
600.76	28.571
601.09	28.670
601.42	28.881
601.76	29.108
602.09	28.933
602.42	29.140
602.76	29.141
603.09	28.914
603.42	29.207
603.76	29.116
604.09	29.159
604.42	29.841
604.76	29.439
605.09	29.227
605.42	29.585
605.75	28.394
606.09	28.386
606.42	28.647
606.75	28.577
607.09	29.050
607.42	28.455
607.75	28.186
608.08	29.006
608.42	29.494
608.75	28.900
609.08	28.677
609.41	27.891
609.75	29.061
610.08	28.841
610.41	29.050
610.74	28.666
611.07	29.200
611.41	28.459
611.74	29.412
612.07	28.882
612.40	30.063
612.73	28.474
613.07	29.041
613.40	29.805
613.73	28.212
614.06	28.441
614.39	28.002
614.72	28.789
615.06	29.202
615.39	27.813
615.72	27.301
616.05	27.911
616.38	29.016
616.71	29.988
617.05	29.859
617.38	29.465
617.71	28.769
618.04	29.928
618.37	29.746
618.70	28.874
619.03	30.000
619.36	29.328
619.69	30.845
620.03	29.808
620.36	29.144
620.69	30.411
621.02	30.310
621.35	29.522
621.68	29.829
622.01	30.650
622.34	30.182
622.67	30.570
623.00	29.054
623.33	28.735
623.66	29.021
623.99	30.486
624.32	28.959
624.65	29.732
624.99	27.975
625.32	29.399
625.65	29.602
625.98	29.131
626.31	30.482
626.64	31.429
626.97	30.091
627.30	29.426
627.63	30.517
627.96	31.034
628.29	30.009
628.62	29.918
628.95	32.170
629.28	29.927
629.61	30.706
629.94	30.857
630.26	30.791
630.59	30.315
630.92	30.460
631.25	29.319
631.58	30.531
631.91	30.629
632.24	28.270
632.57	31.689
632.90	31.360
633.23	30.537
633.56	32.655
633.89	31.257
634.22	30.760
634.55	31.598
634.88	30.659
635.20	33.094
635.53	30.361
635.86	30.569
636.19	29.765
636.52	30.104
636.85	29.439
637.18	29.608
637.51	31.797
637.83	28.977
638.16	30.946
638.49	31.738
638.82	31.226
639.15	33.000
639.48	33.167
639.81	33.110
640.13	32.422
640.46	30.604
640.79	31.176
641.12	29.986
641.45	32.123
641.77	32.401
642.10	32.310
642.43	31.982
642.76	32.817
643.09	33.129
643.41	30.956
643.74	33.179
644.07	31.402
644.40	32.362
644.73	33.858
645.05	32.647
645.38	30.964
645.71	33.172
646.04	34.551
646.36	34.224
646.69	35.452
647.02	31.803
647.35	33.849
647.67	33.274
648.00	32.683
648.33	32.508
648.66	30.303
648.98	30.135
649.31	30.344
649.64	31.091
649.96	31.595
650.29	32.385
650.62	32.686
650.94	35.332
651.27	35.473
651.60	33.278
651.92	32.748
652.25	32.248
652.58	30.685
652.90	30.332
653.23	31.587
653.56	31.496
653.88	32.964
654.21	32.701
654.54	31.518
654.86	33.178
655.19	28.784
655.52	21.877
655.84	18.904
656.17	25.168
656.49	35.112
656.82	37.668
657.15	29.528
657.47	22.276
657.80	17.669
658.13	18.754
658.45	28.780
658.78	29.848
659.10	31.897
659.43	34.615
659.75	34.480
660.08	37.468
660.41	38.361
660.73	40.025
661.06	36.306
661.38	36.000
661.71	36.538
662.03	35.700
662.36	31.809
662.68	33.333
663.01	34.343
663.33	36.518
663.66	35.294
663.98	35.205
664.31	34.664
664.63	30.769
664.96	29.577
665.28	34.016
665.61	30.994
665.93	35.815
666.26	32.860
666.58	34.310
666.91	36.152
667.23	36.854
667.56	34.773
667.88	34.188
668.21	35.608
668.53	31.453
668.86	34.848
669.18	34.328
669.50	35.217
669.83	36.383
670.15	34.000
670.48	32.026
670.80	35.991
671.13	35.669
671.45	34.894
671.77	30.754
672.10	32.348
672.42	30.389
672.75	31.509
673.07	31.690
673.39	31.465
673.72	32.422
674.04	34.510
674.37	33.010
674.69	32.311
675.01	31.172
675.34	36.345
675.66	35.368
675.98	34.216
676.31	35.294
676.63	33.758
676.95	34.172
677.28	34.813
677.60	36.044
677.92	36.076
678.25	33.265
678.57	32.470
678.89	33.066
679.22	32.613
679.54	32.634
679.86	34.128
680.18	30.769
680.51	31.915
680.83	34.875
681.15	33.019
681.48	32.136
681.80	32.882
682.12	31.801
682.44	29.594
682.77	36.253
683.09	36.052
683.41	34.812
683.73	33.554
684.06	32.851
684.38	31.898
684.70	31.589
685.02	31.520
685.34	30.220
685.67	31.469
685.99	29.381
686.31	31.399
686.63	28.622
686.96	31.250
687.28	31.047
687.60	32.609
687.92	32.907
688.24	32.319
688.56	34.739
688.89	34.855
689.21	33.624
689.53	31.942
689.85	32.816
690.17	31.263
690.49	32.484
690.82	33.879
691.14	31.473
691.46	34.810
691.78	31.526
692.10	34.504
692.42	35.729
692.74	34.440
693.06	32.128
693.39	34.908
693.71	34.498
694.03	33.263
694.35	33.117
694.67	32.952
694.99	35.122
695.31	34.069
695.63	35.646
695.95	35.941
696.27	34.010
696.59	31.347
696.91	35.233
697.23	27.934
697.56	34.115
697.88	30.879
698.20	32.500
698.52	34.624
698.84	31.403
699.16	31.106
699.48	31.354
699.80	31.884
700.12	40.260
700.44	38.196
700.76	35.912
701.08	36.207
701.40	35.196
701.72	38.484
702.04	41.477
702.36	34.561
702.68	37.677
703.00	36.565
703.32	33.777
703.64	34.316
703.96	38.162
704.28	36.047
704.60	36.070
704.91	36.499
705.23	36.950
705.55	40.199
705.87	42.193
706.19	39.576
706.51	38.629
706.83	36.061
707.15	38.375
707.47	33.838
707.79	34.889
708.11	34.932
708.43	35.952
708.74	31.378
709.06	32.727
709.38	34.908
709.70	39.535
710.02	40.356
710.34	36.061
710.66	37.910
710.98	39.773
711.29	36.628
711.61	40.413
711.93	35.577
712.25	37.621
712.57	40.809
712.89	38.408
713.20	37.690
713.52	39.803
713.84	39.241
714.16	35.366
714.48	35.920
714.80	39.210
715.11	36.599
715.43	37.389
715.75	35.362
716.07	37.700
716.39	39.498
716.70	35.548
717.02	41.367
717.34	38.163
717.66	42.537
717.97	42.231
718.29	39.259
718.61	41.241
718.93	39.706
719.24	37.370
719.56	38.305
719.88	34.237
720.20	40.878
720.51	40.767
720.83	42.007
721.15	33.955
721.46	37.589
721.78	41.219
722.10	41.132
722.42	43.985
722.73	40.075
723.05	40.164
723.37	36.842
723.68	40.154
724.00	42.683
724.32	43.548
724.63	42.276
724.95	42.678
725.27	39.676
725.58	39.453
725.90	40.876
726.22	39.623
726.53	36.458
726.85	37.201
727.16	40.569
727.48	36.879
727.80	40.152
728.11	40.217
728.43	39.231
728.74	40.143
729.06	39.051
729.38	38.971
729.69	39.502
730.01	40.273
730.32	36.458
730.64	38.462
730.96	36.304
731.27	40.728
731.59	37.615
731.90	37.318
732.22	38.509
732.53	33.437
732.85	36.859
733.16	37.942
733.48	37.542
733.80	35.065
734.11	38.854
734.43	37.278
734.74	34.000
735.06	33.524
735.37	39.306
735.69	36.943
736.00	39.869
736.32	39.252
736.63	33.546
736.95	38.658
737.26	30.612
737.58	36.129
737.89	35.786
738.21	40.614
738.52	36.429
738.83	38.868
739.15	40.769
739.46	42.701
739.78	37.153
740.09	36.000
740.41	38.065
740.72	35.540
741.04	36.667
741.35	44.167
741.66	45.778
741.98	47.642
742.29	44.976
742.61	45.259
742.92	38.914
743.23	43.590
743.55	41.200
743.86	38.158
744.18	43.805
744.49	45.455
744.80	41.315
745.12	46.818
745.43	39.207
745.74	41.892
746.06	40.826
746.37	41.704
746.68	42.081
747.00	45.833
747.31	39.524
747.62	36.726
747.94	44.053
748.25	37.872
748.56	42.291
748.88	40.594
749.19	50.000
749.50	44.651
749.82	40.244
750.13	37.551
750.44	36.496
750.75	42.105
751.07	37.942
751.38	40.070
751.69	38.267
752.01	37.970
752.32	38.989
752.63	40.426
752.94	39.754
753.26	47.600
753.57	33.740
753.88	37.109
754.19	34.643
754.51	39.236
754.82	37.184
755.13	40.377
755.44	37.970
755.75	36.861
756.07	38.652
756.38	36.131
756.69	39.262
757.00	32.036
757.31	32.641
757.63	32.164
757.94	32.172
758.25	30.147
758.56	32.593
758.87	32.258
759.18	34.545
759.50	35.110
759.81	30.530
760.12	32.500
760.43	35.817
760.74	31.793
761.05	35.311
761.36	34.225
761.67	38.352
761.99	31.677
762.30	37.153
762.61	38.550
762.92	39.062
763.23	39.496
763.54	42.800
763.85	36.719
764.16	42.308
764.47	44.487
764.78	35.336
765.10	32.911
765.41	32.743
765.72	32.635
766.03	36.991
766.34	35.000
766.65	41.277
766.96	42.735
767.27	51.777
767.58	52.604
767.89	46.842
768.20	55.747
768.51	42.132
768.82	38.991
769.13	42.276
769.44	40.081
769.75	43.348
770.06	38.532
770.37	42.081
770.68	42.130
770.99	40.889
771.30	35.656
771.61	47.085
771.92	42.213
772.23	45.378
772.54	42.564
772.85	49.738
773.16	44.149
773.47	52.174
773.78	47.716
774.09	49.405
774.39	48.538
774.70	49.383
775.01	54.348
775.32	60.131
775.63	53.289
775.94	48.201
776.25	71.654
776.56	63.433
776.87	61.475
777.18	57.031
777.48	64.122
777.79	62.121
778.10	63.704
778.41	59.821
778.72	52.555
779.03	50.336
779.34	48.322
779.65	54.054
779.95	47.853
780.26	51.634
780.57	55.172
780.88	71.094
781.19	52.632
781.50	55.405
781.80	51.572
782.11	48.023
782.42	49.367
782.73	47.853
783.04	52.703
783.34	57.746
783.65	58.904
783.96	56.716
784.27	53.846
784.57	51.079
784.88	57.407
785.19	65.079
785.50	69.811
785.81	63.433
786.11	63.115
786.42	58.140
786.73	50.442
787.04	71.698
787.34	68.750
787.65	63.000
787.96	58.559
788.26	56.198
788.57	65.254
788.88	67.769
789.19	56.944
789.49	71.212
789.80	56.489
790.11	72.381
790.41	70.297
790.72	86.747
791.03	65.217
791.33	73.256
791.64	73.196
791.95	75.248
792.25	73.333
792.56	81.818
792.87	83.333
793.17	88.608
793.48	81.609
793.79	72.414
794.09	76.136
794.40	67.227
794.70	63.235
795.01	46.667
795.32	58.993
795.62	56.693
795.93	62.069
796.23	68.142
796.54	83.529
796.85	87.838
797.15	100.000
797.46	77.273
797.76	89.157
798.07	101.266
798.37	96.923
798.68	84.848
798.99	84.507
799.29	81.818
799.60	68.182
799.90	83.562
800.21	86.567
800.51	96.552
800.82	105.263
801.12	104.918
801.43	103.030
801.73	74.324
802.04	90.476
802.34	74.074
802.65	93.750
802.95	115.254
803.26	106.250
803.56	71.429
803.87	84.615
804.17	94.118
804.48	107.407
804.78	98.276
805.09	86.765
805.39	115.385
805.70	94.643
806.00	111.475
806.30	81.818
806.61	95.122
806.91	62.025
807.22	75.000
807.52	83.582
807.83	95.775
808.13	82.813
808.43	101.667
808.74	77.632
809.04	98.551
809.35	85.075
809.65	82.895
809.95	119.355
810.26	93.220
810.56	107.937
810.86	136.364
811.17	150.000
811.47	100.000
811.77	107.407
812.08	110.909
812.38	116.000
812.69	147.222
812.99	140.909
813.29	130.612
813.59	121.429
813.90	140.816
814.20	103.636
814.50	83.077
814.81	97.059
815.11	126.531
815.41	95.082
815.72	145.238
816.02	127.273
816.32	116.667
816.62	125.000
816.93	117.073
817.23	140.476
817.53	150.000
817.84	169.697
818.14	128.261
818.44	113.333
818.74	170.588
819.04	132.500
819.35	154.286
819.65	176.471
819.95	185.714
820.25	235.000
820.56	187.179
820.86	143.182
821.16	151.163
821.46	153.846
821.76	150.000
822.07	154.286
822.37	167.500
822.67	175.758
822.97	115.686
823.27	207.143
823.57	154.054
823.88	182.500
824.18	223.333
824.48	152.381
824.78	232.000
825.08	170.833
825.38	189.189
825.69	114.634
825.99	195.833
826.29	179.310
826.59	157.895
826.89	134.211
827.19	176.471
827.49	193.548
827.79	138.636
828.09	156.818
828.39	119.149
828.70	130.612
829.00	196.296
829.30	170.968
829.60	162.500
829.90	266.667
830.20	175.000
830.50	173.913
830.80	186.957
831.10	203.333
831.40	160.000
831.70	182.609
832.00	226.923
832.30	222.222
832.60	268.750
832.90	210.000
833.20	371.429
833.50	193.548
833.80	179.310
834.10	206.250
834.40	257.692
834.70	316.667
835.00	323.810
835.30	202.857
835.60	338.462
835.90	213.793
836.20	285.714
836.50	179.310
836.80	184.000
837.10	163.889
837.40	228.571
837.70	323.529
838.00	200.000
838.30	238.095
838.60	328.571
838.90	223.077
839.19	280.000
839.49	371.429
839.79	310.000
840.09	270.000
840.39	280.952
840.69	278.261
840.99	272.222
841.29	530.000
841.59	458.333
841.88	400.000
842.18	200.000
842.48	319.048
842.78	206.667
843.08	221.739
843.38	218.750
843.68	1066.667
843.97	257.692
844.27	193.103
844.57	314.286
844.87	318.750
845.17	214.815
845.47	1600.000
845.76	422.222
846.06	317.647
846.36	487.500
846.66	385.714
846.96	331.250
847.25	500.000
847.55	418.182
847.85	269.565
848.15	460.000
848.44	357.143
848.74	294.444
849.04	294.118
849.34	440.000
849.63	242.105
849.93	472.727
850.23	980.000
850.53	392.857
850.82	2050.000
851.12	-5400.000
851.42	4100.000
851.71	260.000
852.01	-933.333
852.31	229.167
852.61	1766.667
852.90	319.048
853.20	256.000
853.50	341.176
853.79	252.381
854.09	200.000
854.39	356.250
854.68	202.703
854.98	206.452
855.28	153.333
855.57	237.931
855.87	244.444
856.17	294.737
856.46	286.667
856.76	288.235
857.05	213.793
857.35	254.167
857.65	333.333
857.94	282.609
858.24	265.385
858.53	325.000
858.83	227.273
859.13	373.333
859.42	0.000
859.72	600.000
860.01	409.091
860.31	204.545
860.60	236.842
860.90	278.261
861.20	588.889
861.49	450.000
861.79	-4900.000
862.08	650.000
862.38	261.905
862.67	307.692
862.97	323.529
863.26	477.778
863.56	300.000
863.85	425.000
864.15	675.000
864.44	366.667
864.74	1000.000
865.03	687.500
865.33	273.684
865.62	409.091
865.92	492.308
866.21	316.667
866.51	0.000
866.80	427.273
867.10	1120.000
867.39	438.462
867.69	472.727
867.98	263.158
868.27	509.091
868.57	336.842
868.86	-5800.000
869.16	356.250
869.45	2200.000
869.75	-4300.000
870.04	425.000
870.33	657.143
870.63	1250.000
870.92	2700.000
871.22	742.857
871.51	335.294
871.80	233.333
872.10	350.000
>>>>>End Processed Spectral Data<<<<<
