SpectraSuite Data File
++++++++++++++++++++++++++++++++++++
Date: Wed May 13 19:58:50 PDT 2015
User: schluterlab
Dark Spectrum Present: Yes
Reference Spectrum Present: Yes
Number of Sampled Component Spectra: 1
Spectrometers: USB2E3373
Integration Time (usec): 3000 (USB2E3373)
Spectra Averaged: 3 (USB2E3373)
Boxcar Smoothing: 0 (USB2E3373)
Correct for Electrical Dark: No (USB2E3373)
Strobe/Lamp Enabled: No (USB2E3373)
Correct for Detector Non-linearity: No (USB2E3373)
Correct for Stray Light: No (USB2E3373)
Number of Pixels in Processed Spectrum: 2048
>>>>>Begin Processed Spectral Data<<<<<
178.53	0.000
178.91	-1300.000
179.29	-1225.000
179.67	-166.667
180.04	-1200.000
180.42	2450.000
180.80	860.000
181.18	-975.000
181.56	685.714
181.94	0.000
182.31	-614.286
182.69	1533.333
183.07	-600.000
183.45	-444.444
183.83	500.000
184.20	-360.000
184.58	2350.000
184.96	4300.000
185.34	-880.000
185.72	-612.500
186.09	-1950.000
186.47	2300.000
186.85	2850.000
187.23	4900.000
187.61	-1666.667
187.98	1450.000
188.36	581.818
188.74	518.182
189.12	-980.000
189.49	590.000
189.87	-5200.000
190.25	-1300.000
190.63	421.429
191.00	476.923
191.38	883.333
191.76	-1150.000
192.14	1675.000
192.51	575.000
192.89	933.333
193.27	487.500
193.65	-1050.000
194.02	550.000
194.40	1020.000
194.78	530.000
195.15	533.333
195.53	570.000
195.91	-2550.000
196.29	337.500
196.66	389.474
197.04	-400.000
197.42	0.000
197.79	660.000
198.17	-4600.000
198.55	714.286
198.92	637.500
199.30	960.000
199.68	0.000
200.05	311.111
200.43	928.571
200.81	3400.000
201.18	1933.333
201.56	-1733.333
201.94	533.333
202.31	544.444
202.69	416.667
203.07	540.000
203.44	0.000
203.82	1300.000
204.19	814.286
204.57	414.286
204.95	725.000
205.32	1433.333
205.70	472.727
206.08	414.286
206.45	2800.000
206.83	443.750
207.20	966.667
207.58	760.000
207.96	311.111
208.33	762.500
208.71	-800.000
209.08	785.714
209.46	555.556
209.84	500.000
210.21	-1533.333
210.59	1200.000
210.96	-600.000
211.34	2750.000
211.71	580.000
212.09	816.667
212.46	0.000
212.84	1866.667
213.22	1350.000
213.59	-4600.000
213.97	800.000
214.34	742.857
214.72	463.636
215.09	1060.000
215.47	-2500.000
215.84	-2200.000
216.22	1700.000
216.59	321.429
216.97	1175.000
217.34	445.455
217.72	-900.000
218.09	0.000
218.47	-4800.000
218.84	644.444
219.22	685.714
219.59	1600.000
219.97	-557.143
220.34	920.000
220.72	-2100.000
221.09	428.571
221.47	1450.000
221.84	-1083.333
222.22	0.000
222.59	1250.000
222.97	-2550.000
223.34	1160.000
223.72	415.385
224.09	1180.000
224.46	2400.000
224.84	-4500.000
225.21	-1120.000
225.59	-4900.000
225.96	580.000
226.34	275.000
226.71	2850.000
227.08	562.500
227.46	590.000
227.83	-1175.000
228.21	-2450.000
228.58	666.667
228.95	-2500.000
229.33	-2350.000
229.70	1666.667
230.08	785.714
230.45	-840.000
230.82	375.000
231.20	900.000
231.57	585.714
231.95	500.000
232.32	254.545
232.69	490.909
233.07	642.857
233.44	323.077
233.81	-1600.000
234.19	300.000
234.56	475.000
234.93	366.667
235.31	590.909
235.68	400.000
236.05	428.571
236.43	190.909
236.80	300.000
237.17	5500.000
237.55	280.952
237.92	264.286
238.29	300.000
238.67	212.903
239.04	258.621
239.41	188.889
239.79	130.435
240.16	171.429
240.53	186.364
240.91	137.255
241.28	166.000
241.65	124.000
242.02	120.290
242.40	117.742
242.77	131.667
243.14	97.849
243.51	114.607
243.89	100.000
244.26	98.889
244.63	96.774
245.00	105.319
245.38	103.960
245.75	92.523
246.12	89.908
246.49	88.321
246.87	88.800
247.24	96.923
247.61	94.286
247.98	85.621
248.36	81.757
248.73	84.713
249.10	84.076
249.47	79.096
249.84	76.471
250.22	78.610
250.59	78.107
250.96	76.263
251.33	73.934
251.70	76.238
252.08	71.429
252.45	73.543
252.82	68.696
253.19	68.511
253.56	72.157
253.94	72.614
254.31	69.922
254.68	70.385
255.05	66.790
255.42	72.358
255.79	69.485
256.16	69.314
256.54	70.318
256.91	70.107
257.28	62.590
257.65	65.017
258.02	63.043
258.39	63.722
258.76	66.555
259.14	65.476
259.51	59.271
259.88	62.422
260.25	66.767
260.62	60.694
260.99	63.043
261.36	64.264
261.73	67.335
262.10	65.116
262.47	66.197
262.85	63.231
263.22	60.969
263.59	64.387
263.96	64.286
264.33	56.919
264.70	60.526
265.07	63.939
265.44	60.101
265.81	57.664
266.18	62.060
266.55	60.976
266.92	58.968
267.29	61.806
267.66	58.945
268.03	58.864
268.40	61.916
268.77	59.427
269.14	56.081
269.51	56.885
269.88	59.907
270.25	58.916
270.62	58.652
270.99	60.645
271.36	57.511
271.73	60.514
272.10	54.565
272.47	61.075
272.84	58.442
273.21	57.023
273.58	55.459
273.95	54.298
274.32	54.545
274.69	58.244
275.06	55.906
275.43	58.298
275.80	55.311
276.17	57.637
276.54	56.549
276.91	55.929
277.28	53.906
277.65	54.739
278.02	59.627
278.39	58.594
278.76	54.909
279.13	55.094
279.50	54.935
279.87	56.175
280.23	57.086
280.60	56.093
280.97	55.083
281.34	54.513
281.71	55.818
282.08	57.006
282.45	54.545
282.82	56.838
283.19	52.763
283.56	50.702
283.92	52.961
284.29	53.439
284.66	53.721
285.03	54.611
285.40	52.113
285.77	53.704
286.14	53.195
286.51	52.167
286.87	53.504
287.24	54.723
287.61	53.130
287.98	51.136
288.35	49.287
288.72	48.910
289.08	52.113
289.45	50.247
289.82	51.382
290.19	47.096
290.56	48.545
290.93	46.677
291.29	49.847
291.66	47.198
292.03	48.401
292.40	49.927
292.77	44.527
293.13	45.224
293.50	46.939
293.87	45.778
294.24	44.741
294.60	46.725
294.97	47.529
295.34	47.109
295.71	45.455
296.08	42.877
296.44	43.466
296.81	43.461
297.18	44.715
297.55	42.744
297.91	43.799
298.28	44.980
298.65	42.167
299.02	43.083
299.38	43.028
299.75	39.892
300.12	42.401
300.48	41.250
300.85	41.307
301.22	41.019
301.59	41.540
301.95	41.562
302.32	42.490
302.69	42.055
303.05	40.606
303.42	39.012
303.79	40.430
304.15	40.210
304.52	39.166
304.89	38.908
305.25	39.675
305.62	39.977
305.99	40.968
306.35	38.143
306.72	40.471
307.09	41.065
307.45	40.878
307.82	38.281
308.19	39.845
308.55	39.159
308.92	39.420
309.29	38.015
309.65	40.085
310.02	38.901
310.38	39.462
310.75	40.338
311.12	39.611
311.48	40.752
311.85	40.252
312.22	39.334
312.58	39.709
312.95	41.183
313.31	39.126
313.68	40.644
314.05	42.308
314.41	41.206
314.78	41.390
315.14	41.212
315.51	43.563
315.87	42.871
316.24	42.900
316.61	42.788
316.97	42.661
317.34	43.933
317.70	44.264
318.07	45.236
318.43	46.771
318.80	46.860
319.16	46.234
319.53	46.623
319.89	49.238
320.26	49.900
320.62	49.901
320.99	51.717
321.35	50.505
321.72	54.517
322.08	54.294
322.45	57.015
322.81	56.880
323.18	59.249
323.54	58.163
323.91	58.868
324.27	62.428
324.64	62.162
325.00	61.497
325.37	64.968
325.73	66.607
326.10	66.549
326.46	69.803
326.83	70.751
327.19	73.185
327.56	74.129
327.92	74.978
328.29	76.309
328.65	78.545
329.01	78.791
329.38	79.741
329.74	78.947
330.11	82.187
330.47	81.818
330.84	83.824
331.20	82.969
331.56	84.037
331.93	87.870
332.29	84.383
332.66	87.522
333.02	87.203
333.38	87.534
333.75	87.790
334.11	89.591
334.48	87.933
334.84	90.625
335.20	90.455
335.57	90.481
335.93	88.929
336.29	90.659
336.66	92.606
337.02	90.407
337.38	93.148
337.75	91.355
338.11	93.196
338.47	95.856
338.84	94.867
339.20	93.670
339.56	94.161
339.93	94.909
340.29	94.293
340.65	93.761
341.02	95.812
341.38	95.018
341.74	94.386
342.11	95.197
342.47	95.683
342.83	95.462
343.20	96.277
343.56	94.271
343.92	97.368
344.28	96.514
344.65	97.936
345.01	94.360
345.37	96.913
345.73	98.646
346.10	97.442
346.46	96.695
346.82	97.694
347.19	97.577
347.55	95.320
347.91	98.948
348.27	98.767
348.63	96.656
349.00	98.463
349.36	100.246
349.72	96.632
350.08	96.434
350.45	99.593
350.81	100.244
351.17	99.757
351.53	99.918
351.89	99.257
352.26	100.631
352.62	99.599
352.98	98.703
353.34	101.068
353.70	101.473
354.07	101.694
354.43	99.206
354.79	102.494
355.15	101.277
355.51	101.119
355.87	104.980
356.24	103.420
356.60	100.642
356.96	104.103
357.32	103.925
357.68	103.858
358.04	101.504
358.40	103.246
358.77	102.660
359.13	102.920
359.49	104.157
359.85	103.651
360.21	106.300
360.57	105.914
360.93	106.538
361.29	104.913
361.66	103.870
362.02	105.075
362.38	106.388
362.74	107.887
363.10	105.329
363.46	104.329
363.82	107.256
364.18	106.094
364.54	107.801
364.90	108.994
365.26	108.162
365.62	110.665
365.98	109.058
366.35	107.450
366.71	109.906
367.07	110.415
367.43	112.482
367.79	111.706
368.15	110.776
368.51	110.683
368.87	111.064
369.23	111.924
369.59	112.672
369.95	111.985
370.31	110.043
370.67	112.101
371.03	113.184
371.39	113.630
371.75	113.824
372.11	111.807
372.47	113.270
372.83	116.499
373.19	112.717
373.55	116.260
373.91	117.452
374.27	113.196
374.63	115.709
374.99	113.630
375.35	113.957
375.71	115.216
376.07	116.049
376.42	117.813
376.78	117.429
377.14	117.164
377.50	117.417
377.86	116.356
378.22	116.561
378.58	115.977
378.94	117.096
379.30	118.384
379.66	116.561
380.02	117.568
380.38	115.726
380.74	117.707
381.09	118.643
381.45	119.607
381.81	119.410
382.17	119.045
382.53	119.182
382.89	120.247
383.25	121.326
383.61	122.057
383.97	120.826
384.32	119.152
384.68	118.773
385.04	119.852
385.40	120.495
385.76	118.980
386.12	121.762
386.48	121.586
386.83	122.835
387.19	124.181
387.55	121.336
387.91	121.705
388.27	120.478
388.62	123.356
388.98	121.499
389.34	122.841
389.70	122.134
390.06	122.053
390.42	123.476
390.77	122.455
391.13	124.761
391.49	121.574
391.85	121.069
392.20	123.596
392.56	124.432
392.92	124.838
393.28	121.538
393.64	123.441
393.99	121.686
394.35	123.077
394.71	122.271
395.07	121.246
395.42	126.391
395.78	123.092
396.14	123.402
396.50	124.624
396.85	124.921
397.21	123.551
397.57	123.497
397.92	124.038
398.28	123.038
398.64	121.505
399.00	125.406
399.35	124.760
399.71	123.090
400.07	123.063
400.42	123.497
400.78	122.859
401.14	125.427
401.49	125.075
401.85	122.505
402.21	123.892
402.57	125.170
402.92	125.158
403.28	124.922
403.63	125.743
403.99	127.325
404.35	123.152
404.70	124.341
405.06	123.762
405.42	125.951
405.77	124.571
406.13	122.404
406.49	124.009
406.84	122.977
407.20	124.468
407.55	124.505
407.91	127.467
408.27	124.250
408.62	122.878
408.98	124.632
409.34	125.031
409.69	124.903
410.05	125.774
410.40	125.260
410.76	125.986
411.11	120.929
411.47	123.642
411.83	124.557
412.18	123.129
412.54	126.090
412.89	123.313
413.25	123.200
413.60	125.880
413.96	121.676
414.31	123.998
414.67	123.701
415.03	125.762
415.38	123.325
415.74	124.051
416.09	124.886
416.45	125.301
416.80	125.248
417.16	124.330
417.51	125.547
417.87	123.378
418.22	123.849
418.58	125.500
418.93	124.140
419.29	123.552
419.64	126.008
420.00	124.451
420.35	122.667
420.71	124.985
421.06	124.523
421.42	122.807
421.77	122.926
422.12	124.256
422.48	124.447
422.83	126.150
423.19	123.646
423.54	125.421
423.90	125.507
424.25	124.344
424.61	123.631
424.96	125.539
425.31	124.640
425.67	124.494
426.02	122.971
426.38	129.060
426.73	125.161
427.09	123.891
427.44	124.669
427.79	124.497
428.15	124.226
428.50	124.751
428.85	125.745
429.21	124.793
429.56	125.454
429.92	123.956
430.27	125.323
430.62	122.273
430.98	124.183
431.33	123.557
431.68	126.230
432.04	123.749
432.39	125.985
432.74	126.451
433.10	128.297
433.45	126.939
433.80	125.499
434.16	125.427
434.51	123.263
434.86	125.143
435.22	126.515
435.57	125.897
435.92	127.326
436.28	127.343
436.63	123.400
436.98	125.644
437.34	125.641
437.69	127.013
438.04	126.082
438.39	125.433
438.75	125.799
439.10	126.425
439.45	125.266
439.81	126.707
440.16	125.127
440.51	126.245
440.86	126.578
441.22	125.751
441.57	126.380
441.92	127.175
442.27	127.234
442.63	124.855
442.98	127.042
443.33	124.022
443.68	124.677
444.03	127.721
444.39	125.949
444.74	126.028
445.09	125.013
445.44	124.658
445.79	124.443
446.15	122.816
446.50	125.471
446.85	125.745
447.20	125.446
447.55	127.080
447.91	126.034
448.26	124.318
448.61	126.173
448.96	126.301
449.31	127.784
449.66	126.168
450.02	123.565
450.37	124.320
450.72	125.888
451.07	124.436
451.42	124.559
451.77	125.426
452.12	123.557
452.47	124.254
452.83	126.224
453.18	125.244
453.53	125.727
453.88	127.702
454.23	124.567
454.58	124.470
454.93	127.273
455.28	125.374
455.63	127.184
455.98	128.036
456.34	125.377
456.69	125.736
457.04	125.944
457.39	124.956
457.74	124.376
458.09	123.289
458.44	125.086
458.79	123.590
459.14	124.210
459.49	124.752
459.84	123.601
460.19	123.335
460.54	121.123
460.89	124.520
461.24	124.772
461.59	124.114
461.94	122.195
462.29	125.341
462.64	123.165
462.99	122.251
463.34	124.733
463.69	124.078
464.04	122.957
464.39	120.116
464.74	121.866
465.09	122.618
465.44	120.997
465.79	122.875
466.14	118.555
466.49	121.079
466.84	122.183
467.19	120.398
467.54	123.187
467.89	120.768
468.24	121.001
468.59	121.429
468.94	120.586
469.29	124.807
469.64	124.565
469.99	124.019
470.34	122.787
470.68	124.784
471.03	121.701
471.38	126.199
471.73	120.053
472.08	122.697
472.43	121.859
472.78	120.935
473.13	121.502
473.48	120.849
473.83	121.951
474.17	120.100
474.52	121.898
474.87	121.483
475.22	121.126
475.57	119.183
475.92	120.074
476.27	118.715
476.61	119.581
476.96	120.286
477.31	118.838
477.66	121.116
478.01	117.773
478.36	119.884
478.70	120.145
479.05	118.637
479.40	119.447
479.75	119.065
480.10	119.682
480.45	118.467
480.79	118.634
481.14	119.814
481.49	118.462
481.84	117.513
482.19	120.400
482.53	117.615
482.88	118.893
483.23	119.206
483.58	117.880
483.92	118.322
484.27	115.686
484.62	116.034
484.97	114.387
485.31	116.233
485.66	111.480
486.01	109.138
486.36	105.962
486.70	107.046
487.05	107.939
487.40	110.342
487.75	111.501
488.09	112.800
488.44	113.376
488.79	116.492
489.13	116.081
489.48	116.028
489.83	115.969
490.17	116.879
490.52	114.792
490.87	116.915
491.22	116.508
491.56	114.943
491.91	114.425
492.26	115.296
492.60	116.037
492.95	115.295
493.30	113.037
493.64	115.399
493.99	115.970
494.34	115.957
494.68	115.430
495.03	114.380
495.37	113.820
495.72	117.300
496.07	114.896
496.41	112.035
496.76	114.820
497.11	111.796
497.45	114.020
497.80	115.211
498.14	113.671
498.49	116.341
498.84	114.190
499.18	113.524
499.53	112.583
499.87	113.374
500.22	112.106
500.56	114.563
500.91	113.894
501.26	112.897
501.60	115.804
501.95	110.357
502.29	113.496
502.64	113.501
502.98	112.856
503.33	110.283
503.67	111.508
504.02	111.506
504.36	109.780
504.71	112.213
505.06	111.566
505.40	111.230
505.75	109.547
506.09	111.273
506.44	112.926
506.78	111.934
507.13	113.882
507.47	111.616
507.82	112.259
508.16	113.779
508.51	113.090
508.85	109.136
509.19	113.214
509.54	111.837
509.88	111.437
510.23	112.648
510.57	114.035
510.92	112.688
511.26	111.459
511.61	110.840
511.95	111.169
512.30	111.135
512.64	110.156
512.98	111.629
513.33	111.617
513.67	109.178
514.02	109.794
514.36	112.671
514.70	112.009
515.05	112.381
515.39	110.151
515.74	111.712
516.08	110.453
516.42	112.819
516.77	111.260
517.11	110.932
517.46	110.948
517.80	110.976
518.14	110.539
518.49	112.310
518.83	110.852
519.17	110.912
519.52	110.809
519.86	110.382
520.20	110.173
520.55	113.226
520.89	114.659
521.23	112.485
521.58	110.804
521.92	114.085
522.26	109.030
522.61	113.832
522.95	110.313
523.29	109.982
523.64	111.220
523.98	112.261
524.32	108.987
524.66	109.681
525.01	109.069
525.35	108.860
525.69	108.498
526.04	111.153
526.38	110.738
526.72	110.245
527.06	111.613
527.41	107.921
527.75	110.096
528.09	113.744
528.43	110.962
528.78	110.572
529.12	108.364
529.46	108.818
529.80	109.282
530.15	109.470
530.49	107.077
530.83	109.620
531.17	111.227
531.51	109.922
531.86	111.097
532.20	109.648
532.54	107.751
532.88	106.996
533.22	106.621
533.57	106.605
533.91	106.020
534.25	106.561
534.59	107.138
534.93	106.365
535.27	106.518
535.62	105.006
535.96	108.412
536.30	107.120
536.64	105.023
536.98	107.963
537.32	106.386
537.66	108.000
538.01	108.492
538.35	105.882
538.69	105.807
539.03	104.548
539.37	104.537
539.71	105.314
540.05	107.255
540.39	105.648
540.73	103.622
541.07	105.451
541.42	106.262
541.76	105.355
542.10	105.045
542.44	106.358
542.78	106.324
543.12	102.175
543.46	104.393
543.80	104.554
544.14	103.530
544.48	103.048
544.82	103.464
545.16	106.181
545.50	102.828
545.84	103.293
546.18	104.781
546.52	106.951
546.86	105.086
547.20	104.450
547.54	102.405
547.88	102.615
548.22	101.993
548.56	101.195
548.90	100.960
549.24	104.579
549.58	103.342
549.92	105.014
550.26	105.043
550.60	102.282
550.94	101.690
551.28	103.950
551.62	104.601
551.96	102.316
552.30	101.570
552.64	101.826
552.98	104.000
553.32	101.618
553.66	102.249
554.00	101.784
554.34	102.968
554.68	103.076
555.02	103.103
555.36	101.113
555.69	99.594
556.03	100.202
556.37	102.046
556.71	100.955
557.05	102.871
557.39	100.910
557.73	101.694
558.07	102.901
558.41	102.098
558.75	101.249
559.08	103.207
559.42	104.762
559.76	103.235
560.10	99.929
560.44	101.817
560.78	100.000
561.12	99.868
561.45	98.892
561.79	100.132
562.13	101.408
562.47	100.683
562.81	100.697
563.15	98.662
563.48	100.531
563.82	100.196
564.16	99.346
564.50	100.065
564.84	96.713
565.17	99.421
565.51	99.361
565.85	98.477
566.19	98.059
566.52	98.923
566.86	96.926
567.20	99.410
567.54	97.603
567.88	95.817
568.21	95.820
568.55	95.753
568.89	96.401
569.23	93.627
569.56	91.781
569.90	92.038
570.24	91.927
570.57	90.479
570.91	88.300
571.25	89.592
571.59	88.542
571.92	89.199
572.26	88.966
572.60	89.640
572.93	87.916
573.27	88.731
573.61	87.577
573.95	88.295
574.28	86.935
574.62	87.488
574.96	86.404
575.29	85.209
575.63	86.712
575.97	86.462
576.30	87.201
576.64	86.606
576.98	86.388
577.31	86.114
577.65	86.298
577.98	83.936
578.32	84.154
578.66	85.241
578.99	86.031
579.33	84.943
579.67	84.651
580.00	85.975
580.34	85.691
580.67	85.252
581.01	84.799
581.35	84.823
581.68	84.192
582.02	84.135
582.35	84.231
582.69	84.897
583.02	84.704
583.36	85.889
583.70	86.414
584.03	85.841
584.37	86.034
584.70	86.886
585.04	83.831
585.37	83.877
585.71	84.939
586.04	84.272
586.38	86.155
586.72	85.888
587.05	85.086
587.39	84.406
587.72	85.493
588.06	85.219
588.39	85.981
588.73	84.981
589.06	86.663
589.40	87.980
589.73	87.610
590.07	87.438
590.40	85.934
590.73	88.603
591.07	89.540
591.40	87.305
591.74	89.784
592.07	88.482
592.41	86.069
592.74	86.217
593.08	85.143
593.41	85.701
593.75	83.542
594.08	85.451
594.41	85.118
594.75	86.359
595.08	84.968
595.42	86.060
595.75	85.328
596.09	87.195
596.42	86.169
596.75	86.619
597.09	86.364
597.42	84.528
597.75	87.150
598.09	86.043
598.42	86.555
598.76	85.813
599.09	84.835
599.42	83.624
599.76	85.395
600.09	83.643
600.42	82.761
600.76	82.786
601.09	83.461
601.42	83.866
601.76	83.909
602.09	85.573
602.42	85.151
602.76	83.192
603.09	85.445
603.42	84.811
603.76	84.108
604.09	84.684
604.42	84.264
604.76	84.226
605.09	83.967
605.42	82.386
605.75	83.858
606.09	84.262
606.42	85.574
606.75	82.912
607.09	82.838
607.42	85.109
607.75	83.376
608.08	83.413
608.42	83.371
608.75	85.032
609.08	82.840
609.41	84.008
609.75	84.088
610.08	84.543
610.41	84.544
610.74	84.674
611.07	86.067
611.41	84.151
611.74	86.425
612.07	85.663
612.40	86.831
612.73	85.053
613.07	86.369
613.40	85.940
613.73	84.688
614.06	86.237
614.39	84.006
614.72	83.895
615.06	84.454
615.39	85.669
615.72	82.975
616.05	84.423
616.38	84.936
616.71	88.183
617.05	87.574
617.38	86.109
617.71	86.066
618.04	87.981
618.37	84.506
618.70	85.937
619.03	89.013
619.36	87.033
619.69	87.746
620.03	88.462
620.36	87.299
620.69	87.671
621.02	89.381
621.35	88.645
621.68	87.928
622.01	89.551
622.34	89.334
622.67	89.049
623.00	86.280
623.33	86.848
623.66	87.920
623.99	87.408
624.32	86.519
624.65	86.370
624.99	87.394
625.32	87.545
625.65	90.158
625.98	90.238
626.31	88.336
626.64	89.224
626.97	91.106
627.30	89.776
627.63	89.336
627.96	89.066
628.29	90.376
628.62	90.485
628.95	91.509
629.28	90.511
629.61	90.926
629.94	92.952
630.26	92.278
630.59	90.944
630.92	88.985
631.25	89.240
631.58	88.989
631.91	91.278
632.24	91.245
632.57	92.025
632.90	91.996
633.23	91.834
633.56	93.785
633.89	93.545
634.22	93.076
634.55	96.213
634.88	94.012
635.20	94.863
635.53	94.337
635.86	97.277
636.19	92.000
636.52	90.542
636.85	91.294
637.18	89.171
637.51	92.790
637.83	90.382
638.16	93.734
638.49	95.970
638.82	94.437
639.15	92.875
639.48	93.890
639.81	96.113
640.13	95.182
640.46	92.483
640.79	92.338
641.12	92.435
641.45	94.274
641.77	97.202
642.10	95.468
642.43	93.994
642.76	96.440
643.09	96.933
643.41	93.475
643.74	98.302
644.07	94.207
644.40	97.239
644.73	95.118
645.05	95.404
645.38	94.787
645.71	97.101
646.04	95.515
646.36	101.169
646.69	97.826
647.02	98.299
647.35	96.048
647.67	98.584
648.00	92.846
648.33	97.855
648.66	92.121
648.98	94.003
649.31	94.320
649.64	93.722
649.96	93.294
650.29	92.733
650.62	94.498
650.94	95.948
651.27	96.284
651.60	95.175
651.92	92.173
652.25	93.811
652.58	92.056
652.90	93.839
653.23	91.371
653.56	94.173
653.88	95.880
654.21	92.575
654.54	97.360
654.86	90.966
655.19	87.162
655.52	66.587
655.84	63.611
656.17	81.073
656.49	100.000
656.82	100.000
657.15	95.963
657.47	62.322
657.80	48.469
658.13	50.022
658.45	74.506
658.78	75.620
659.10	76.480
659.43	79.135
659.75	81.778
660.08	87.025
660.41	91.248
660.73	93.266
661.06	92.197
661.38	96.909
661.71	94.615
662.03	97.830
662.36	96.024
662.68	93.976
663.01	95.758
663.33	98.514
663.66	96.429
663.98	95.464
664.31	94.958
664.63	91.700
664.96	90.543
665.28	97.746
665.61	90.058
665.93	94.366
666.26	95.538
666.58	95.816
666.91	96.195
667.23	100.899
667.56	94.816
667.88	92.308
668.21	95.309
668.53	95.662
668.86	93.074
669.18	95.309
669.50	95.217
669.83	98.693
670.15	100.000
670.48	91.721
670.80	96.552
671.13	92.357
671.45	93.830
671.77	91.446
672.10	89.094
672.42	90.813
672.75	86.401
673.07	89.085
673.39	91.863
673.72	92.773
674.04	91.961
674.37	89.320
674.69	95.092
675.01	94.351
675.34	93.224
675.66	94.316
675.98	94.297
676.31	92.227
676.63	91.507
676.95	91.614
677.28	98.832
677.60	90.549
677.92	95.992
678.25	90.965
678.57	90.637
678.89	90.381
679.22	89.980
679.54	88.931
679.86	88.073
680.18	88.014
680.51	87.943
680.83	84.520
681.15	87.547
681.48	89.414
681.80	89.555
682.12	92.337
682.44	89.942
682.77	89.409
683.09	91.416
683.41	90.687
683.73	94.040
684.06	92.149
684.38	87.084
684.70	85.853
685.02	87.242
685.34	84.982
685.67	84.091
685.99	85.052
686.31	86.177
686.63	86.396
686.96	85.536
687.28	84.477
687.60	85.145
687.92	88.665
688.24	86.692
688.56	90.361
688.89	89.627
689.21	93.013
689.53	88.518
689.85	91.131
690.17	86.542
690.49	86.837
690.82	89.486
691.14	89.509
691.46	86.498
691.78	82.329
692.10	87.397
692.42	85.429
692.74	86.307
693.06	87.447
693.39	83.984
693.71	89.083
694.03	87.158
694.35	86.364
694.67	87.414
694.99	89.512
695.31	89.951
695.63	88.756
695.95	91.932
696.27	92.386
696.59	92.487
696.91	87.306
697.23	83.803
697.56	83.582
697.88	80.573
698.20	86.458
698.52	86.882
698.84	85.078
699.16	82.949
699.48	87.173
699.80	88.889
700.12	94.545
700.44	90.981
700.76	88.398
701.08	93.103
701.40	90.503
701.72	92.711
702.04	96.307
702.36	87.535
702.68	91.785
703.00	90.305
703.32	85.106
703.64	86.059
703.96	91.086
704.28	90.407
704.60	91.202
704.91	94.065
705.23	90.616
705.55	99.003
705.87	96.013
706.19	95.406
706.51	89.097
706.83	93.333
707.15	90.196
707.47	84.343
707.79	85.258
708.11	80.822
708.43	84.048
708.74	84.949
709.06	82.857
709.38	84.777
709.70	93.895
710.02	92.582
710.34	92.424
710.66	87.761
710.98	87.216
711.29	86.047
711.61	89.381
711.93	87.500
712.25	94.212
712.57	98.897
712.89	97.924
713.20	82.979
713.52	95.066
713.84	86.076
714.16	89.939
714.48	86.207
714.80	91.489
715.11	87.608
715.43	85.757
715.75	86.957
716.07	88.498
716.39	84.639
716.70	89.369
717.02	90.288
717.34	83.039
717.66	91.791
717.97	95.618
718.29	88.889
718.61	93.066
718.93	93.750
719.24	90.311
719.56	86.780
719.88	89.153
720.20	91.216
720.51	93.380
720.83	95.167
721.15	90.299
721.46	92.908
721.78	97.133
722.10	92.075
722.42	93.985
722.73	94.007
723.05	97.131
723.37	90.688
723.68	89.189
724.00	88.211
724.32	91.129
724.63	97.967
724.95	93.305
725.27	92.308
725.58	93.359
725.90	94.891
726.22	92.453
726.53	90.625
726.85	86.689
727.16	90.391
727.48	84.397
727.80	90.152
728.11	86.957
728.43	81.923
728.74	84.588
729.06	89.051
729.38	88.603
729.69	85.765
730.01	82.253
730.32	86.806
730.64	86.957
730.96	79.538
731.27	86.093
731.59	83.180
731.90	81.633
732.22	85.404
732.53	81.115
732.85	79.808
733.16	82.958
733.48	80.731
733.80	82.143
734.11	85.032
734.43	79.586
734.74	81.714
735.06	77.937
735.37	82.370
735.69	83.121
736.00	83.660
736.32	78.816
736.63	83.067
736.95	81.150
737.26	77.891
737.58	79.677
737.89	83.946
738.21	83.276
738.52	84.643
738.83	85.283
739.15	83.846
739.46	87.591
739.78	82.292
740.09	81.846
740.41	82.903
740.72	81.533
741.04	84.074
741.35	85.417
741.66	91.556
741.98	89.151
742.29	94.258
742.61	91.379
742.92	89.593
743.23	86.752
743.55	82.000
743.86	89.035
744.18	88.938
744.49	93.301
744.80	91.080
745.12	95.455
745.43	87.225
745.74	95.946
746.06	88.073
746.37	92.825
746.68	84.163
747.00	96.296
747.31	92.381
747.62	87.611
747.94	88.106
748.25	86.809
748.56	93.833
748.88	90.594
749.19	96.500
749.50	91.628
749.82	80.081
750.13	85.714
750.44	85.766
750.75	84.561
751.07	80.386
751.38	80.836
751.69	82.671
752.01	85.714
752.32	80.866
752.63	77.305
752.94	90.164
753.26	92.400
753.57	79.675
753.88	84.766
754.19	77.143
754.51	78.819
754.82	80.144
755.13	78.868
755.44	82.707
755.75	76.277
756.07	76.241
756.38	77.007
756.69	78.859
757.00	69.461
757.31	73.887
757.63	75.146
757.94	73.995
758.25	67.892
758.56	71.111
758.87	69.892
759.18	74.242
759.50	76.803
759.81	72.897
760.12	75.000
760.43	75.358
760.74	74.457
761.05	74.011
761.36	74.064
761.67	76.136
761.99	78.261
762.30	77.083
762.61	79.389
762.92	78.906
763.23	78.151
763.54	83.200
763.85	75.000
764.16	84.231
764.47	80.608
764.78	74.912
765.10	75.949
765.41	71.386
765.72	73.353
766.03	76.176
766.34	72.333
766.65	91.064
766.96	83.333
767.27	92.893
767.58	84.375
767.89	93.158
768.20	90.805
768.51	82.741
768.82	82.569
769.13	78.862
769.44	76.518
769.75	82.833
770.06	79.358
770.37	84.163
770.68	88.889
770.99	83.556
771.30	75.410
771.61	87.444
771.92	80.328
772.23	81.933
772.54	82.051
772.85	90.576
773.16	89.362
773.47	89.674
773.78	83.756
774.09	85.714
774.39	90.058
774.70	87.654
775.01	92.754
775.32	93.464
775.63	91.447
775.94	91.367
776.25	106.299
776.56	94.030
776.87	108.197
777.18	107.031
777.48	106.107
777.79	96.212
778.10	97.037
778.41	97.321
778.72	93.431
779.03	85.235
779.34	96.644
779.65	88.514
779.95	86.503
780.26	93.464
780.57	97.241
780.88	103.906
781.19	95.489
781.50	102.703
781.80	87.421
782.11	84.181
782.42	88.608
782.73	82.822
783.04	94.595
783.34	95.070
783.65	102.055
783.96	105.224
784.27	95.804
784.57	89.928
784.88	99.074
785.19	102.381
785.50	115.094
785.81	100.746
786.11	104.098
786.42	90.698
786.73	107.965
787.04	117.925
787.34	100.893
787.65	117.000
787.96	115.315
788.26	97.521
788.57	111.017
788.88	101.653
789.19	95.139
789.49	90.909
789.80	103.817
790.11	116.190
790.41	103.960
790.72	119.277
791.03	114.130
791.33	120.930
791.64	103.093
791.95	112.871
792.25	110.000
792.56	123.377
792.87	130.769
793.17	126.582
793.48	114.943
793.79	109.195
794.09	119.318
794.40	100.000
794.70	94.118
795.01	101.481
795.32	89.209
795.62	95.276
795.93	96.552
796.23	92.920
796.54	109.412
796.85	122.973
797.15	128.169
797.46	119.697
797.76	110.843
798.07	121.519
798.37	123.077
798.68	127.273
798.99	116.901
799.29	124.675
799.60	109.091
799.90	127.397
800.21	129.851
800.51	160.345
800.82	149.123
801.12	129.508
801.43	137.879
801.73	120.270
802.04	149.206
802.34	118.519
802.65	120.313
802.95	133.898
803.26	135.938
803.56	115.714
803.87	121.538
804.17	126.471
804.48	170.370
804.78	120.690
805.09	105.882
805.39	161.538
805.70	135.714
806.00	134.426
806.30	118.182
806.61	117.073
806.91	115.190
807.22	113.158
807.52	113.433
807.83	128.169
808.13	132.812
808.43	133.333
808.74	107.895
809.04	134.783
809.35	123.881
809.65	122.368
809.95	153.226
810.26	120.339
810.56	115.873
810.86	161.364
811.17	180.952
811.47	141.667
811.77	116.667
812.08	143.636
812.38	152.000
812.69	202.778
812.99	186.364
813.29	155.102
813.59	150.000
813.90	175.510
814.20	129.091
814.50	121.538
814.81	142.647
815.11	144.898
815.41	140.984
815.72	183.333
816.02	140.000
816.32	161.905
816.62	175.000
816.93	178.049
817.23	195.238
817.53	184.091
817.84	209.091
818.14	163.043
818.44	160.000
818.74	197.059
819.04	162.500
819.35	191.429
819.65	235.294
819.95	232.143
820.25	315.000
820.56	189.744
820.86	177.273
821.16	155.814
821.46	176.923
821.76	172.000
822.07	228.571
822.37	175.000
822.67	203.030
822.97	135.294
823.27	225.000
823.57	170.270
823.88	180.000
824.18	260.000
824.48	190.476
824.78	248.000
825.08	212.500
825.38	191.892
825.69	168.293
825.99	279.167
826.29	217.241
826.59	202.632
826.89	186.842
827.19	235.294
827.49	216.129
827.79	159.091
828.09	154.545
828.39	140.426
828.70	179.592
829.00	218.519
829.30	206.452
829.60	177.500
829.90	420.000
830.20	200.000
830.50	239.130
830.80	247.826
831.10	223.333
831.40	236.667
831.70	247.826
832.00	265.385
832.30	229.630
832.60	356.250
832.90	233.333
833.20	435.714
833.50	206.452
833.80	224.138
834.10	234.375
834.40	257.692
834.70	361.111
835.00	333.333
835.30	185.714
835.60	330.769
835.90	248.276
836.20	342.857
836.50	217.241
836.80	240.000
837.10	197.222
837.40	276.190
837.70	305.882
838.00	222.222
838.30	276.190
838.60	276.190
838.90	257.692
839.19	285.000
839.49	457.143
839.79	320.000
840.09	305.000
840.39	300.000
840.69	300.000
840.99	322.222
841.29	460.000
841.59	400.000
841.88	331.250
842.18	206.897
842.48	314.286
842.78	196.667
843.08	247.826
843.38	187.500
843.68	883.333
843.97	234.615
844.27	196.552
844.57	300.000
844.87	387.500
845.17	237.037
845.47	1666.667
845.76	444.444
846.06	358.824
846.36	612.500
846.66	435.714
846.96	318.750
847.25	454.545
847.55	418.182
847.85	278.261
848.15	620.000
848.44	435.714
848.74	244.444
849.04	317.647
849.34	570.000
849.63	273.684
849.93	481.818
850.23	1160.000
850.53	414.286
850.82	2000.000
851.12	-4800.000
851.42	4900.000
851.71	335.000
852.01	-1233.333
852.31	241.667
852.61	1833.333
852.90	300.000
853.20	200.000
853.50	305.882
853.79	309.524
854.09	225.000
854.39	318.750
854.68	202.703
854.98	219.355
855.28	186.667
855.57	241.379
855.87	211.111
856.17	273.684
856.46	306.667
856.76	323.529
857.05	241.379
857.35	233.333
857.65	340.000
857.94	226.087
858.24	234.615
858.53	275.000
858.83	272.727
859.13	413.333
859.42	0.000
859.72	577.778
860.01	390.909
860.31	277.273
860.60	321.053
860.90	239.130
861.20	555.556
861.49	516.667
861.79	-4600.000
862.08	575.000
862.38	323.810
862.67	384.615
862.97	300.000
863.26	644.444
863.56	316.667
863.85	416.667
864.15	562.500
864.44	373.333
864.74	900.000
865.03	750.000
865.33	289.474
865.62	436.364
865.92	453.846
866.21	383.333
866.51	0.000
866.80	481.818
867.10	1100.000
867.39	461.538
867.69	436.364
867.98	331.579
868.27	536.364
868.57	363.158
868.86	-4500.000
869.16	375.000
869.45	2550.000
869.75	-4900.000
870.04	408.333
870.33	671.429
870.63	1125.000
870.92	2750.000
871.22	714.286
871.51	317.647
871.80	233.333
872.10	364.286
>>>>>End Processed Spectral Data<<<<<
