SpectraSuite Data File
++++++++++++++++++++++++++++++++++++
Date: Wed May 13 19:50:34 PDT 2015
User: schluterlab
Dark Spectrum Present: Yes
Reference Spectrum Present: Yes
Number of Sampled Component Spectra: 1
Spectrometers: USB2E3373
Integration Time (usec): 3000 (USB2E3373)
Spectra Averaged: 3 (USB2E3373)
Boxcar Smoothing: 0 (USB2E3373)
Correct for Electrical Dark: No (USB2E3373)
Strobe/Lamp Enabled: No (USB2E3373)
Correct for Detector Non-linearity: No (USB2E3373)
Correct for Stray Light: No (USB2E3373)
Number of Pixels in Processed Spectrum: 2048
>>>>>Begin Processed Spectral Data<<<<<
178.53	0.000
178.91	-1500.000
179.29	-1425.000
179.67	-255.556
180.04	-1400.000
180.42	2350.000
180.80	1040.000
181.18	-1100.000
181.56	728.571
181.94	0.000
182.31	-642.857
182.69	2033.333
183.07	-650.000
183.45	-622.222
183.83	527.273
184.20	-510.000
184.58	2350.000
184.96	5900.000
185.34	-920.000
185.72	-700.000
186.09	-3050.000
186.47	2450.000
186.85	2300.000
187.23	6000.000
187.61	-1933.333
187.98	1525.000
188.36	563.636
188.74	554.545
189.12	-840.000
189.49	660.000
189.87	-5500.000
190.25	-1375.000
190.63	378.571
191.00	500.000
191.38	950.000
191.76	-1225.000
192.14	1400.000
192.51	575.000
192.89	900.000
193.27	650.000
193.65	-1450.000
194.02	500.000
194.40	1040.000
194.78	590.000
195.15	441.667
195.53	740.000
195.91	-2550.000
196.29	362.500
196.66	294.737
197.04	-260.000
197.42	0.000
197.79	660.000
198.17	-5200.000
198.55	742.857
198.92	875.000
199.30	1120.000
199.68	0.000
200.05	366.667
200.43	700.000
200.81	5500.000
201.18	1766.667
201.56	-1966.667
201.94	633.333
202.31	711.111
202.69	375.000
203.07	570.000
203.44	0.000
203.82	1250.000
204.19	871.429
204.57	492.857
204.95	712.500
205.32	1766.667
205.70	536.364
206.08	385.714
206.45	2750.000
206.83	443.750
207.20	800.000
207.58	800.000
207.96	333.333
208.33	700.000
208.71	-783.333
209.08	900.000
209.46	555.556
209.84	581.818
210.21	-1466.667
210.59	1525.000
210.96	-475.000
211.34	2650.000
211.71	600.000
212.09	1000.000
212.46	0.000
212.84	1866.667
213.22	1350.000
213.59	-4000.000
213.97	950.000
214.34	900.000
214.72	636.364
215.09	1120.000
215.47	-2250.000
215.84	-3300.000
216.22	1933.333
216.59	407.143
216.97	1425.000
217.34	463.636
217.72	-850.000
218.09	0.000
218.47	-5100.000
218.84	711.111
219.22	828.571
219.59	2000.000
219.97	-614.286
220.34	980.000
220.72	-1766.667
221.09	414.286
221.47	1450.000
221.84	-900.000
222.22	0.000
222.59	1325.000
222.97	-2700.000
223.34	1180.000
223.72	430.769
224.09	1100.000
224.46	1850.000
224.84	-5200.000
225.21	-1180.000
225.59	-5600.000
225.96	650.000
226.34	350.000
226.71	2750.000
227.08	637.500
227.46	570.000
227.83	-1175.000
228.21	-2550.000
228.58	644.444
228.95	-2400.000
229.33	-2850.000
229.70	1766.667
230.08	1000.000
230.45	-860.000
230.82	475.000
231.20	766.667
231.57	742.857
231.95	491.667
232.32	263.636
232.69	409.091
233.07	785.714
233.44	407.692
233.81	-1733.333
234.19	347.368
234.56	433.333
234.93	441.667
235.31	390.909
235.68	353.846
236.05	414.286
236.43	218.182
236.80	289.474
237.17	4300.000
237.55	257.143
237.92	200.000
238.29	285.714
238.67	196.774
239.04	186.207
239.41	158.333
239.79	121.739
240.16	145.238
240.53	147.727
240.91	84.314
241.28	108.000
241.65	112.000
242.02	113.043
242.40	80.645
242.77	101.667
243.14	75.269
243.51	85.393
243.89	67.059
244.26	83.333
244.63	70.968
245.00	68.085
245.38	67.327
245.75	58.879
246.12	66.055
246.49	64.964
246.87	63.200
247.24	59.231
247.61	60.000
247.98	50.980
248.36	48.649
248.73	52.229
249.10	53.503
249.47	45.198
249.84	50.802
250.22	48.663
250.59	46.154
250.96	47.475
251.33	50.237
251.70	51.485
252.08	49.048
252.45	41.256
252.82	41.739
253.19	47.234
253.56	45.490
253.94	40.664
254.31	41.797
254.68	42.308
255.05	38.376
255.42	37.398
255.79	40.809
256.16	41.155
256.54	34.982
256.91	35.587
257.28	34.173
257.65	38.284
258.02	37.267
258.39	32.177
258.76	37.458
259.14	32.440
259.51	34.650
259.88	29.193
260.25	35.347
260.62	29.769
260.99	31.988
261.36	34.835
261.73	32.378
262.10	29.942
262.47	35.211
262.85	30.919
263.22	29.345
263.59	35.328
263.96	31.044
264.33	30.809
264.70	32.368
265.07	29.668
265.44	31.061
265.81	28.954
266.18	32.915
266.55	28.780
266.92	29.975
267.29	31.944
267.66	29.358
268.03	31.364
268.40	29.439
268.77	26.253
269.14	30.180
269.51	30.474
269.88	31.002
270.25	27.991
270.62	29.663
270.99	29.677
271.36	27.039
271.73	28.505
272.10	27.174
272.47	28.387
272.84	27.489
273.21	26.834
273.58	24.891
273.95	23.270
274.32	26.446
274.69	26.552
275.06	27.362
275.43	26.809
275.80	29.259
276.17	27.902
276.54	28.482
276.91	25.494
277.28	26.563
277.65	29.207
278.02	27.950
278.39	28.125
278.76	26.909
279.13	24.717
279.50	26.816
279.87	24.303
280.23	26.547
280.60	27.660
280.97	25.508
281.34	25.487
281.71	28.182
282.08	26.296
282.45	24.727
282.82	25.400
283.19	22.816
283.56	25.965
283.92	26.904
284.29	25.926
284.66	22.686
285.03	26.763
285.40	25.528
285.77	24.242
286.14	25.043
286.51	22.833
286.87	27.179
287.24	25.081
287.61	23.435
287.98	23.701
288.35	23.930
288.72	23.832
289.08	25.039
289.45	22.241
289.82	23.577
290.19	21.978
290.56	21.746
290.93	22.961
291.29	25.000
291.66	22.566
292.03	23.401
292.40	22.467
292.77	21.450
293.13	23.134
293.50	21.283
293.87	21.333
294.24	19.407
294.60	21.252
294.97	20.494
295.34	23.272
295.71	21.165
296.08	18.803
296.44	19.670
296.81	19.419
297.18	22.358
297.55	18.074
297.91	19.525
298.28	21.419
298.65	18.668
299.02	20.290
299.38	19.920
299.75	17.925
300.12	17.880
300.48	19.250
300.85	19.112
301.22	18.599
301.59	17.045
301.95	20.655
302.32	19.255
302.69	17.802
303.05	18.182
303.42	18.519
303.79	18.800
304.15	16.783
304.52	17.381
304.89	15.563
305.25	16.821
305.62	18.347
305.99	18.890
306.35	18.680
306.72	17.825
307.09	18.091
307.45	18.694
307.82	16.071
308.19	18.543
308.55	18.662
308.92	16.649
309.29	16.051
309.65	17.285
310.02	18.288
310.38	18.172
310.75	17.001
311.12	17.810
311.48	17.973
311.85	18.029
312.22	17.170
312.58	16.216
312.95	19.007
313.31	16.019
313.68	17.983
314.05	19.724
314.41	17.588
314.78	16.717
315.14	16.584
315.51	17.817
315.87	17.624
316.24	16.485
316.61	16.374
316.97	16.830
317.34	15.460
317.70	17.878
318.07	17.421
318.43	16.830
318.80	17.994
319.16	16.949
319.53	17.636
319.89	17.143
320.26	16.700
320.62	17.262
320.99	17.273
321.35	17.374
321.72	17.967
322.08	18.460
322.45	18.806
322.81	17.345
323.18	18.786
323.54	17.718
323.91	16.887
324.27	18.069
324.64	15.843
325.00	16.411
325.37	17.652
325.73	18.402
326.10	18.094
326.46	16.577
326.83	18.464
327.19	17.336
327.56	17.073
327.92	17.148
328.29	17.569
328.65	18.048
329.01	16.787
329.38	16.836
329.74	18.929
330.11	16.305
330.47	17.172
330.84	18.474
331.20	16.758
331.56	16.606
331.93	17.963
332.29	17.480
332.66	18.053
333.02	16.088
333.38	16.441
333.75	17.647
334.11	16.014
334.48	16.504
334.84	15.901
335.20	17.364
335.57	16.500
335.93	16.161
336.29	16.758
336.66	15.870
337.02	16.290
337.38	15.926
337.75	16.578
338.11	17.368
338.47	16.851
338.84	16.499
339.20	14.587
339.56	16.515
339.93	14.909
340.29	15.217
340.65	16.310
341.02	16.318
341.38	15.836
341.74	14.386
342.11	15.983
342.47	16.476
342.83	15.839
343.20	15.931
343.56	15.754
343.92	15.965
344.28	16.582
344.65	15.477
345.01	15.320
345.37	15.952
345.73	16.497
346.10	16.539
346.46	15.000
346.82	15.239
347.19	15.205
347.55	14.943
347.91	15.777
348.27	16.927
348.63	15.301
349.00	14.239
349.36	14.943
349.72	15.076
350.08	15.154
350.45	15.297
350.81	15.922
351.17	15.721
351.53	14.660
351.89	14.521
352.26	17.048
352.62	15.397
352.98	16.288
353.34	15.201
353.70	16.121
354.07	15.887
354.43	14.683
354.79	14.883
355.15	14.366
355.51	15.508
355.87	14.857
356.24	15.147
356.60	14.274
356.96	15.447
357.32	14.800
357.68	15.039
358.04	14.806
358.40	15.044
358.77	15.415
359.13	14.759
359.49	15.137
359.85	13.810
360.21	14.673
360.57	15.486
360.93	15.385
361.29	14.437
361.66	13.932
362.02	15.000
362.38	14.981
362.74	15.253
363.10	13.397
363.46	14.894
363.82	14.059
364.18	14.391
364.54	15.379
364.90	14.731
365.26	13.603
365.62	14.317
365.98	13.806
366.35	13.109
366.71	14.461
367.07	14.639
367.43	14.804
367.79	14.704
368.15	15.445
368.51	13.009
368.87	13.490
369.23	14.119
369.59	13.541
369.95	12.647
370.31	14.245
370.67	13.841
371.03	14.682
371.39	13.411
371.75	13.235
372.11	13.442
372.47	14.443
372.83	13.977
373.19	14.306
373.55	14.265
373.91	14.875
374.27	13.814
374.63	12.873
374.99	14.548
375.35	13.747
375.71	13.639
376.07	14.129
376.42	14.099
376.78	13.718
377.14	13.569
377.50	13.576
377.86	12.766
378.22	13.717
378.58	12.594
378.94	13.451
379.30	13.041
379.66	12.881
380.02	13.329
380.38	12.750
380.74	13.685
381.09	14.425
381.45	13.768
381.81	13.575
382.17	12.803
382.53	13.585
382.89	13.765
383.25	13.071
383.61	13.507
383.97	13.196
384.32	13.163
384.68	12.577
385.04	13.030
385.40	12.693
385.76	12.899
386.12	13.018
386.48	13.971
386.83	13.855
387.19	14.286
387.55	13.420
387.91	12.757
388.27	12.753
388.62	13.645
388.98	12.776
389.34	13.454
389.70	12.876
390.06	13.308
390.42	12.581
390.77	13.422
391.13	12.891
391.49	13.706
391.85	13.304
392.20	12.114
392.56	12.689
392.92	12.537
393.28	11.479
393.64	12.350
393.99	12.828
394.35	13.213
394.71	12.547
395.07	12.150
395.42	13.350
395.78	13.486
396.14	13.532
396.50	14.160
396.85	12.778
397.21	12.392
397.57	13.267
397.92	12.861
398.28	12.108
398.64	13.082
399.00	12.591
399.35	12.239
399.71	12.905
400.07	13.365
400.42	13.681
400.78	13.088
401.14	12.439
401.49	11.821
401.85	12.644
402.21	12.934
402.57	13.140
402.92	12.736
403.28	12.992
403.63	12.624
403.99	12.420
404.35	12.848
404.70	11.811
405.06	12.638
405.42	11.978
405.77	12.514
406.13	12.020
406.49	12.360
406.84	12.758
407.20	12.175
407.55	11.870
407.91	12.933
408.27	12.572
408.62	12.643
408.98	13.051
409.34	12.300
409.69	12.774
410.05	12.082
410.40	12.232
410.76	12.186
411.11	13.390
411.47	12.141
411.83	12.462
412.18	12.430
412.54	12.702
412.89	12.771
413.25	12.220
413.60	12.909
413.96	12.933
414.31	13.123
414.67	12.611
415.03	12.119
415.38	13.144
415.74	13.119
416.09	13.063
416.45	12.316
416.80	13.417
417.16	14.008
417.51	12.143
417.87	12.781
418.22	12.492
418.58	13.105
418.93	12.838
419.29	13.049
419.64	13.287
420.00	13.659
420.35	13.101
420.71	12.732
421.06	12.589
421.42	13.158
421.77	12.836
422.12	12.072
422.48	12.196
422.83	12.231
423.19	12.652
423.54	12.710
423.90	13.101
424.25	12.786
424.61	12.500
424.96	12.070
425.31	13.012
425.67	12.584
426.02	12.971
426.38	13.370
426.73	12.756
427.09	12.340
427.44	12.708
427.79	12.651
428.15	13.095
428.50	12.522
428.85	13.170
429.21	12.314
429.56	11.664
429.92	12.129
430.27	11.519
430.62	11.265
430.98	11.884
431.33	11.701
431.68	12.356
432.04	12.833
432.39	12.107
432.74	12.507
433.10	12.054
433.45	12.362
433.80	12.084
434.16	12.286
434.51	12.474
434.86	12.828
435.22	12.285
435.57	12.158
435.92	12.112
436.28	13.879
436.63	12.914
436.98	12.135
437.34	13.059
437.69	12.602
438.04	11.804
438.39	12.657
438.75	13.481
439.10	12.682
439.45	12.869
439.81	12.266
440.16	12.309
440.51	12.127
440.86	12.044
441.22	12.236
441.57	12.580
441.92	12.641
442.27	12.271
442.63	12.586
442.98	13.239
443.33	12.989
443.68	12.235
444.03	12.396
444.39	11.198
444.74	12.013
445.09	12.561
445.44	12.685
445.79	12.815
446.15	12.652
446.50	12.170
446.85	12.384
447.20	12.290
447.55	12.451
447.91	12.741
448.26	12.298
448.61	11.645
448.96	12.735
449.31	13.273
449.66	12.155
450.02	12.145
450.37	12.868
450.72	12.578
451.07	12.675
451.42	12.280
451.77	12.918
452.12	13.453
452.47	13.433
452.83	12.821
453.18	12.592
453.53	13.544
453.88	12.581
454.23	12.851
454.58	13.144
454.93	13.287
455.28	12.219
455.63	12.803
455.98	13.512
456.34	13.003
456.69	13.024
457.04	11.950
457.39	12.449
457.74	12.246
458.09	13.283
458.44	12.828
458.79	12.364
459.14	13.205
459.49	11.851
459.84	12.410
460.19	13.200
460.54	11.748
460.89	12.671
461.24	12.872
461.59	13.248
461.94	12.577
462.29	13.056
462.64	12.891
462.99	12.687
463.34	14.400
463.69	13.258
464.04	13.855
464.39	12.870
464.74	13.369
465.09	12.425
465.44	12.576
465.79	12.304
466.14	12.589
466.49	12.458
466.84	12.668
467.19	13.579
467.54	12.813
467.89	12.845
468.24	12.798
468.59	12.943
468.94	12.951
469.29	13.046
469.64	13.855
469.99	13.058
470.34	12.550
470.68	13.434
471.03	13.469
471.38	13.829
471.73	13.391
472.08	13.750
472.43	12.814
472.78	13.627
473.13	13.222
473.48	13.358
473.83	13.049
474.17	12.694
474.52	13.089
474.87	13.310
475.22	12.885
475.57	12.144
475.92	12.215
476.27	12.289
476.61	12.796
476.96	12.754
477.31	12.611
477.66	12.856
478.01	12.232
478.36	12.639
478.70	12.513
479.05	12.194
479.40	12.794
479.75	12.049
480.10	12.575
480.45	12.423
480.79	11.706
481.14	12.671
481.49	12.340
481.84	11.843
482.19	11.813
482.53	12.294
482.88	11.866
483.23	11.682
483.58	12.921
483.92	12.371
484.27	10.937
484.62	11.681
484.97	11.115
485.31	11.610
485.66	10.398
486.01	10.133
486.36	9.813
486.70	9.608
487.05	10.262
487.40	10.470
487.75	10.761
488.09	10.798
488.44	11.341
488.79	11.609
489.13	11.841
489.48	12.113
489.83	11.826
490.17	11.881
490.52	11.736
490.87	11.488
491.22	11.642
491.56	11.936
491.91	11.633
492.26	12.265
492.60	12.166
492.95	11.693
493.30	11.822
493.64	12.039
493.99	11.513
494.34	11.795
494.68	12.408
495.03	12.594
495.37	12.192
495.72	11.550
496.07	12.065
496.41	12.168
496.76	11.522
497.11	12.292
497.45	12.156
497.80	11.996
498.14	11.498
498.49	12.049
498.84	12.800
499.18	11.810
499.53	12.061
499.87	11.883
500.22	11.964
500.56	12.767
500.91	11.442
501.26	11.901
501.60	12.957
501.95	11.870
502.29	12.277
502.64	12.430
502.98	11.688
503.33	11.609
503.67	11.972
504.02	11.366
504.36	12.401
504.71	11.920
505.06	12.337
505.40	12.397
505.75	11.427
506.09	12.051
506.44	11.643
506.78	11.739
507.13	12.216
507.47	12.273
507.82	12.209
508.16	11.499
508.51	12.430
508.85	12.066
509.19	12.398
509.54	11.990
509.88	12.365
510.23	12.134
510.57	12.693
510.92	12.429
511.26	12.025
511.61	12.293
511.95	11.691
512.30	12.513
512.64	12.466
512.98	12.755
513.33	11.831
513.67	12.433
514.02	11.742
514.36	12.452
514.70	12.839
515.05	12.214
515.39	12.507
515.74	12.218
516.08	13.862
516.42	12.597
516.77	13.545
517.11	11.765
517.46	12.867
517.80	13.008
518.14	12.218
518.49	12.310
518.83	12.273
519.17	12.356
519.52	13.073
519.86	13.006
520.20	13.237
520.55	13.106
520.89	12.956
521.23	12.907
521.58	13.325
521.92	13.350
522.26	12.935
522.61	12.648
522.95	12.769
523.29	12.599
523.64	13.780
523.98	13.185
524.32	13.148
524.66	12.568
525.01	13.787
525.35	12.454
525.69	12.869
526.04	13.022
526.38	12.691
526.72	13.067
527.06	13.622
527.41	13.366
527.75	12.733
528.09	12.974
528.43	13.066
528.78	13.645
529.12	12.667
529.46	13.288
529.80	13.800
530.15	13.520
530.49	12.492
530.83	13.354
531.17	13.512
531.51	14.267
531.86	13.290
532.20	14.211
532.54	14.286
532.88	13.864
533.22	13.242
533.57	13.086
533.91	13.064
534.25	12.880
534.59	12.935
534.93	12.552
535.27	13.277
535.62	13.797
535.96	13.936
536.30	13.096
536.64	14.037
536.98	13.603
537.32	13.496
537.66	13.067
538.01	13.627
538.35	13.381
538.69	14.040
539.03	12.606
539.37	12.971
539.71	11.860
540.05	13.203
540.39	13.023
540.73	13.907
541.07	13.757
541.42	13.438
541.76	13.935
542.10	14.036
542.44	12.649
542.78	13.439
543.12	12.668
543.46	13.180
543.80	14.053
544.14	13.222
544.48	13.841
544.82	13.021
545.16	12.622
545.50	12.853
545.84	13.978
546.18	14.141
546.52	13.696
546.86	14.089
547.20	13.823
547.54	13.694
547.88	13.712
548.22	13.138
548.56	13.333
548.90	13.316
549.24	12.997
549.58	13.984
549.92	13.530
550.26	14.063
550.60	13.278
550.94	13.732
551.28	13.168
551.62	13.803
551.96	13.193
552.30	13.720
552.64	14.402
552.98	14.169
553.32	14.767
553.66	14.179
554.00	14.070
554.34	13.872
554.68	14.449
555.02	12.835
555.36	13.361
555.69	12.991
556.03	12.853
556.37	14.529
556.71	12.551
557.05	13.866
557.39	13.506
557.73	14.185
558.07	13.270
558.41	13.965
558.75	14.107
559.08	14.616
559.42	14.210
559.76	14.412
560.10	13.348
560.44	14.116
560.78	13.307
561.12	13.918
561.45	13.755
561.79	13.052
562.13	13.682
562.47	13.251
562.81	13.110
563.15	13.244
563.48	14.589
563.82	13.764
564.16	12.819
564.50	13.477
564.84	13.464
565.17	13.063
565.51	13.163
565.85	13.135
566.19	12.649
566.52	12.856
566.86	12.598
567.20	13.561
567.54	12.957
567.88	12.439
568.21	12.487
568.55	12.740
568.89	11.819
569.23	12.255
569.56	11.498
569.90	11.698
570.24	10.980
570.57	11.391
570.91	10.924
571.25	10.840
571.59	11.311
571.92	11.233
572.26	10.976
572.60	11.021
572.93	10.945
573.27	11.387
573.61	11.390
573.95	11.034
574.28	10.503
574.62	10.617
574.96	10.442
575.29	10.790
575.63	10.544
575.97	10.778
576.30	11.179
576.64	10.614
576.98	10.744
577.31	10.328
577.65	10.185
577.98	10.495
578.32	10.306
578.66	10.314
578.99	10.660
579.33	10.312
579.67	10.265
580.00	10.429
580.34	10.869
580.67	10.801
581.01	11.176
581.35	10.472
581.68	10.433
582.02	10.110
582.35	10.307
582.69	10.460
583.02	10.525
583.36	11.137
583.70	10.689
584.03	11.050
584.37	11.252
584.70	10.789
585.04	11.081
585.37	10.857
585.71	10.902
586.04	10.727
586.38	11.233
586.72	11.240
587.05	10.812
587.39	10.580
587.72	11.131
588.06	11.313
588.39	10.947
588.73	10.854
589.06	11.156
589.40	11.448
589.73	11.756
590.07	11.317
590.40	11.545
590.73	11.710
591.07	12.251
591.40	12.062
591.74	12.165
592.07	11.780
592.41	12.195
592.74	11.910
593.08	11.193
593.41	11.072
593.75	10.525
594.08	11.063
594.41	12.018
594.75	11.054
595.08	11.417
595.42	11.313
595.75	11.075
596.09	12.054
596.42	12.141
596.75	11.650
597.09	12.900
597.42	11.551
597.75	11.600
598.09	12.304
598.42	11.383
598.76	11.471
599.09	11.365
599.42	11.317
599.76	11.859
600.09	11.257
600.42	10.738
600.76	10.679
601.09	11.621
601.42	11.644
601.76	11.537
602.09	11.818
602.42	12.062
602.76	11.931
603.09	11.251
603.42	12.183
603.76	11.204
604.09	11.439
604.42	11.741
604.76	12.315
605.09	12.189
605.42	11.928
605.75	11.879
606.09	11.753
606.42	11.279
606.75	11.779
607.09	11.972
607.42	11.896
607.75	11.139
608.08	11.116
608.42	12.013
608.75	11.632
609.08	12.026
609.41	11.709
609.75	12.244
610.08	12.300
610.41	11.499
610.74	11.637
611.07	11.858
611.41	12.807
611.74	13.273
612.07	12.371
612.40	12.172
612.73	12.421
613.07	12.823
613.40	12.744
613.73	11.536
614.06	12.151
614.39	12.900
614.72	12.789
615.06	12.658
615.39	11.783
615.72	12.372
616.05	11.749
616.38	12.396
616.71	13.361
617.05	13.310
617.38	12.508
617.71	12.733
618.04	12.800
618.37	12.478
618.70	12.632
619.03	13.750
619.36	13.170
619.69	13.028
620.03	13.187
620.36	13.503
620.69	13.973
621.02	14.012
621.35	13.469
621.68	13.941
622.01	13.932
622.34	14.070
622.67	13.992
623.00	13.206
623.33	13.367
623.66	12.866
623.99	13.108
624.32	13.980
624.65	12.500
624.99	12.819
625.32	13.758
625.65	13.524
625.98	13.374
626.31	13.997
626.64	14.449
626.97	14.131
627.30	14.048
627.63	14.930
627.96	14.802
628.29	14.698
628.62	14.913
628.95	16.415
629.28	14.142
629.61	15.490
629.94	13.905
630.26	14.013
630.59	13.918
630.92	14.272
631.25	14.215
631.58	14.014
631.91	15.213
632.24	14.979
632.57	16.264
632.90	16.009
633.23	14.653
633.56	15.819
633.89	16.195
634.22	15.664
634.55	14.793
634.88	14.371
635.20	17.204
635.53	15.663
635.86	17.079
636.19	15.294
636.52	16.148
636.85	15.693
637.18	16.014
637.51	17.139
637.83	14.057
638.16	16.624
638.49	15.743
638.82	16.182
639.15	17.000
639.48	15.960
639.81	16.354
640.13	17.448
640.46	16.913
640.79	16.645
641.12	16.094
641.45	16.480
641.77	17.378
642.10	17.544
642.43	18.018
642.76	19.040
643.09	17.945
643.41	17.754
643.74	17.438
644.07	17.683
644.40	19.172
644.73	20.315
645.05	18.225
645.38	16.904
645.71	16.908
646.04	17.110
646.36	20.534
646.69	17.391
647.02	19.728
647.35	18.729
647.67	18.230
648.00	20.325
648.33	17.327
648.66	18.333
648.98	19.940
649.31	17.489
649.64	17.489
649.96	16.990
650.29	18.483
650.62	16.667
650.94	20.259
651.27	19.426
651.60	19.135
651.92	19.808
652.25	16.775
652.58	18.224
652.90	20.221
653.23	17.103
653.56	17.480
653.88	20.285
654.21	18.799
654.54	18.317
654.86	18.692
655.19	15.676
655.52	10.221
655.84	8.240
656.17	10.410
656.49	14.026
656.82	14.531
657.15	11.270
657.47	8.333
657.80	6.693
658.13	7.232
658.45	11.056
658.78	11.311
659.10	11.707
659.43	12.730
659.75	13.533
660.08	15.190
660.41	16.480
660.73	18.806
661.06	17.834
661.38	21.455
661.71	20.192
662.03	19.921
662.36	18.091
662.68	22.289
663.01	20.808
663.33	19.958
663.66	18.908
663.98	20.734
664.31	20.168
664.63	19.636
664.96	17.505
665.28	23.361
665.61	18.129
665.93	19.718
666.26	21.298
666.58	18.619
666.91	23.044
667.23	20.449
667.56	19.006
667.88	20.940
668.21	21.962
668.53	20.174
668.86	20.779
669.18	23.028
669.50	22.826
669.83	23.529
670.15	23.333
670.48	19.826
670.80	20.043
671.13	21.868
671.45	18.936
671.77	20.774
672.10	18.484
672.42	17.668
672.75	18.574
673.07	17.958
673.39	15.009
673.72	18.359
674.04	20.196
674.37	18.641
674.69	19.632
675.01	17.364
675.34	22.587
675.66	21.053
675.98	20.978
676.31	21.008
676.63	22.293
676.95	20.755
677.28	19.393
677.60	19.780
677.92	21.308
678.25	19.097
678.57	21.912
678.89	18.838
679.22	19.057
679.54	20.802
679.86	20.734
680.18	17.710
680.51	19.504
680.83	19.217
681.15	20.189
681.48	20.416
681.80	18.569
682.12	20.690
682.44	18.569
682.77	21.385
683.09	21.459
683.41	22.173
683.73	20.088
684.06	22.521
684.38	20.744
684.70	19.380
685.02	21.388
685.34	17.216
685.67	16.608
685.99	17.698
686.31	16.553
686.63	16.961
686.96	18.214
687.28	18.412
687.60	18.297
687.92	20.293
688.24	20.342
688.56	22.088
688.89	21.784
689.21	21.397
689.53	20.251
689.85	22.395
690.17	16.770
690.49	22.081
690.82	18.224
691.14	19.866
691.46	19.198
691.78	20.482
692.10	20.661
692.42	20.359
692.74	18.672
693.06	20.213
693.39	21.561
693.71	19.651
694.03	20.632
694.35	18.831
694.67	20.595
694.99	24.634
695.31	21.569
695.63	21.770
695.95	21.516
696.27	21.827
696.59	20.207
696.91	21.762
697.23	20.423
697.56	22.814
697.88	17.382
698.20	20.417
698.52	18.495
698.84	20.267
699.16	20.507
699.48	20.190
699.80	20.048
700.12	24.935
700.44	22.546
700.76	22.928
701.08	20.977
701.40	25.698
701.72	24.781
702.04	25.568
702.36	21.530
702.68	24.079
703.00	21.884
703.32	23.138
703.64	21.448
703.96	21.448
704.28	25.872
704.60	22.581
704.91	24.629
705.23	20.528
705.55	27.907
705.87	27.243
706.19	27.208
706.51	24.611
706.83	24.242
707.15	24.370
707.47	21.970
707.79	22.113
708.11	22.146
708.43	22.381
708.74	21.429
709.06	24.156
709.38	22.310
709.70	26.744
710.02	23.739
710.34	26.061
710.66	28.060
710.98	23.295
711.29	22.965
711.61	27.729
711.93	24.679
712.25	24.437
712.57	23.529
712.89	24.913
713.20	24.924
713.52	25.329
713.84	20.253
714.16	23.171
714.48	21.552
714.80	26.140
715.11	24.784
715.43	24.332
715.75	21.159
716.07	24.920
716.39	21.630
716.70	29.568
717.02	26.978
717.34	26.502
717.66	30.224
717.97	30.677
718.29	26.296
718.61	26.277
718.93	28.676
719.24	26.644
719.56	23.729
719.88	31.864
720.20	30.743
720.51	27.178
720.83	28.253
721.15	24.627
721.46	27.660
721.78	28.674
722.10	28.679
722.42	27.820
722.73	27.341
723.05	29.098
723.37	24.696
723.68	28.185
724.00	29.268
724.32	30.242
724.63	29.268
724.95	30.962
725.27	30.769
725.58	29.687
725.90	29.197
726.22	27.925
726.53	26.736
726.85	27.986
727.16	23.843
727.48	26.241
727.80	28.030
728.11	27.899
728.43	24.615
728.74	26.882
729.06	30.657
729.38	30.147
729.69	29.893
730.01	25.597
730.32	27.778
730.64	27.759
730.96	22.112
731.27	28.477
731.59	28.135
731.90	26.239
732.22	23.602
732.53	21.053
732.85	24.679
733.16	22.830
733.48	25.249
733.80	26.299
734.11	24.522
734.43	23.964
734.74	21.714
735.06	24.069
735.37	25.434
735.69	22.930
736.00	26.471
736.32	26.791
736.63	22.364
736.95	25.559
737.26	22.789
737.58	24.839
737.89	29.097
738.21	27.645
738.52	29.286
738.83	25.283
739.15	25.385
739.46	30.657
739.78	26.736
740.09	25.538
740.41	29.355
740.72	25.087
741.04	29.259
741.35	27.083
741.66	37.778
741.98	28.774
742.29	36.364
742.61	31.034
742.92	30.769
743.23	29.060
743.55	31.200
743.86	29.386
744.18	36.726
744.49	33.014
744.80	32.864
745.12	36.364
745.43	34.802
745.74	34.685
746.06	34.862
746.37	36.323
746.68	32.579
747.00	35.648
747.31	33.810
747.62	27.434
747.94	33.040
748.25	28.085
748.56	33.040
748.88	26.238
749.19	41.500
749.50	31.163
749.82	28.862
750.13	23.265
750.44	28.467
750.75	28.070
751.07	28.617
751.38	27.526
751.69	25.632
752.01	27.068
752.32	25.632
752.63	26.950
752.94	32.377
753.26	33.200
753.57	22.764
753.88	32.812
754.19	27.143
754.51	30.556
754.82	27.076
755.13	29.057
755.44	26.316
755.75	24.818
756.07	25.177
756.38	27.372
756.69	25.839
757.00	23.054
757.31	22.255
757.63	21.637
757.94	24.665
758.25	22.059
758.56	18.765
758.87	21.774
759.18	25.152
759.50	23.511
759.81	24.611
760.12	22.500
760.43	24.355
760.74	21.739
761.05	23.729
761.36	21.658
761.67	26.420
761.99	25.466
762.30	26.736
762.61	29.389
762.92	32.422
763.23	29.412
763.54	32.800
763.85	26.562
764.16	33.077
764.47	30.798
764.78	28.622
765.10	20.253
765.41	23.599
765.72	27.545
766.03	27.586
766.34	27.333
766.65	32.340
766.96	32.479
767.27	34.518
767.58	37.500
767.89	39.474
768.20	39.080
768.51	31.980
768.82	33.945
769.13	30.081
769.44	30.769
769.75	31.760
770.06	27.982
770.37	31.222
770.68	29.167
770.99	29.778
771.30	26.230
771.61	34.081
771.92	29.918
772.23	31.513
772.54	34.872
772.85	40.314
773.16	33.511
773.47	38.587
773.78	43.147
774.09	33.333
774.39	45.614
774.70	43.210
775.01	37.681
775.32	45.752
775.63	44.079
775.94	43.885
776.25	58.268
776.56	50.000
776.87	52.459
777.18	52.344
777.48	56.489
777.79	48.485
778.10	45.185
778.41	59.821
778.72	42.336
779.03	48.993
779.34	42.282
779.65	37.838
779.95	44.172
780.26	44.444
780.57	42.759
780.88	60.937
781.19	47.368
781.50	51.351
781.80	39.623
782.11	35.593
782.42	38.608
782.73	44.172
783.04	43.243
783.34	42.958
783.65	50.000
783.96	50.746
784.27	47.552
784.57	39.568
784.88	46.296
785.19	53.968
785.50	57.547
785.81	53.731
786.11	60.656
786.42	57.364
786.73	55.752
787.04	63.208
787.34	52.679
787.65	57.000
787.96	52.252
788.26	53.719
788.57	54.237
788.88	59.504
789.19	50.694
789.49	52.273
789.80	55.725
790.11	64.762
790.41	64.356
790.72	59.036
791.03	61.957
791.33	54.651
791.64	61.856
791.95	59.406
792.25	71.111
792.56	85.714
792.87	100.000
793.17	86.076
793.48	77.011
793.79	73.563
794.09	73.864
794.40	51.261
794.70	55.882
795.01	42.222
795.32	43.165
795.62	45.669
795.93	54.310
796.23	61.062
796.54	65.882
796.85	81.081
797.15	98.592
797.46	90.909
797.76	86.747
798.07	73.418
798.37	73.846
798.68	87.879
798.99	59.155
799.29	68.831
799.60	56.818
799.90	94.521
800.21	98.507
800.51	82.759
800.82	87.719
801.12	77.049
801.43	96.970
801.73	72.973
802.04	82.540
802.34	79.012
802.65	90.625
802.95	89.831
803.26	109.375
803.56	87.143
803.87	87.692
804.17	88.235
804.48	100.000
804.78	93.103
805.09	92.647
805.39	86.538
805.70	69.643
806.00	109.836
806.30	68.182
806.61	80.488
806.91	69.620
807.22	67.105
807.52	65.672
807.83	84.507
808.13	76.563
808.43	95.000
808.74	60.526
809.04	89.855
809.35	100.000
809.65	71.053
809.95	96.774
810.26	103.390
810.56	82.540
810.86	127.273
811.17	128.571
811.47	110.000
811.77	116.667
812.08	120.000
812.38	122.000
812.69	144.444
812.99	140.909
813.29	124.490
813.59	114.286
813.90	124.490
814.20	110.909
814.50	83.077
814.81	107.353
815.11	116.327
815.41	98.361
815.72	147.619
816.02	112.727
816.32	150.000
816.62	117.500
816.93	139.024
817.23	128.571
817.53	140.909
817.84	166.667
818.14	115.217
818.44	128.889
818.74	176.471
819.04	140.000
819.35	154.286
819.65	167.647
819.95	210.714
820.25	195.000
820.56	158.974
820.86	143.182
821.16	137.209
821.46	153.846
821.76	144.000
822.07	188.571
822.37	150.000
822.67	145.455
822.97	115.686
823.27	207.143
823.57	154.054
823.88	165.000
824.18	196.667
824.48	161.905
824.78	232.000
825.08	237.500
825.38	137.838
825.69	119.512
825.99	225.000
826.29	144.828
826.59	155.263
826.89	144.737
827.19	185.294
827.49	212.903
827.79	145.455
828.09	113.636
828.39	104.255
828.70	126.531
829.00	162.963
829.30	129.032
829.60	137.500
829.90	273.333
830.20	207.143
830.50	186.957
830.80	217.391
831.10	173.333
831.40	180.000
831.70	191.304
832.00	246.154
832.30	203.704
832.60	325.000
832.90	203.333
833.20	421.429
833.50	190.323
833.80	189.655
834.10	200.000
834.40	226.923
834.70	277.778
835.00	328.571
835.30	162.857
835.60	292.308
835.90	200.000
836.20	385.714
836.50	175.862
836.80	180.000
837.10	175.000
837.40	266.667
837.70	323.529
838.00	244.444
838.30	190.476
838.60	300.000
838.90	200.000
839.19	250.000
839.49	435.714
839.79	330.000
840.09	360.000
840.39	261.905
840.69	256.522
840.99	288.889
841.29	430.000
841.59	391.667
841.88	300.000
842.18	196.552
842.48	266.667
842.78	176.667
843.08	200.000
843.38	203.125
843.68	933.333
843.97	203.846
844.27	206.897
844.57	295.238
844.87	356.250
845.17	259.259
845.47	1700.000
845.76	622.222
846.06	323.529
846.36	600.000
846.66	400.000
846.96	300.000
847.25	445.455
847.55	481.818
847.85	239.130
848.15	500.000
848.44	364.286
848.74	266.667
849.04	329.412
849.34	610.000
849.63	289.474
849.93	409.091
850.23	1180.000
850.53	435.714
850.82	2200.000
851.12	-5200.000
851.42	4900.000
851.71	285.000
852.01	-1266.667
852.31	229.167
852.61	1666.667
852.90	290.476
853.20	248.000
853.50	370.588
853.79	309.524
854.09	237.500
854.39	343.750
854.68	175.676
854.98	174.194
855.28	196.667
855.57	203.448
855.87	192.593
856.17	242.105
856.46	293.333
856.76	258.824
857.05	200.000
857.35	220.833
857.65	413.333
857.94	217.391
858.24	207.692
858.53	300.000
858.83	231.818
859.13	293.333
859.42	0.000
859.72	533.333
860.01	472.727
860.31	286.364
860.60	268.421
860.90	252.174
861.20	522.222
861.49	416.667
861.79	-4600.000
862.08	537.500
862.38	280.952
862.67	315.385
862.97	341.176
863.26	500.000
863.56	216.667
863.85	383.333
864.15	625.000
864.44	380.000
864.74	900.000
865.03	712.500
865.33	331.579
865.62	436.364
865.92	523.077
866.21	416.667
866.51	0.000
866.80	418.182
867.10	1240.000
867.39	469.231
867.69	454.545
867.98	305.263
868.27	509.091
868.57	273.684
868.86	-5100.000
869.16	312.500
869.45	2250.000
869.75	-3800.000
870.04	508.333
870.33	742.857
870.63	1175.000
870.92	2700.000
871.22	757.143
871.51	382.353
871.80	252.381
872.10	357.143
>>>>>End Processed Spectral Data<<<<<
