SpectraSuite Data File
++++++++++++++++++++++++++++++++++++
Date: Wed May 13 19:46:55 PDT 2015
User: schluterlab
Dark Spectrum Present: Yes
Reference Spectrum Present: Yes
Number of Sampled Component Spectra: 1
Spectrometers: USB2E3373
Integration Time (usec): 3000 (USB2E3373)
Spectra Averaged: 3 (USB2E3373)
Boxcar Smoothing: 0 (USB2E3373)
Correct for Electrical Dark: No (USB2E3373)
Strobe/Lamp Enabled: No (USB2E3373)
Correct for Detector Non-linearity: No (USB2E3373)
Correct for Stray Light: No (USB2E3373)
Number of Pixels in Processed Spectrum: 2048
>>>>>Begin Processed Spectral Data<<<<<
178.53	0.000
178.91	-1200.000
179.29	-1200.000
179.67	-272.222
180.04	-1200.000
180.42	2550.000
180.80	980.000
181.18	-1100.000
181.56	671.429
181.94	0.000
182.31	-700.000
182.69	1566.667
183.07	-562.500
183.45	-444.444
183.83	627.273
184.20	-410.000
184.58	2400.000
184.96	6100.000
185.34	-940.000
185.72	-600.000
186.09	-2400.000
186.47	2900.000
186.85	2500.000
187.23	5500.000
187.61	-1800.000
187.98	1225.000
188.36	472.727
188.74	418.182
189.12	-840.000
189.49	690.000
189.87	-4400.000
190.25	-1125.000
190.63	442.857
191.00	423.077
191.38	966.667
191.76	-1350.000
192.14	1100.000
192.51	600.000
192.89	833.333
193.27	600.000
193.65	-1450.000
194.02	540.000
194.40	820.000
194.78	670.000
195.15	508.333
195.53	660.000
195.91	-2100.000
196.29	337.500
196.66	321.053
197.04	-450.000
197.42	0.000
197.79	560.000
198.17	-4700.000
198.55	528.571
198.92	750.000
199.30	860.000
199.68	0.000
200.05	366.667
200.43	728.571
200.81	4800.000
201.18	1866.667
201.56	-1600.000
201.94	555.556
202.31	555.556
202.69	425.000
203.07	600.000
203.44	0.000
203.82	1075.000
204.19	857.143
204.57	450.000
204.95	687.500
205.32	1533.333
205.70	545.455
206.08	364.286
206.45	2100.000
206.83	356.250
207.20	733.333
207.58	920.000
207.96	261.111
208.33	725.000
208.71	-650.000
209.08	714.286
209.46	600.000
209.84	454.545
210.21	-1533.333
210.59	1525.000
210.96	-512.500
211.34	2800.000
211.71	710.000
212.09	900.000
212.46	0.000
212.84	1400.000
213.22	1200.000
213.59	-4700.000
213.97	883.333
214.34	700.000
214.72	545.455
215.09	1000.000
215.47	-2450.000
215.84	-2450.000
216.22	1666.667
216.59	342.857
216.97	1400.000
217.34	418.182
217.72	-633.333
218.09	0.000
218.47	-4800.000
218.84	655.556
219.22	800.000
219.59	1733.333
219.97	-771.429
220.34	1000.000
220.72	-1733.333
221.09	385.714
221.47	1675.000
221.84	-866.667
222.22	0.000
222.59	1500.000
222.97	-2450.000
223.34	1000.000
223.72	361.538
224.09	880.000
224.46	2400.000
224.84	-4500.000
225.21	-1000.000
225.59	-3900.000
225.96	640.000
226.34	325.000
226.71	2700.000
227.08	725.000
227.46	570.000
227.83	-1100.000
228.21	-2450.000
228.58	566.667
228.95	-2150.000
229.33	-2250.000
229.70	1633.333
230.08	828.571
230.45	-660.000
230.82	450.000
231.20	916.667
231.57	771.429
231.95	475.000
232.32	290.909
232.69	400.000
233.07	757.143
233.44	400.000
233.81	-1566.667
234.19	310.526
234.56	450.000
234.93	375.000
235.31	463.636
235.68	338.462
236.05	400.000
236.43	181.818
236.80	210.526
237.17	4400.000
237.55	209.524
237.92	221.429
238.29	266.667
238.67	174.194
239.04	234.483
239.41	150.000
239.79	126.087
240.16	138.095
240.53	118.182
240.91	103.922
241.28	128.000
241.65	108.000
242.02	102.899
242.40	100.000
242.77	101.667
243.14	75.269
243.51	78.652
243.89	76.471
244.26	62.222
244.63	73.118
245.00	67.021
245.38	66.337
245.75	60.748
246.12	59.633
246.49	63.504
246.87	63.200
247.24	53.846
247.61	58.571
247.98	51.634
248.36	52.027
248.73	44.586
249.10	49.682
249.47	48.588
249.84	43.850
250.22	39.572
250.59	43.787
250.96	40.404
251.33	44.550
251.70	41.584
252.08	36.190
252.45	36.323
252.82	37.391
253.19	38.298
253.56	37.647
253.94	42.739
254.31	38.281
254.68	38.846
255.05	37.638
255.42	39.024
255.79	34.191
256.16	36.462
256.54	30.742
256.91	39.502
257.28	28.417
257.65	32.343
258.02	31.677
258.39	33.754
258.76	28.763
259.14	32.738
259.51	34.043
259.88	29.814
260.25	33.535
260.62	28.324
260.99	31.988
261.36	29.129
261.73	29.226
262.10	27.907
262.47	30.704
262.85	32.033
263.22	25.641
263.59	31.624
263.96	26.099
264.33	28.460
264.70	29.474
265.07	29.923
265.44	25.505
265.81	29.684
266.18	30.653
266.55	27.073
266.92	29.730
267.29	25.463
267.66	26.147
268.03	25.455
268.40	27.570
268.77	25.537
269.14	27.477
269.51	28.217
269.88	25.874
270.25	25.508
270.62	27.191
270.99	26.022
271.36	27.897
271.73	27.103
272.10	23.696
272.47	27.527
272.84	25.758
273.21	26.625
273.58	23.799
273.95	23.480
274.32	23.967
274.69	23.983
275.06	23.228
275.43	27.234
275.80	24.449
276.17	22.811
276.54	25.988
276.91	25.296
277.28	24.219
277.65	24.952
278.02	23.188
278.39	23.828
278.76	24.182
279.13	25.472
279.50	23.464
279.87	22.908
280.23	22.954
280.60	24.371
280.97	20.333
281.34	26.195
281.71	24.545
282.08	25.912
282.45	23.455
282.82	23.801
283.19	22.103
283.56	22.807
283.92	24.365
284.29	22.928
284.66	22.868
285.03	20.434
285.40	20.599
285.77	24.242
286.14	22.625
286.51	22.000
286.87	21.538
287.24	23.453
287.61	20.385
287.98	21.104
288.35	20.285
288.72	21.028
289.08	21.596
289.45	22.405
289.82	21.301
290.19	18.995
290.56	21.899
290.93	19.184
291.29	21.012
291.66	19.617
292.03	21.657
292.40	22.320
292.77	19.970
293.13	18.657
293.50	20.117
293.87	21.481
294.24	18.815
294.60	18.923
294.97	18.169
295.34	19.464
295.71	19.034
296.08	18.376
296.44	19.257
296.81	17.966
297.18	20.596
297.55	16.095
297.91	17.150
298.28	18.608
298.65	18.277
299.02	17.655
299.38	17.397
299.75	16.307
300.12	15.964
300.48	17.250
300.85	17.756
301.22	16.306
301.59	17.298
301.95	17.254
302.32	17.715
302.69	15.651
303.05	16.970
303.42	16.296
303.79	16.988
304.15	14.685
304.52	15.643
304.89	16.725
305.25	16.821
305.62	16.082
305.99	17.119
306.35	16.107
306.72	15.471
307.09	16.870
307.45	16.554
307.82	15.290
308.19	17.550
308.55	17.260
308.92	17.938
309.29	15.206
309.65	16.543
310.02	17.865
310.38	16.129
310.75	17.001
311.12	16.888
311.48	17.555
311.85	16.247
312.22	18.626
312.58	16.008
312.95	17.529
313.31	14.854
313.68	17.256
314.05	18.639
314.41	17.889
314.78	17.825
315.14	17.776
315.51	17.302
315.87	18.515
316.24	16.783
316.61	19.006
316.97	17.613
317.34	18.200
317.70	19.120
318.07	20.212
318.43	19.961
318.80	20.619
319.16	21.281
319.53	18.668
319.89	22.190
320.26	22.200
320.62	22.520
320.99	22.626
321.35	21.919
321.72	23.409
322.08	23.001
322.45	24.478
322.81	24.516
323.18	24.566
323.54	23.933
323.91	25.094
324.27	25.430
324.64	26.002
325.00	25.428
325.37	26.752
325.73	28.366
326.10	28.597
326.46	27.419
326.83	29.077
327.19	28.096
327.56	28.833
327.92	29.571
328.29	30.524
328.65	30.571
329.01	30.235
329.38	31.175
329.74	30.379
330.11	30.726
330.47	31.956
330.84	31.801
331.20	30.601
331.56	31.284
331.93	32.778
332.29	32.476
332.66	33.009
333.02	33.181
333.38	32.701
333.75	31.729
334.11	34.431
334.48	33.008
334.84	33.915
335.20	34.000
335.57	33.092
335.93	33.661
336.29	33.150
336.66	33.814
337.02	33.937
337.38	35.556
337.75	33.155
338.11	34.020
338.47	35.820
338.84	34.739
339.20	34.220
339.56	36.679
339.93	34.182
340.29	34.873
340.65	34.225
341.02	36.300
341.38	35.587
341.74	34.298
342.11	36.507
342.47	37.093
342.83	35.445
343.20	36.883
343.56	35.720
343.92	36.053
344.28	35.544
344.65	37.575
345.01	35.606
345.37	35.935
345.73	36.464
346.10	36.658
346.46	37.373
346.82	36.409
347.19	36.675
347.55	35.550
347.91	36.084
348.27	38.620
348.63	36.288
349.00	35.275
349.36	36.864
349.72	36.247
350.08	36.467
350.45	38.893
350.81	37.368
351.17	37.844
351.53	37.592
351.89	37.624
352.26	37.964
352.62	36.568
352.98	37.601
353.34	37.469
353.70	37.316
354.07	37.742
354.43	37.222
354.79	38.616
355.15	38.069
355.51	40.048
355.87	39.755
356.24	38.518
356.60	37.129
356.96	40.708
357.32	38.348
357.68	39.134
358.04	38.559
358.40	39.588
358.77	38.732
359.13	38.990
359.49	39.843
359.85	38.651
360.21	39.474
360.57	40.467
360.93	39.692
361.29	40.136
361.66	39.087
362.02	40.299
362.38	41.217
362.74	40.030
363.10	40.044
363.46	39.765
363.82	39.607
364.18	39.941
364.54	40.788
364.90	40.864
365.26	40.809
365.62	40.979
365.98	41.636
366.35	39.971
366.71	40.926
367.07	41.588
367.43	42.598
367.79	43.469
368.15	42.888
368.51	41.352
368.87	42.041
369.23	41.405
369.59	42.650
369.95	42.868
370.31	43.803
370.67	42.681
371.03	42.622
371.39	43.586
371.75	42.647
372.11	43.670
372.47	43.475
372.83	43.876
373.19	42.991
373.55	44.124
373.91	44.330
374.27	41.993
374.63	43.418
374.99	44.421
375.35	43.754
375.71	43.797
376.07	43.690
376.42	45.186
376.78	43.472
377.14	44.844
377.50	44.768
377.86	45.080
378.22	44.627
378.58	43.484
378.94	44.437
379.30	45.102
379.66	45.051
380.02	44.595
380.38	45.719
380.74	45.918
381.09	46.699
381.45	45.667
381.81	46.314
382.17	46.242
382.53	45.849
382.89	47.531
383.25	46.404
383.61	48.389
383.97	45.091
384.32	46.787
384.68	45.849
385.04	46.773
385.40	46.192
385.76	46.130
386.12	47.798
386.48	47.829
386.83	48.493
387.19	47.928
387.55	48.052
387.91	47.582
388.27	47.088
388.62	47.142
388.98	46.744
389.34	47.622
389.70	48.314
390.06	48.479
390.42	49.222
390.77	48.601
391.13	48.564
391.49	49.239
391.85	47.740
392.20	48.580
392.56	49.811
392.92	49.029
393.28	47.929
393.64	48.501
393.99	47.098
394.35	49.380
394.71	49.122
395.07	48.847
395.42	50.000
395.78	49.618
396.14	48.976
396.50	49.499
396.85	49.332
397.21	48.952
397.57	50.031
397.92	49.339
398.28	47.702
398.64	49.283
399.00	47.398
399.35	47.885
399.71	48.380
400.07	48.374
400.42	49.571
400.78	49.638
401.14	48.232
401.49	50.030
401.85	49.304
402.21	48.323
402.57	48.427
402.92	50.063
403.28	49.594
403.63	49.319
403.99	50.318
404.35	49.273
404.70	48.801
405.06	48.981
405.42	50.094
405.77	47.829
406.13	47.630
406.49	48.315
406.84	49.084
407.20	47.518
407.55	50.160
407.91	48.467
408.27	49.649
408.62	47.622
408.98	49.142
409.34	49.446
409.69	48.968
410.05	48.699
410.40	48.807
410.76	48.925
411.11	47.708
411.47	48.371
411.83	48.931
412.18	47.805
412.54	48.194
412.89	48.133
413.25	48.819
413.60	49.599
413.96	48.816
414.31	47.934
414.67	49.113
415.03	48.874
415.38	49.291
415.74	49.389
416.09	49.967
416.45	48.862
416.80	48.976
417.16	49.598
417.51	49.171
417.87	48.105
418.22	49.527
418.58	49.193
418.93	48.710
419.29	48.122
419.64	48.678
420.00	48.476
420.35	48.696
420.71	49.074
421.06	48.568
421.42	48.947
421.77	49.159
422.12	48.737
422.48	47.329
422.83	49.330
423.19	47.680
423.54	49.100
423.90	48.348
424.25	48.353
424.61	48.690
424.96	50.321
425.31	47.785
425.67	48.034
426.02	48.114
426.38	48.779
426.73	48.215
427.09	47.964
427.44	48.246
427.79	48.649
428.15	48.512
428.50	47.923
428.85	48.272
429.21	48.482
429.56	48.212
429.92	48.213
430.27	47.766
430.62	48.797
430.98	47.846
431.33	47.268
431.68	48.325
432.04	47.018
432.39	47.973
432.74	48.833
433.10	49.123
433.45	47.930
433.80	48.614
434.16	47.810
434.51	47.053
434.86	48.404
435.22	48.193
435.57	48.146
435.92	47.045
436.28	48.221
436.63	47.130
436.98	47.453
437.34	48.658
437.69	48.658
438.04	48.229
438.39	48.060
438.75	48.344
439.10	47.151
439.45	48.406
439.81	47.069
440.16	47.205
440.51	47.100
440.86	47.597
441.22	47.831
441.57	46.815
441.92	47.032
442.27	47.094
442.63	46.130
442.98	45.859
443.33	46.359
443.68	47.341
444.03	45.778
444.39	45.813
444.74	46.158
445.09	45.499
445.44	44.286
445.79	45.621
446.15	45.791
446.50	45.288
446.85	45.735
447.20	45.589
447.55	44.612
447.91	45.505
448.26	46.077
448.61	45.506
448.96	46.235
449.31	46.063
449.66	44.288
450.02	43.287
450.37	44.444
450.72	44.444
451.07	44.668
451.42	43.708
451.77	45.625
452.12	43.591
452.47	44.403
452.83	44.755
453.18	43.460
453.53	44.589
453.88	42.587
454.23	43.933
454.58	44.700
454.93	45.264
455.28	43.579
455.63	44.600
455.98	44.464
456.34	43.090
456.69	44.208
457.04	43.715
457.39	42.607
457.74	43.239
458.09	42.093
458.44	42.531
458.79	41.649
459.14	42.156
459.49	41.973
459.84	41.884
460.19	41.839
460.54	40.856
460.89	42.183
461.24	41.773
461.59	42.417
461.94	40.629
462.29	41.543
462.64	42.629
462.99	39.948
463.34	41.667
463.69	41.588
464.04	41.101
464.39	40.116
464.74	40.820
465.09	40.832
465.44	39.612
465.79	40.213
466.14	39.135
466.49	39.655
466.84	38.879
467.19	39.891
467.54	39.875
467.89	37.995
468.24	39.732
468.59	39.072
468.94	38.180
469.29	40.231
469.64	40.161
469.99	38.836
470.34	39.300
470.68	39.152
471.03	38.571
471.38	38.916
471.73	39.374
472.08	38.487
472.43	38.191
472.78	38.381
473.13	37.227
473.48	37.828
473.83	38.598
474.17	37.399
474.52	37.655
474.87	37.887
475.22	38.015
475.57	36.539
475.92	36.962
476.27	36.640
476.61	37.507
476.96	35.734
477.31	36.578
477.66	37.090
478.01	35.442
478.36	35.801
478.70	36.085
479.05	36.262
479.40	36.643
479.75	35.536
480.10	35.785
480.45	35.269
480.79	34.926
481.14	34.589
481.49	35.263
481.84	34.979
482.19	34.075
482.53	34.312
482.88	34.993
483.23	34.813
483.58	34.395
483.92	35.192
484.27	33.725
484.62	33.922
484.97	33.031
485.31	33.973
485.66	32.473
486.01	32.093
486.36	30.793
486.70	30.015
487.05	30.266
487.40	31.103
487.75	30.997
488.09	31.604
488.44	31.521
488.79	32.477
489.13	32.353
489.48	31.892
489.83	32.758
490.17	32.705
490.52	31.798
490.87	32.248
491.22	31.560
491.56	31.891
491.91	32.666
492.26	31.741
492.60	31.751
492.95	31.384
493.30	31.682
493.64	31.358
493.99	31.894
494.34	32.470
494.68	32.005
495.03	31.861
495.37	30.898
495.72	31.238
496.07	31.879
496.41	30.487
496.76	29.947
497.11	30.887
497.45	30.694
497.80	31.430
498.14	29.952
498.49	31.073
498.84	30.825
499.18	30.762
499.53	30.864
499.87	30.242
500.22	30.711
500.56	30.583
500.91	29.423
501.26	30.536
501.60	30.802
501.95	29.652
502.29	30.740
502.64	29.655
502.98	30.575
503.33	29.433
503.67	29.838
504.02	29.373
504.36	28.638
504.71	29.849
505.06	29.687
505.40	29.947
505.75	28.592
506.09	29.009
506.44	29.255
506.78	29.031
507.13	30.187
507.47	29.747
507.82	30.091
508.16	29.585
508.51	29.985
508.85	29.394
509.19	28.724
509.54	28.929
509.88	29.572
510.23	29.100
510.57	29.102
510.92	28.638
511.26	28.058
511.61	29.201
511.95	27.662
512.30	28.261
512.64	28.909
512.98	28.992
513.33	28.961
513.67	28.602
514.02	27.760
514.36	28.236
514.70	28.666
515.05	27.552
515.39	28.716
515.74	28.153
516.08	28.228
516.42	28.302
516.77	28.651
517.11	27.858
517.46	28.555
517.80	28.688
518.14	27.678
518.49	28.005
518.83	28.409
519.17	27.887
519.52	27.900
519.86	28.465
520.20	28.439
520.55	28.366
520.89	28.163
521.23	27.865
521.58	27.551
521.92	27.679
522.26	27.212
522.61	28.224
522.95	27.502
523.29	27.815
523.64	27.744
523.98	27.418
524.32	27.503
524.66	28.382
525.01	27.267
525.35	26.952
525.69	27.401
526.04	26.978
526.38	27.395
526.72	27.669
527.06	26.742
527.41	26.423
527.75	28.232
528.09	26.654
528.43	27.279
528.78	27.289
529.12	27.091
529.46	27.189
529.80	28.218
530.15	27.664
530.49	27.015
530.83	27.405
531.17	27.807
531.51	28.988
531.86	27.226
532.20	26.662
532.54	27.290
532.88	26.444
533.22	26.483
533.57	26.111
533.91	25.105
534.25	25.881
534.59	26.724
534.93	26.234
535.27	25.769
535.62	27.106
535.96	26.868
536.30	26.065
536.64	26.529
536.98	27.206
537.32	26.860
537.66	25.067
538.01	26.794
538.35	25.727
538.69	27.377
539.03	26.446
539.37	25.687
539.71	25.405
540.05	26.209
540.39	25.648
540.73	26.067
541.07	26.022
541.42	26.223
541.76	25.677
542.10	26.003
542.44	26.159
542.78	26.548
543.12	25.144
543.46	26.820
543.80	25.504
544.14	24.069
544.48	24.952
544.82	25.144
545.16	26.545
545.50	25.193
545.84	25.403
546.18	25.859
546.52	25.465
546.86	24.674
547.20	24.882
547.54	24.516
547.88	25.957
548.22	23.910
548.56	24.969
548.90	24.520
549.24	24.579
549.58	26.126
549.92	25.275
550.26	25.284
550.60	24.481
550.94	24.930
551.28	24.360
551.62	26.024
551.96	25.193
552.30	24.437
552.64	25.558
552.98	24.949
553.32	24.815
553.66	24.199
554.00	25.738
554.34	24.500
554.68	25.608
555.02	24.894
555.36	24.913
555.69	22.801
556.03	24.563
556.37	24.625
556.71	24.352
557.05	24.650
557.39	24.633
557.73	24.135
558.07	25.091
558.41	24.747
558.75	23.880
559.08	24.832
559.42	24.943
559.76	24.853
560.10	24.768
560.44	23.829
560.78	23.287
561.12	24.142
561.45	23.990
561.79	23.270
562.13	23.675
562.47	23.770
562.81	24.268
563.15	24.214
563.48	24.005
563.82	24.070
564.16	23.545
564.50	23.177
564.84	22.693
565.17	23.616
565.51	23.131
565.85	23.414
566.19	22.480
566.52	23.496
566.86	23.086
567.20	23.526
567.54	23.116
567.88	23.411
568.21	23.175
568.55	22.245
568.89	21.984
569.23	21.524
569.56	21.903
569.90	22.113
570.24	21.170
570.57	21.115
570.91	20.750
571.25	20.383
571.59	20.295
571.92	20.276
572.26	19.902
572.60	20.751
572.93	20.300
573.27	20.586
573.61	20.380
573.95	20.749
574.28	19.849
574.62	20.019
574.96	19.761
575.29	19.738
575.63	19.970
575.97	19.552
576.30	20.234
576.64	19.914
576.98	19.446
577.31	19.455
577.65	19.327
577.98	19.381
578.32	19.162
578.66	19.224
578.99	19.311
579.33	19.293
579.67	18.633
580.00	19.228
580.34	19.483
580.67	19.026
581.01	19.204
581.35	19.247
581.68	19.118
582.02	18.804
582.35	19.150
582.69	19.178
583.02	19.209
583.36	19.068
583.70	19.006
584.03	19.279
584.37	19.315
584.70	19.801
585.04	19.080
585.37	19.315
585.71	19.126
586.04	19.522
586.38	20.167
586.72	19.470
587.05	19.397
587.39	18.813
587.72	19.299
588.06	19.424
588.39	19.259
588.73	19.595
589.06	19.539
589.40	20.000
589.73	19.923
590.07	19.715
590.40	19.730
590.73	20.023
591.07	20.798
591.40	20.624
591.74	20.693
592.07	20.113
592.41	20.422
592.74	20.412
593.08	19.587
593.41	19.646
593.75	19.488
594.08	19.578
594.41	20.042
594.75	20.037
595.08	19.864
595.42	19.264
595.75	19.729
596.09	19.527
596.42	19.764
596.75	20.262
597.09	20.693
597.42	19.688
597.75	20.138
598.09	19.870
598.42	19.759
598.76	19.700
599.09	19.574
599.42	20.087
599.76	19.546
600.09	19.199
600.42	19.284
600.76	18.964
601.09	19.271
601.42	19.330
601.76	18.861
602.09	19.526
602.42	19.984
602.76	20.113
603.09	19.434
603.42	20.226
603.76	19.550
604.09	19.038
604.42	19.853
604.76	20.034
605.09	20.096
605.42	19.709
605.75	19.495
606.09	19.398
606.42	19.371
606.75	19.618
607.09	19.255
607.42	19.726
607.75	19.072
608.08	19.713
608.42	20.036
608.75	19.838
609.08	19.704
609.41	20.086
609.75	20.105
610.08	20.075
610.41	19.274
610.74	19.726
611.07	20.306
611.41	19.971
611.74	20.161
612.07	20.031
612.40	20.462
612.73	19.211
613.07	20.528
613.40	19.958
613.73	19.612
614.06	19.785
614.39	20.189
614.72	20.053
615.06	20.693
615.39	19.851
615.72	20.297
616.05	19.989
616.38	20.233
616.71	20.190
617.05	20.318
617.38	20.625
617.71	19.520
618.04	20.373
618.37	20.047
618.70	19.726
619.03	21.053
619.36	21.181
619.69	20.634
620.03	21.085
620.36	21.524
620.69	21.027
621.02	21.386
621.35	21.143
621.68	19.704
622.01	20.201
622.34	21.331
622.67	20.760
623.00	19.956
623.33	20.515
623.66	20.300
623.99	21.281
624.32	20.399
624.65	20.551
624.99	20.184
625.32	20.492
625.65	21.563
625.98	20.984
626.31	21.540
626.64	22.449
626.97	21.280
627.30	20.200
627.63	21.493
627.96	22.119
628.29	22.135
628.62	22.964
628.95	22.830
629.28	21.077
629.61	23.190
629.94	22.571
630.26	21.068
630.59	22.498
630.92	21.839
631.25	21.422
631.58	22.122
631.91	22.211
632.24	21.835
632.57	23.085
632.90	22.807
633.23	23.266
633.56	22.712
633.89	23.216
634.22	22.474
634.55	23.905
634.88	22.994
635.20	23.297
635.53	23.012
635.86	22.030
636.19	22.706
636.52	22.722
636.85	21.535
637.18	22.465
637.51	25.177
637.83	19.852
638.16	22.379
638.49	22.292
638.82	23.135
639.15	23.250
639.48	25.810
639.81	23.995
640.13	23.177
640.46	24.966
640.79	23.514
641.12	22.971
641.45	24.441
641.77	25.037
642.10	23.830
642.43	24.174
642.76	23.839
643.09	25.613
643.41	25.341
643.74	25.772
644.07	25.457
644.40	26.687
644.73	27.087
645.05	25.674
645.38	25.276
645.71	24.799
646.04	25.249
646.36	28.548
646.69	26.589
647.02	24.830
647.35	25.258
647.67	26.018
648.00	26.179
648.33	25.248
648.66	24.848
648.98	25.337
649.31	24.215
649.64	25.262
649.96	24.739
650.29	25.118
650.62	25.243
650.94	27.877
651.27	27.196
651.60	25.291
651.92	26.518
652.25	23.290
652.58	24.922
652.90	25.276
653.23	22.342
653.56	23.622
653.88	25.357
654.21	24.961
654.54	24.257
654.86	24.611
655.19	24.054
655.52	15.362
655.84	14.249
656.17	18.731
656.49	24.896
656.82	25.327
657.15	18.674
657.47	13.730
657.80	10.383
658.13	10.563
658.45	15.369
658.78	15.374
659.10	15.433
659.43	16.031
659.75	16.347
660.08	18.608
660.41	19.739
660.73	23.253
661.06	22.452
661.38	25.818
661.71	27.885
662.03	28.994
662.36	26.640
662.68	27.309
663.01	26.667
663.33	26.115
663.66	26.891
663.98	28.078
664.31	26.681
664.63	27.126
664.96	26.559
665.28	27.254
665.61	26.511
665.93	26.358
666.26	25.761
666.58	27.615
666.91	29.387
667.23	28.315
667.56	27.430
667.88	28.846
668.21	28.571
668.53	28.200
668.86	26.190
669.18	29.424
669.50	29.565
669.83	27.015
670.15	27.778
670.48	28.322
670.80	27.586
671.13	29.724
671.45	26.383
671.77	27.088
672.10	26.617
672.42	27.032
672.75	24.876
673.07	26.408
673.39	23.689
673.72	26.953
674.04	26.863
674.37	25.049
674.69	25.562
675.01	26.569
675.34	27.310
675.66	28.421
675.98	26.884
676.31	28.782
676.63	25.902
676.95	26.625
677.28	26.402
677.60	26.813
677.92	29.536
678.25	26.899
678.57	26.096
678.89	26.453
679.22	25.344
679.54	26.527
679.86	27.156
680.18	26.476
680.51	25.709
680.83	27.580
681.15	26.415
681.48	26.087
681.80	25.145
682.12	25.287
682.44	24.565
682.77	26.884
683.09	29.614
683.41	28.603
683.73	27.373
684.06	26.446
684.38	24.070
684.70	26.938
685.02	25.704
685.34	24.542
685.67	22.902
685.99	25.258
686.31	24.403
686.63	22.438
686.96	24.643
687.28	23.285
687.60	25.725
687.92	27.239
688.24	23.954
688.56	25.502
688.89	26.971
689.21	29.258
689.53	25.470
689.85	29.047
690.17	24.845
690.49	28.238
690.82	25.701
691.14	25.446
691.46	26.160
691.78	26.707
692.10	28.306
692.42	27.944
692.74	24.274
693.06	27.234
693.39	25.051
693.71	26.638
694.03	28.842
694.35	25.325
694.67	28.375
694.99	27.805
695.31	27.696
695.63	24.641
695.95	25.917
696.27	27.665
696.59	26.425
696.91	30.570
697.23	27.230
697.56	27.932
697.88	23.926
698.20	25.000
698.52	28.172
698.84	30.067
699.16	25.346
699.48	26.366
699.80	30.193
700.12	32.208
700.44	29.973
700.76	30.663
701.08	30.172
701.40	31.564
701.72	29.738
702.04	32.102
702.36	27.195
702.68	30.878
703.00	28.809
703.32	26.862
703.64	29.223
703.96	27.855
704.28	29.651
704.60	31.672
704.91	32.047
705.23	32.845
705.55	30.897
705.87	37.209
706.19	28.622
706.51	29.283
706.83	34.545
707.15	31.092
707.47	27.020
707.79	28.747
708.11	26.941
708.43	26.905
708.74	28.571
709.06	29.870
709.38	29.921
709.70	31.395
710.02	30.267
710.34	31.515
710.66	31.045
710.98	30.682
711.29	30.814
711.61	31.563
711.93	29.487
712.25	35.691
712.57	31.618
712.89	31.488
713.20	30.091
713.52	33.224
713.84	30.380
714.16	31.402
714.48	30.460
714.80	31.915
715.11	30.259
715.43	29.970
715.75	32.464
716.07	33.546
716.39	29.467
716.70	35.880
717.02	32.734
717.34	31.095
717.66	40.672
717.97	37.849
718.29	35.926
718.61	32.482
718.93	35.662
719.24	32.872
719.56	31.186
719.88	32.542
720.20	34.459
720.51	36.585
720.83	36.059
721.15	29.478
721.46	31.560
721.78	35.125
722.10	36.226
722.42	37.594
722.73	38.951
723.05	31.557
723.37	31.984
723.68	30.116
724.00	35.772
724.32	31.855
724.63	34.553
724.95	37.238
725.27	36.437
725.58	39.453
725.90	38.321
726.22	32.453
726.53	31.250
726.85	31.741
727.16	34.875
727.48	30.142
727.80	30.303
728.11	36.594
728.43	35.385
728.74	31.541
729.06	33.942
729.38	35.662
729.69	34.520
730.01	29.352
730.32	33.333
730.64	30.769
730.96	26.073
731.27	33.444
731.59	29.358
731.90	29.738
732.22	30.435
732.53	31.579
732.85	30.769
733.16	28.617
733.48	31.894
733.80	28.896
734.11	28.662
734.43	31.361
734.74	26.571
735.06	29.513
735.37	33.237
735.69	27.707
736.00	34.314
736.32	31.776
736.63	30.351
736.95	30.032
737.26	27.551
737.58	32.581
737.89	32.441
738.21	28.669
738.52	32.143
738.83	32.830
739.15	32.692
739.46	33.942
739.78	34.028
740.09	30.462
740.41	33.871
740.72	31.707
741.04	32.222
741.35	34.167
741.66	36.889
741.98	40.566
742.29	41.627
742.61	39.655
742.92	31.674
743.23	36.325
743.55	34.800
743.86	32.018
744.18	42.920
744.49	41.148
744.80	42.723
745.12	38.182
745.43	37.885
745.74	42.793
746.06	40.826
746.37	34.529
746.68	37.557
747.00	35.648
747.31	44.762
747.62	29.204
747.94	36.123
748.25	31.915
748.56	40.529
748.88	34.653
749.19	44.500
749.50	31.628
749.82	36.179
750.13	31.020
750.44	35.766
750.75	35.789
751.07	33.441
751.38	35.889
751.69	33.574
752.01	31.203
752.32	31.769
752.63	34.397
752.94	32.787
753.26	39.600
753.57	32.520
753.88	39.453
754.19	32.857
754.51	36.806
754.82	33.213
755.13	32.830
755.44	33.459
755.75	31.022
756.07	29.078
756.38	30.292
756.69	28.523
757.00	28.144
757.31	27.893
757.63	29.825
757.94	25.201
758.25	28.431
758.56	24.938
758.87	29.301
759.18	30.000
759.50	25.392
759.81	28.349
760.12	28.438
760.43	26.934
760.74	30.163
761.05	30.508
761.36	28.610
761.67	29.830
761.99	29.193
762.30	34.722
762.61	30.916
762.92	32.813
763.23	35.714
763.54	43.600
763.85	31.641
764.16	34.615
764.47	35.361
764.78	28.622
765.10	29.114
765.41	30.973
765.72	30.240
766.03	29.781
766.34	32.333
766.65	31.915
766.96	36.752
767.27	39.086
767.58	41.667
767.89	43.158
768.20	47.701
768.51	34.010
768.82	38.073
769.13	34.553
769.44	35.628
769.75	38.627
770.06	32.569
770.37	40.271
770.68	33.333
770.99	32.889
771.30	30.738
771.61	36.323
771.92	32.377
772.23	39.916
772.54	39.487
772.85	44.503
773.16	41.489
773.47	39.130
773.78	37.056
774.09	40.476
774.39	49.708
774.70	44.444
775.01	47.101
775.32	52.941
775.63	51.316
775.94	47.482
776.25	57.480
776.56	50.746
776.87	46.721
777.18	53.125
777.48	54.198
777.79	53.788
778.10	56.296
778.41	46.429
778.72	44.526
779.03	46.980
779.34	44.295
779.65	42.568
779.95	53.988
780.26	47.059
780.57	53.103
780.88	50.781
781.19	50.376
781.50	56.757
781.80	53.459
782.11	44.068
782.42	43.671
782.73	44.785
783.04	50.000
783.34	47.183
783.65	61.644
783.96	56.716
784.27	46.853
784.57	50.360
784.88	54.630
785.19	61.111
785.50	64.151
785.81	50.746
786.11	59.836
786.42	55.039
786.73	56.637
787.04	71.698
787.34	66.071
787.65	64.000
787.96	61.261
788.26	49.587
788.57	62.712
788.88	59.504
789.19	56.944
789.49	52.273
789.80	54.962
790.11	70.476
790.41	73.267
790.72	71.084
791.03	72.826
791.33	58.140
791.64	70.103
791.95	66.337
792.25	76.667
792.56	71.429
792.87	93.590
793.17	83.544
793.48	75.862
793.79	62.069
794.09	72.727
794.40	60.504
794.70	58.824
795.01	48.148
795.32	46.763
795.62	50.394
795.93	59.483
796.23	60.177
796.54	71.765
796.85	68.919
797.15	88.732
797.46	86.364
797.76	80.723
798.07	81.013
798.37	87.692
798.68	80.303
798.99	81.690
799.29	85.714
799.60	72.727
799.90	97.260
800.21	92.537
800.51	93.103
800.82	94.737
801.12	93.443
801.43	109.091
801.73	70.270
802.04	90.476
802.34	80.247
802.65	101.563
802.95	106.780
803.26	103.125
803.56	87.143
803.87	75.385
804.17	92.647
804.48	112.963
804.78	94.828
805.09	101.471
805.39	98.077
805.70	92.857
806.00	95.082
806.30	95.455
806.61	84.146
806.91	77.215
807.22	89.474
807.52	74.627
807.83	85.915
808.13	100.000
808.43	88.333
808.74	75.000
809.04	91.304
809.35	91.045
809.65	71.053
809.95	114.516
810.26	98.305
810.56	93.651
810.86	113.636
811.17	152.381
811.47	100.000
811.77	103.704
812.08	109.091
812.38	118.000
812.69	144.444
812.99	138.636
813.29	142.857
813.59	116.667
813.90	118.367
814.20	114.545
814.50	95.385
814.81	95.588
815.11	124.490
815.41	108.197
815.72	135.714
816.02	116.364
816.32	114.286
816.62	122.500
816.93	126.829
817.23	130.952
817.53	129.545
817.84	200.000
818.14	145.652
818.44	131.111
818.74	135.294
819.04	120.000
819.35	140.000
819.65	176.471
819.95	164.286
820.25	185.000
820.56	171.795
820.86	143.182
821.16	144.186
821.46	148.718
821.76	116.000
822.07	174.286
822.37	120.000
822.67	163.636
822.97	105.882
823.27	200.000
823.57	132.432
823.88	157.500
824.18	170.000
824.48	164.286
824.78	220.000
825.08	183.333
825.38	143.243
825.69	131.707
825.99	225.000
826.29	168.966
826.59	163.158
826.89	139.474
827.19	152.941
827.49	161.290
827.79	136.364
828.09	125.000
828.39	121.277
828.70	134.694
829.00	181.481
829.30	135.484
829.60	132.500
829.90	326.667
830.20	185.714
830.50	200.000
830.80	208.696
831.10	186.667
831.40	173.333
831.70	160.870
832.00	226.923
832.30	162.963
832.60	331.250
832.90	190.000
833.20	428.571
833.50	167.742
833.80	179.310
834.10	200.000
834.40	200.000
834.70	300.000
835.00	309.524
835.30	171.429
835.60	346.154
835.90	220.690
836.20	357.143
836.50	172.414
836.80	180.000
837.10	172.222
837.40	228.571
837.70	270.588
838.00	192.593
838.30	219.048
838.60	233.333
838.90	226.923
839.19	245.000
839.49	350.000
839.79	340.000
840.09	235.000
840.39	242.857
840.69	252.174
840.99	288.889
841.29	480.000
841.59	350.000
841.88	375.000
842.18	151.724
842.48	252.381
842.78	210.000
843.08	243.478
843.38	196.875
843.68	950.000
843.97	234.615
844.27	224.138
844.57	276.190
844.87	393.750
845.17	192.593
845.47	1800.000
845.76	588.889
846.06	323.529
846.36	500.000
846.66	350.000
846.96	306.250
847.25	436.364
847.55	445.455
847.85	308.696
848.15	420.000
848.44	357.143
848.74	283.333
849.04	323.529
849.34	480.000
849.63	252.632
849.93	454.545
850.23	1000.000
850.53	400.000
850.82	2350.000
851.12	-5200.000
851.42	4700.000
851.71	290.000
852.01	-1300.000
852.31	191.667
852.61	1766.667
852.90	280.952
853.20	268.000
853.50	358.824
853.79	238.095
854.09	191.667
854.39	306.250
854.68	178.378
854.98	161.290
855.28	163.333
855.57	231.034
855.87	240.741
856.17	226.316
856.46	260.000
856.76	341.176
857.05	172.414
857.35	220.833
857.65	340.000
857.94	260.870
858.24	230.769
858.53	275.000
858.83	295.455
859.13	406.667
859.42	0.000
859.72	600.000
860.01	418.182
860.31	218.182
860.60	268.421
860.90	230.435
861.20	511.111
861.49	450.000
861.79	-4500.000
862.08	625.000
862.38	252.381
862.67	253.846
862.97	382.353
863.26	533.333
863.56	294.444
863.85	441.667
864.15	700.000
864.44	433.333
864.74	983.333
865.03	700.000
865.33	310.526
865.62	509.091
865.92	500.000
866.21	350.000
866.51	0.000
866.80	418.182
867.10	1180.000
867.39	392.308
867.69	463.636
867.98	273.684
868.27	445.455
868.57	289.474
868.86	-4600.000
869.16	406.250
869.45	2650.000
869.75	-5100.000
870.04	475.000
870.33	771.429
870.63	1225.000
870.92	2500.000
871.22	657.143
871.51	376.471
871.80	209.524
872.10	357.143
>>>>>End Processed Spectral Data<<<<<
