SpectraSuite Data File
++++++++++++++++++++++++++++++++++++
Date: Wed May 13 19:37:44 PDT 2015
User: schluterlab
Dark Spectrum Present: Yes
Reference Spectrum Present: Yes
Number of Sampled Component Spectra: 1
Spectrometers: USB2E3373
Integration Time (usec): 3000 (USB2E3373)
Spectra Averaged: 3 (USB2E3373)
Boxcar Smoothing: 0 (USB2E3373)
Correct for Electrical Dark: No (USB2E3373)
Strobe/Lamp Enabled: No (USB2E3373)
Correct for Detector Non-linearity: No (USB2E3373)
Correct for Stray Light: No (USB2E3373)
Number of Pixels in Processed Spectrum: 2048
>>>>>Begin Processed Spectral Data<<<<<
178.53	0.000
178.91	-1250.000
179.29	-1100.000
179.67	-233.333
180.04	-1275.000
180.42	3100.000
180.80	1180.000
181.18	-1150.000
181.56	771.429
181.94	0.000
182.31	-657.143
182.69	2033.333
183.07	-612.500
183.45	-588.889
183.83	590.909
184.20	-530.000
184.58	2900.000
184.96	6300.000
185.34	-720.000
185.72	-700.000
186.09	-2400.000
186.47	2500.000
186.85	2900.000
187.23	4200.000
187.61	-1733.333
187.98	1450.000
188.36	636.364
188.74	509.091
189.12	-940.000
189.49	600.000
189.87	-5100.000
190.25	-1275.000
190.63	450.000
191.00	453.846
191.38	1016.667
191.76	-1450.000
192.14	1450.000
192.51	762.500
192.89	1066.667
193.27	675.000
193.65	-1225.000
194.02	550.000
194.40	1140.000
194.78	550.000
195.15	550.000
195.53	650.000
195.91	-1800.000
196.29	393.750
196.66	363.158
197.04	-440.000
197.42	0.000
197.79	600.000
198.17	-5600.000
198.55	728.571
198.92	825.000
199.30	1220.000
199.68	0.000
200.05	350.000
200.43	857.143
200.81	5100.000
201.18	1900.000
201.56	-1366.667
201.94	566.667
202.31	666.667
202.69	500.000
203.07	620.000
203.44	0.000
203.82	1125.000
204.19	914.286
204.57	478.571
204.95	637.500
205.32	1633.333
205.70	563.636
206.08	371.429
206.45	2800.000
206.83	418.750
207.20	1016.667
207.58	760.000
207.96	388.889
208.33	725.000
208.71	-833.333
209.08	871.429
209.46	677.778
209.84	463.636
210.21	-1700.000
210.59	1350.000
210.96	-425.000
211.34	3050.000
211.71	580.000
212.09	883.333
212.46	0.000
212.84	2033.333
213.22	1500.000
213.59	-5500.000
213.97	833.333
214.34	871.429
214.72	600.000
215.09	1160.000
215.47	-2150.000
215.84	-2400.000
216.22	1733.333
216.59	421.429
216.97	1500.000
217.34	518.182
217.72	-833.333
218.09	0.000
218.47	-5800.000
218.84	788.889
219.22	800.000
219.59	1833.333
219.97	-657.143
220.34	1120.000
220.72	-2000.000
221.09	442.857
221.47	1425.000
221.84	-1000.000
222.22	0.000
222.59	1350.000
222.97	-2900.000
223.34	1280.000
223.72	453.846
224.09	1120.000
224.46	2850.000
224.84	-5200.000
225.21	-1120.000
225.59	-4800.000
225.96	640.000
226.34	360.000
226.71	2850.000
227.08	687.500
227.46	610.000
227.83	-1175.000
228.21	-2800.000
228.58	722.222
228.95	-2000.000
229.33	-2650.000
229.70	1766.667
230.08	742.857
230.45	-880.000
230.82	500.000
231.20	883.333
231.57	800.000
231.95	550.000
232.32	254.545
232.69	481.818
233.07	642.857
233.44	338.462
233.81	-1666.667
234.19	278.947
234.56	450.000
234.93	366.667
235.31	490.909
235.68	261.538
236.05	350.000
236.43	166.667
236.80	268.421
237.17	4800.000
237.55	214.286
237.92	196.429
238.29	228.571
238.67	177.419
239.04	182.759
239.41	119.444
239.79	132.609
240.16	140.476
240.53	122.727
240.91	103.922
241.28	102.000
241.65	94.000
242.02	86.957
242.40	85.484
242.77	86.667
243.14	63.441
243.51	67.416
243.89	69.412
244.26	57.778
244.63	61.290
245.00	46.809
245.38	54.455
245.75	40.187
246.12	47.706
246.49	54.015
246.87	42.400
247.24	51.538
247.61	37.857
247.98	38.562
248.36	31.081
248.73	27.389
249.10	31.847
249.47	32.768
249.84	33.155
250.22	28.342
250.59	33.136
250.96	36.869
251.33	33.649
251.70	33.168
252.08	30.952
252.45	27.803
252.82	28.261
253.19	26.383
253.56	31.373
253.94	24.896
254.31	27.734
254.68	26.154
255.05	24.354
255.42	21.545
255.79	23.529
256.16	23.827
256.54	19.081
256.91	20.996
257.28	20.504
257.65	23.762
258.02	19.255
258.39	21.136
258.76	19.064
259.14	21.726
259.51	18.845
259.88	18.634
260.25	22.356
260.62	17.919
260.99	16.770
261.36	21.021
261.73	17.479
262.10	14.244
262.47	19.155
262.85	15.877
263.22	15.385
263.59	19.373
263.96	18.132
264.33	17.493
264.70	18.158
265.07	21.228
265.44	16.414
265.81	17.762
266.18	16.332
266.55	14.390
266.92	15.479
267.29	15.972
267.66	13.991
268.03	16.364
268.40	14.720
268.77	15.990
269.14	15.090
269.51	16.027
269.88	15.152
270.25	13.770
270.62	15.730
270.99	18.280
271.36	13.305
271.73	13.084
272.10	15.000
272.47	15.269
272.84	13.853
273.21	14.256
273.58	12.009
273.95	14.675
274.32	14.256
274.69	14.347
275.06	12.598
275.43	15.319
275.80	13.627
276.17	14.664
276.54	13.929
276.91	12.451
277.28	13.086
277.65	13.540
278.02	12.008
278.39	15.430
278.76	15.636
279.13	11.698
279.50	12.477
279.87	11.952
280.23	13.972
280.60	12.573
280.97	12.569
281.34	14.159
281.71	13.818
282.08	12.476
282.45	11.091
282.82	12.966
283.19	11.230
283.56	12.632
283.92	12.690
284.29	11.817
284.66	12.160
285.03	11.754
285.40	11.796
285.77	9.596
286.14	10.535
286.51	12.667
286.87	12.479
287.24	13.192
287.61	11.236
287.98	12.987
288.35	11.727
288.72	11.682
289.08	12.989
289.45	11.697
289.82	12.520
290.19	9.890
290.56	9.188
290.93	8.610
291.29	10.123
291.66	11.062
292.03	12.209
292.40	12.335
292.77	10.947
293.13	11.642
293.50	11.662
293.87	9.185
294.24	10.222
294.60	8.734
294.97	9.448
295.34	10.578
295.71	10.511
296.08	9.117
296.44	9.766
296.81	8.454
297.18	11.518
297.55	7.520
297.91	10.158
298.28	8.969
298.65	9.922
299.02	10.013
299.38	8.765
299.75	7.143
300.12	8.557
300.48	9.500
300.85	9.371
301.22	7.261
301.59	7.576
301.95	8.816
302.32	8.729
302.69	8.005
303.05	9.939
303.42	8.025
303.79	8.154
304.15	8.741
304.52	7.068
304.89	7.317
305.25	6.961
305.62	8.947
305.99	8.737
306.35	7.383
306.72	7.063
307.09	8.990
307.45	9.910
307.82	7.478
308.19	8.499
308.55	8.954
308.92	7.411
309.29	8.553
309.65	6.893
310.02	7.611
310.38	8.817
310.75	7.286
311.12	8.188
311.48	8.464
311.85	7.652
312.22	7.804
312.58	7.588
312.95	8.976
313.31	6.893
313.68	8.836
314.05	9.172
314.41	7.839
314.78	8.157
315.14	7.646
315.51	9.166
315.87	8.713
316.24	7.646
316.61	9.162
316.97	8.317
317.34	8.708
317.70	8.700
318.07	9.047
318.43	9.002
318.80	10.028
319.16	9.322
319.53	8.443
319.89	9.619
320.26	10.100
320.62	10.714
320.99	11.313
321.35	10.404
321.72	10.575
322.08	10.760
322.45	12.438
322.81	12.016
323.18	13.198
323.54	12.430
323.91	13.113
324.27	11.663
324.64	12.582
325.00	12.714
325.37	13.194
325.73	13.914
326.10	13.857
326.46	12.545
326.83	14.668
327.19	15.457
327.56	14.111
327.92	14.523
328.29	14.374
328.65	15.746
329.01	14.440
329.38	15.171
329.74	16.343
330.11	15.551
330.47	15.794
330.84	17.004
331.20	16.393
331.56	16.422
331.93	16.204
332.29	17.036
332.66	17.522
333.02	17.733
333.38	17.615
333.75	17.201
334.11	16.993
334.48	17.657
334.84	17.096
335.20	17.818
335.57	17.044
335.93	15.982
336.29	18.590
336.66	17.944
337.02	16.561
337.38	18.056
337.75	16.756
338.11	16.025
338.47	17.219
338.84	17.415
339.20	17.064
339.56	17.883
339.93	18.091
340.29	16.667
340.65	17.112
341.02	18.237
341.38	17.616
341.74	16.930
342.11	18.253
342.47	17.709
342.83	16.952
343.20	18.182
343.56	17.523
343.92	16.842
344.28	17.942
344.65	18.401
345.01	17.256
345.37	17.581
345.73	18.105
346.10	17.903
346.46	17.881
346.82	16.474
347.19	17.711
347.55	17.323
347.91	18.285
348.27	18.570
348.63	18.478
349.00	17.476
349.36	18.062
349.72	17.883
350.08	16.613
350.45	17.168
350.81	18.034
351.17	17.018
351.53	17.690
351.89	15.924
352.26	18.074
352.62	18.204
352.98	16.370
353.34	17.913
353.70	16.367
354.07	17.339
354.43	17.778
354.79	16.814
355.15	16.361
355.51	18.225
355.87	16.980
356.24	17.508
356.60	17.482
356.96	16.573
357.32	16.435
357.68	17.008
358.04	17.102
358.40	17.181
358.77	17.293
359.13	15.233
359.49	16.549
359.85	16.190
360.21	16.268
360.57	16.732
360.93	16.692
361.29	16.704
361.66	15.789
362.02	16.493
362.38	16.046
362.74	16.592
363.10	16.136
363.46	15.774
363.82	16.931
364.18	16.446
364.54	17.533
364.90	16.856
365.26	17.206
365.62	16.508
365.98	15.705
366.35	15.831
366.71	16.920
367.07	15.878
367.43	15.675
367.79	16.845
368.15	17.241
368.51	16.206
368.87	15.846
369.23	16.094
369.59	16.655
369.95	16.324
370.31	15.883
370.67	16.884
371.03	16.779
371.39	16.254
371.75	17.132
372.11	15.505
372.47	17.155
372.83	16.715
373.19	16.185
373.55	16.851
373.91	16.937
374.27	15.945
374.63	15.273
374.99	16.031
375.35	15.073
375.71	16.313
376.07	17.010
376.42	15.681
376.78	15.639
377.14	15.739
377.50	16.887
377.86	15.824
378.22	16.751
378.58	14.975
378.94	15.148
379.30	14.885
379.66	15.799
380.02	16.093
380.38	14.876
380.74	16.387
381.09	16.137
381.45	16.042
381.81	16.523
382.17	16.369
382.53	15.409
382.89	16.235
383.25	16.198
383.61	15.985
383.97	16.198
384.32	16.157
384.68	15.056
385.04	15.734
385.40	15.294
385.76	15.111
386.12	15.997
386.48	16.111
386.83	15.779
387.19	16.079
387.55	15.894
387.91	14.933
388.27	16.064
388.62	16.349
388.98	15.049
389.34	15.832
389.70	15.512
390.06	16.286
390.42	16.018
390.77	15.649
391.13	15.252
391.49	15.990
391.85	15.086
392.20	15.394
392.56	15.404
392.92	15.480
393.28	14.379
393.64	16.427
393.99	15.638
394.35	14.702
394.71	15.872
395.07	15.140
395.42	15.266
395.78	15.267
396.14	15.394
396.50	16.040
396.85	16.020
397.21	14.797
397.57	14.941
397.92	15.264
398.28	15.359
398.64	14.934
399.00	14.829
399.35	14.777
399.71	14.583
400.07	15.376
400.42	15.153
400.78	15.983
401.14	15.000
401.49	15.045
401.85	15.608
402.21	14.731
402.57	14.127
402.92	14.565
403.28	14.866
403.63	14.975
403.99	14.841
404.35	15.273
404.70	14.329
405.06	14.444
405.42	15.284
405.77	14.171
406.13	13.883
406.49	14.134
406.84	14.235
407.20	13.948
407.55	14.933
407.91	14.333
408.27	14.422
408.62	14.389
408.98	14.706
409.34	14.145
409.69	15.226
410.05	14.374
410.40	14.190
410.76	14.277
411.11	14.837
411.47	14.185
411.83	14.661
412.18	14.348
412.54	14.757
412.89	14.940
413.25	13.518
413.60	13.342
413.96	13.358
414.31	15.249
414.67	14.956
415.03	14.437
415.38	14.626
415.74	14.405
416.09	14.500
416.45	14.592
416.80	13.814
417.16	14.678
417.51	13.603
417.87	14.001
418.22	14.006
418.58	14.526
418.93	13.759
419.29	13.304
419.64	15.113
420.00	14.756
420.35	14.261
420.71	14.943
421.06	14.081
421.42	14.269
421.77	14.518
422.12	13.925
422.48	13.276
422.83	14.153
423.19	13.646
423.54	14.161
423.90	13.333
424.25	13.847
424.61	14.107
424.96	13.469
425.31	13.732
425.67	13.652
426.02	13.486
426.38	13.797
426.73	13.049
427.09	14.043
427.44	14.204
427.79	13.283
428.15	13.512
428.50	13.166
428.85	13.945
429.21	12.590
429.56	13.012
429.92	12.682
430.27	12.810
430.62	12.647
430.98	13.129
431.33	13.196
431.68	12.880
432.04	13.312
432.39	13.592
432.74	13.046
433.10	13.356
433.45	13.586
433.80	12.361
434.16	13.622
434.51	13.053
434.86	13.170
435.22	12.674
435.57	12.705
435.92	12.171
436.28	13.642
436.63	13.245
436.98	12.650
437.34	13.417
437.69	13.011
438.04	12.704
438.39	12.239
438.75	13.190
439.10	13.464
439.45	12.987
439.81	11.843
440.16	12.705
440.51	12.771
440.86	12.681
441.22	11.958
441.57	12.208
441.92	12.282
442.27	12.540
442.63	12.533
442.98	13.239
443.33	12.337
443.68	12.752
444.03	12.152
444.39	11.879
444.74	12.987
445.09	12.884
445.44	12.302
445.79	12.766
446.15	13.340
446.50	12.547
446.85	11.871
447.20	12.494
447.55	12.842
447.91	12.466
448.26	12.465
448.61	12.663
448.96	13.344
449.31	11.755
449.66	12.493
450.02	11.421
450.37	12.018
450.72	12.239
451.07	11.761
451.42	11.611
451.77	13.271
452.12	12.702
452.47	12.189
452.83	11.830
453.18	12.469
453.53	12.678
453.88	11.695
454.23	12.313
454.58	12.841
454.93	12.969
455.28	12.219
455.63	11.893
455.98	12.679
456.34	12.688
456.69	12.711
457.04	12.012
457.39	11.806
457.74	11.434
458.09	12.593
458.44	12.144
458.79	11.226
459.14	12.698
459.49	12.026
459.84	11.967
460.19	11.844
460.54	11.863
460.89	12.123
461.24	12.022
461.59	12.086
461.94	12.084
462.29	12.047
462.64	11.678
462.99	11.581
463.34	13.067
463.69	11.882
464.04	12.522
464.39	11.942
464.74	11.646
465.09	11.158
465.44	11.247
465.79	11.130
466.14	11.494
466.49	11.068
466.84	11.384
467.19	11.467
467.54	12.438
467.89	11.525
468.24	11.344
468.59	12.210
468.94	11.362
469.29	12.018
469.64	12.584
469.99	11.570
470.34	11.295
470.68	12.356
471.03	11.701
471.38	11.397
471.73	11.259
472.08	11.776
472.43	11.244
472.78	11.652
473.13	11.553
473.48	11.673
473.83	11.585
474.17	10.454
474.52	11.414
474.87	12.318
475.22	11.608
475.57	10.639
475.92	10.621
476.27	11.161
476.61	10.700
476.96	10.500
477.31	10.152
477.66	11.269
478.01	9.671
478.36	11.105
478.70	10.228
479.05	10.490
479.40	10.901
479.75	10.473
480.10	9.841
480.45	10.090
480.79	10.177
481.14	10.078
481.49	10.299
481.84	10.197
482.19	10.404
482.53	10.413
482.88	10.517
483.23	10.374
483.58	9.964
483.92	9.747
484.27	9.281
484.62	9.181
484.97	9.657
485.31	9.212
485.66	8.186
486.01	7.885
486.36	7.493
486.70	7.668
487.05	7.736
487.40	8.299
487.75	8.324
488.09	8.735
488.44	8.806
488.79	8.933
489.13	9.167
489.48	9.217
489.83	9.495
490.17	9.776
490.52	10.053
490.87	9.679
491.22	9.914
491.56	9.339
491.91	9.400
492.26	8.957
492.60	9.770
492.95	9.308
493.30	9.252
493.64	9.566
493.99	8.821
494.34	9.436
494.68	9.753
495.03	9.727
495.37	9.446
495.72	9.844
496.07	9.930
496.41	8.938
496.76	8.971
497.11	9.410
497.45	9.362
497.80	9.693
498.14	9.179
498.49	9.073
498.84	9.204
499.18	9.286
499.53	9.212
499.87	9.506
500.22	9.326
500.56	9.660
500.91	8.798
501.26	8.867
501.60	10.109
501.95	9.395
502.29	9.466
502.64	9.218
502.98	9.116
503.33	8.821
503.67	9.374
504.02	9.074
504.36	9.733
504.71	9.380
505.06	9.205
505.40	8.799
505.75	9.595
506.09	8.795
506.44	9.620
506.78	9.157
507.13	9.339
507.47	9.646
507.82	9.574
508.16	9.271
508.51	9.234
508.85	9.186
509.19	8.418
509.54	9.388
509.88	9.531
510.23	8.278
510.57	9.752
510.92	9.891
511.26	9.353
511.61	9.751
511.95	9.081
512.30	8.431
512.64	9.081
512.98	9.753
513.33	9.850
513.67	9.285
514.02	8.658
514.36	8.957
514.70	9.574
515.05	9.426
515.39	9.310
515.74	9.178
516.08	9.726
516.42	9.989
516.77	10.201
517.11	8.990
517.46	10.327
517.80	9.698
518.14	9.091
518.49	9.918
518.83	9.886
519.17	9.411
519.52	9.564
519.86	10.610
520.20	10.520
520.55	10.293
520.89	10.036
521.23	10.495
521.58	9.904
521.92	10.165
522.26	9.457
522.61	9.283
522.95	9.269
523.29	9.191
523.64	9.695
523.98	9.982
524.32	9.469
524.66	10.403
525.01	9.559
525.35	9.603
525.69	9.667
526.04	9.969
526.38	9.762
526.72	9.202
527.06	9.605
527.41	9.220
527.75	10.354
528.09	9.377
528.43	9.560
528.78	9.711
529.12	9.515
529.46	10.227
529.80	9.592
530.15	9.782
530.49	9.292
530.83	10.000
531.17	10.313
531.51	10.311
531.86	9.548
532.20	9.778
532.54	10.378
532.88	10.205
533.22	9.182
533.57	10.000
533.91	9.573
534.25	9.781
534.59	9.701
534.93	8.804
535.27	8.690
535.62	9.524
535.96	9.542
536.30	9.981
536.64	10.431
536.98	9.555
537.32	9.348
537.66	9.667
538.01	9.809
538.35	10.019
538.69	9.892
539.03	9.617
539.37	8.690
539.71	8.879
540.05	9.542
540.39	9.302
540.73	8.668
541.07	10.707
541.42	9.328
541.76	9.677
542.10	9.573
542.44	9.536
542.78	10.408
543.12	9.725
543.46	10.033
543.80	10.670
544.14	9.435
544.48	10.222
544.82	8.916
545.16	9.239
545.50	9.383
545.84	9.341
546.18	9.899
546.52	9.291
546.86	9.691
547.20	9.171
547.54	10.154
547.88	10.906
548.22	9.651
548.56	9.874
548.90	9.411
549.24	9.091
549.58	9.823
549.92	9.547
550.26	10.582
550.60	9.820
550.94	9.930
551.28	8.998
551.62	9.921
551.96	9.123
552.30	11.126
552.64	10.007
552.98	9.898
553.32	9.440
553.66	10.361
554.00	9.197
554.34	9.110
554.68	10.086
555.02	10.296
555.36	8.977
555.69	9.202
556.03	9.825
556.37	9.209
556.71	8.936
557.05	9.384
557.39	10.217
557.73	10.586
558.07	9.935
558.41	9.334
558.75	10.360
559.08	9.396
559.42	10.053
559.76	10.515
560.10	9.208
560.44	9.224
560.78	8.716
561.12	8.839
561.45	9.518
561.79	9.097
562.13	8.719
562.47	9.358
562.81	8.996
563.15	9.632
563.48	9.218
563.82	8.871
564.16	8.371
564.50	8.268
564.84	9.166
565.17	9.653
565.51	8.754
565.85	9.137
566.19	6.825
566.52	9.246
566.86	8.559
567.20	9.198
567.54	8.447
567.88	7.822
568.21	8.942
568.55	8.241
568.89	8.074
569.23	7.665
569.56	7.449
569.90	7.396
570.24	7.248
570.57	6.936
570.91	6.593
571.25	6.794
571.59	6.804
571.92	6.394
572.26	6.586
572.60	6.877
572.93	6.537
573.27	6.832
573.61	6.812
573.95	6.589
574.28	6.206
574.62	6.195
574.96	6.022
575.29	6.232
575.63	6.174
575.97	6.222
576.30	6.559
576.64	6.242
576.98	6.223
577.31	6.054
577.65	5.907
577.98	5.971
578.32	5.898
578.66	6.038
578.99	6.094
579.33	6.028
579.67	5.862
580.00	6.162
580.34	6.336
580.67	5.861
581.01	6.611
581.35	5.564
581.68	5.654
582.02	5.492
582.35	5.407
582.69	5.818
583.02	5.545
583.36	5.880
583.70	6.094
584.03	6.243
584.37	6.719
584.70	6.191
585.04	6.213
585.37	6.198
585.71	6.086
586.04	6.137
586.38	6.635
586.72	6.656
587.05	6.411
587.39	5.937
587.72	6.287
588.06	6.003
588.39	6.420
588.73	6.630
589.06	6.638
589.40	6.936
589.73	6.547
590.07	6.762
590.40	6.577
590.73	6.714
591.07	7.163
591.40	7.339
591.74	7.316
592.07	7.461
592.41	7.524
592.74	7.266
593.08	6.762
593.41	6.833
593.75	6.277
594.08	6.604
594.41	7.282
594.75	6.765
595.08	6.657
595.42	6.795
595.75	6.766
596.09	7.097
596.42	7.741
596.75	7.472
597.09	8.139
597.42	6.745
597.75	7.417
598.09	7.304
598.42	7.216
598.76	6.729
599.09	6.842
599.42	6.732
599.76	7.064
600.09	6.703
600.42	6.976
600.76	6.607
601.09	6.557
601.42	6.583
601.76	7.173
602.09	6.482
602.42	7.444
602.76	7.134
603.09	6.570
603.42	6.755
603.76	7.050
604.09	6.553
604.42	7.093
604.76	7.760
605.09	7.471
605.42	7.054
605.75	6.871
606.09	7.076
606.42	7.111
606.75	6.802
607.09	7.367
607.42	7.189
607.75	6.835
608.08	7.338
608.42	7.620
608.75	7.349
609.08	7.724
609.41	7.615
609.75	6.860
610.08	7.587
610.41	7.030
610.74	7.143
611.07	7.609
611.41	7.311
611.74	7.592
612.07	8.230
612.40	8.237
612.73	7.895
613.07	8.136
613.40	7.741
613.73	7.027
614.06	8.333
614.39	7.604
614.72	8.368
615.06	7.668
615.39	7.484
615.72	7.413
616.05	7.974
616.38	8.338
616.71	8.135
617.05	8.068
617.38	8.539
617.71	7.868
618.04	7.993
618.37	8.102
618.70	8.650
619.03	9.211
619.36	8.147
619.69	8.521
620.03	9.066
620.36	8.824
620.69	9.589
621.02	9.587
621.35	9.397
621.68	8.645
622.01	9.443
622.34	9.228
622.67	8.517
623.00	8.731
623.33	8.792
623.66	8.935
623.99	8.910
624.32	8.631
624.65	9.040
624.99	8.215
625.32	8.182
625.65	8.941
625.98	9.070
626.31	10.187
626.64	10.776
626.97	9.892
627.30	9.726
627.63	9.434
627.96	10.177
628.29	10.149
628.62	10.887
628.95	11.226
629.28	10.310
629.61	10.724
629.94	10.476
630.26	10.772
630.59	9.819
630.92	9.962
631.25	10.168
631.58	9.910
631.91	9.736
632.24	10.021
632.57	11.228
632.90	10.636
633.23	11.409
633.56	12.429
633.89	11.891
634.22	11.691
634.55	12.426
634.88	10.898
635.20	11.589
635.53	11.807
635.86	12.500
636.19	11.765
636.52	11.188
636.85	10.653
637.18	10.945
637.51	13.593
637.83	9.248
638.16	10.102
638.49	12.217
638.82	13.401
639.15	11.625
639.48	13.466
639.81	10.992
640.13	13.151
640.46	12.617
640.79	12.417
641.12	10.316
641.45	12.151
641.77	12.518
642.10	12.573
642.43	11.261
642.76	12.693
643.09	12.730
643.41	13.050
643.74	14.660
644.07	11.738
644.40	14.877
644.73	15.276
645.05	14.580
645.38	14.376
645.71	13.527
646.04	14.286
646.36	15.860
646.69	15.217
647.02	12.415
647.35	14.605
647.67	14.867
648.00	14.959
648.33	13.201
648.66	13.485
648.98	14.693
649.31	11.809
649.64	12.706
649.96	14.456
650.29	13.902
650.62	11.650
650.94	15.235
651.27	14.865
651.60	14.476
651.92	15.815
652.25	11.238
652.58	13.551
652.90	14.218
653.23	12.018
653.56	13.701
653.88	13.946
654.21	16.114
654.54	12.541
654.86	13.863
655.19	12.027
655.52	6.515
655.84	4.191
656.17	4.874
656.49	6.602
656.82	7.070
657.15	5.597
657.47	4.268
657.80	3.376
658.13	3.460
658.45	5.452
658.78	5.930
659.10	6.527
659.43	6.671
659.75	7.637
660.08	8.861
660.41	10.894
660.73	13.215
661.06	11.783
661.38	15.818
661.71	17.500
662.03	16.568
662.36	14.513
662.68	14.859
663.01	15.354
663.33	16.348
663.66	18.067
663.98	17.063
664.31	14.496
664.63	18.826
664.96	15.895
665.28	18.033
665.61	14.425
665.93	15.694
666.26	13.793
666.58	16.527
666.91	17.548
667.23	17.303
667.56	15.983
667.88	16.453
668.21	18.124
668.53	16.052
668.86	14.935
669.18	20.043
669.50	16.304
669.83	16.340
670.15	16.222
670.48	16.558
670.80	17.241
671.13	15.499
671.45	14.894
671.77	16.497
672.10	18.669
672.42	15.724
672.75	14.760
673.07	14.085
673.39	13.562
673.72	13.672
674.04	15.490
674.37	15.534
674.69	15.337
675.01	13.389
675.34	16.427
675.66	18.316
675.98	16.904
676.31	15.546
676.63	17.834
676.95	16.143
677.28	16.589
677.60	17.363
677.92	18.354
678.25	15.400
678.57	13.745
678.89	16.834
679.22	16.306
679.54	15.076
679.86	14.862
680.18	12.343
680.51	14.539
680.83	16.548
681.15	15.849
681.48	15.879
681.80	13.540
682.12	14.176
682.44	13.346
682.77	18.737
683.09	18.455
683.41	15.743
683.73	15.453
684.06	18.802
684.38	14.677
684.70	15.891
685.02	16.886
685.34	13.187
685.67	13.462
685.99	13.402
686.31	13.140
686.63	13.074
686.96	13.214
687.28	13.899
687.60	16.667
687.92	14.991
688.24	16.730
688.56	16.466
688.89	18.050
689.21	16.376
689.53	16.910
689.85	16.186
690.17	14.700
690.49	16.561
690.82	14.953
691.14	18.080
691.46	17.511
691.78	15.462
692.10	15.496
692.42	17.964
692.74	14.938
693.06	18.936
693.39	16.632
693.71	17.249
694.03	17.895
694.35	15.801
694.67	13.501
694.99	18.780
695.31	18.137
695.63	16.268
695.95	18.093
696.27	15.482
696.59	19.689
696.91	20.725
697.23	15.023
697.56	18.337
697.88	13.497
698.20	15.625
698.52	16.559
698.84	17.149
699.16	17.051
699.48	17.815
699.80	21.014
700.12	20.260
700.44	18.568
700.76	17.403
701.08	16.092
701.40	17.877
701.72	20.408
702.04	23.580
702.36	18.130
702.68	18.980
703.00	18.006
703.32	16.755
703.64	19.571
703.96	19.499
704.28	20.058
704.60	21.701
704.91	23.145
705.23	21.114
705.55	24.917
705.87	24.917
706.19	20.141
706.51	23.364
706.83	22.727
707.15	21.289
707.47	16.414
707.79	18.428
708.11	19.178
708.43	16.429
708.74	14.796
709.06	21.039
709.38	16.535
709.70	18.314
710.02	22.552
710.34	15.152
710.66	22.388
710.98	21.023
711.29	18.314
711.61	22.714
711.93	19.872
712.25	23.151
712.57	23.162
712.89	20.761
713.20	21.277
713.52	21.711
713.84	18.671
714.16	19.817
714.48	18.391
714.80	22.492
715.11	22.190
715.43	19.881
715.75	22.899
716.07	20.447
716.39	20.690
716.70	26.910
717.02	24.820
717.34	25.088
717.66	23.881
717.97	23.506
718.29	20.741
718.61	27.007
718.93	21.691
719.24	24.221
719.56	23.051
719.88	24.068
720.20	26.351
720.51	21.603
720.83	25.651
721.15	17.537
721.46	26.950
721.78	23.297
722.10	23.396
722.42	25.188
722.73	24.345
723.05	26.230
723.37	23.077
723.68	22.394
724.00	22.764
724.32	27.823
724.63	25.610
724.95	21.757
725.27	30.364
725.58	25.000
725.90	23.723
726.22	21.887
726.53	19.792
726.85	25.256
727.16	22.064
727.48	24.823
727.80	24.621
728.11	21.377
728.43	20.385
728.74	22.581
729.06	25.547
729.38	25.735
729.69	24.199
730.01	21.502
730.32	21.181
730.64	23.746
730.96	22.112
731.27	23.841
731.59	20.795
731.90	22.449
732.22	19.565
732.53	16.409
732.85	16.987
733.16	22.186
733.48	22.924
733.80	23.377
734.11	23.567
734.43	23.077
734.74	14.571
735.06	18.052
735.37	21.676
735.69	18.471
736.00	20.588
736.32	22.118
736.63	23.962
736.95	23.003
737.26	14.286
737.58	20.000
737.89	23.077
738.21	20.478
738.52	23.571
738.83	22.264
739.15	25.385
739.46	24.818
739.78	24.653
740.09	23.385
740.41	23.226
740.72	22.997
741.04	26.296
741.35	24.583
741.66	31.111
741.98	26.887
742.29	27.751
742.61	32.759
742.92	29.412
743.23	26.068
743.55	28.400
743.86	27.632
744.18	27.876
744.49	31.100
744.80	31.925
745.12	36.364
745.43	30.396
745.74	31.532
746.06	28.440
746.37	31.839
746.68	25.339
747.00	29.630
747.31	31.905
747.62	25.664
747.94	29.515
748.25	25.106
748.56	29.515
748.88	23.762
749.19	35.500
749.50	31.163
749.82	22.764
750.13	26.122
750.44	24.088
750.75	24.561
751.07	26.688
751.38	22.300
751.69	23.827
752.01	23.308
752.32	24.910
752.63	28.014
752.94	23.361
753.26	32.400
753.57	24.390
753.88	25.391
754.19	22.143
754.51	26.736
754.82	23.827
755.13	23.019
755.44	24.436
755.75	24.453
756.07	25.177
756.38	20.438
756.69	20.805
757.00	19.760
757.31	20.772
757.63	18.421
757.94	19.035
758.25	19.853
758.56	17.778
758.87	18.548
759.18	23.333
759.50	21.317
759.81	22.741
760.12	16.875
760.43	19.771
760.74	18.750
761.05	19.492
761.36	20.856
761.67	20.739
761.99	22.360
762.30	22.569
762.61	26.336
762.92	25.391
763.23	21.849
763.54	27.200
763.85	22.656
764.16	28.077
764.47	23.574
764.78	24.382
765.10	17.722
765.41	18.879
765.72	18.862
766.03	23.511
766.34	22.667
766.65	25.106
766.96	29.487
767.27	31.980
767.58	38.542
767.89	36.842
768.20	36.782
768.51	33.503
768.82	33.486
769.13	23.984
769.44	21.053
769.75	25.322
770.06	23.394
770.37	26.244
770.68	30.093
770.99	27.556
771.30	21.311
771.61	30.493
771.92	25.410
772.23	32.773
772.54	31.795
772.85	30.890
773.16	34.574
773.47	34.783
773.78	39.086
774.09	32.738
774.39	39.181
774.70	43.827
775.01	42.029
775.32	49.673
775.63	48.684
775.94	41.007
776.25	44.094
776.56	41.045
776.87	46.721
777.18	40.625
777.48	53.435
777.79	42.424
778.10	45.926
778.41	53.571
778.72	40.876
779.03	34.899
779.34	35.570
779.65	41.216
779.95	40.491
780.26	47.712
780.57	48.276
780.88	53.125
781.19	40.602
781.50	43.919
781.80	41.509
782.11	37.288
782.42	42.405
782.73	33.129
783.04	44.595
783.34	40.141
783.65	42.466
783.96	41.045
784.27	44.056
784.57	43.165
784.88	40.741
785.19	48.413
785.50	51.887
785.81	52.239
786.11	54.098
786.42	48.062
786.73	42.478
787.04	46.226
787.34	51.786
787.65	54.000
787.96	62.162
788.26	44.628
788.57	53.390
788.88	54.545
789.19	45.139
789.49	59.848
789.80	52.672
790.11	64.762
790.41	64.356
790.72	65.060
791.03	67.391
791.33	68.605
791.64	74.227
791.95	65.347
792.25	64.444
792.56	79.221
792.87	92.308
793.17	63.291
793.48	78.161
793.79	78.161
794.09	67.045
794.40	43.697
794.70	54.412
795.01	48.889
795.32	44.604
795.62	44.882
795.93	42.241
796.23	53.097
796.54	63.529
796.85	68.919
797.15	80.282
797.46	66.667
797.76	75.904
798.07	79.747
798.37	75.385
798.68	71.212
798.99	66.197
799.29	67.532
799.60	62.500
799.90	87.671
800.21	88.060
800.51	101.724
800.82	110.526
801.12	90.164
801.43	90.909
801.73	86.486
802.04	98.413
802.34	85.185
802.65	85.938
802.95	84.746
803.26	96.875
803.56	71.429
803.87	76.923
804.17	86.765
804.48	122.222
804.78	100.000
805.09	75.000
805.39	94.231
805.70	103.571
806.00	101.639
806.30	89.394
806.61	84.146
806.91	64.557
807.22	77.632
807.52	71.642
807.83	83.099
808.13	93.750
808.43	88.333
808.74	63.158
809.04	94.203
809.35	79.104
809.65	89.474
809.95	95.161
810.26	100.000
810.56	101.587
810.86	143.182
811.17	152.381
811.47	101.667
811.77	101.852
812.08	87.273
812.38	110.000
812.69	152.778
812.99	138.636
813.29	122.449
813.59	97.619
813.90	128.571
814.20	94.545
814.50	73.846
814.81	94.118
815.11	120.408
815.41	113.115
815.72	142.857
816.02	125.455
816.32	130.952
816.62	130.000
816.93	112.195
817.23	128.571
817.53	125.000
817.84	169.697
818.14	134.783
818.44	124.444
818.74	161.765
819.04	137.500
819.35	151.429
819.65	185.294
819.95	175.000
820.25	160.000
820.56	156.410
820.86	150.000
821.16	160.465
821.46	125.641
821.76	124.000
822.07	154.286
822.37	152.500
822.67	181.818
822.97	105.882
823.27	189.286
823.57	132.432
823.88	167.500
824.18	176.667
824.48	147.619
824.78	212.000
825.08	220.833
825.38	181.081
825.69	146.341
825.99	212.500
826.29	148.276
826.59	176.316
826.89	157.895
827.19	161.765
827.49	180.645
827.79	145.455
828.09	131.818
828.39	123.404
828.70	130.612
829.00	159.259
829.30	148.387
829.60	122.500
829.90	246.667
830.20	203.571
830.50	213.043
830.80	226.087
831.10	220.000
831.40	190.000
831.70	226.087
832.00	253.846
832.30	207.407
832.60	343.750
832.90	243.333
833.20	378.571
833.50	209.677
833.80	206.897
834.10	209.375
834.40	223.077
834.70	355.556
835.00	300.000
835.30	171.429
835.60	361.538
835.90	196.552
836.20	292.857
836.50	217.241
836.80	216.000
837.10	180.556
837.40	257.143
837.70	305.882
838.00	214.815
838.30	238.095
838.60	290.476
838.90	192.308
839.19	330.000
839.49	414.286
839.79	305.000
840.09	245.000
840.39	271.429
840.69	256.522
840.99	344.444
841.29	450.000
841.59	308.333
841.88	306.250
842.18	165.517
842.48	276.190
842.78	213.333
843.08	234.783
843.38	175.000
843.68	883.333
843.97	257.692
844.27	172.414
844.57	276.190
844.87	287.500
845.17	233.333
845.47	1966.667
845.76	488.889
846.06	311.765
846.36	562.500
846.66	357.143
846.96	337.500
847.25	409.091
847.55	418.182
847.85	252.174
848.15	520.000
848.44	371.429
848.74	283.333
849.04	317.647
849.34	520.000
849.63	278.947
849.93	472.727
850.23	1140.000
850.53	421.429
850.82	2050.000
851.12	-5000.000
851.42	4600.000
851.71	285.000
852.01	-1500.000
852.31	241.667
852.61	1733.333
852.90	266.667
853.20	236.000
853.50	341.176
853.79	242.857
854.09	195.833
854.39	337.500
854.68	178.378
854.98	203.226
855.28	183.333
855.57	272.414
855.87	233.333
856.17	257.895
856.46	300.000
856.76	294.118
857.05	189.655
857.35	237.500
857.65	293.333
857.94	239.130
858.24	223.077
858.53	335.000
858.83	259.091
859.13	393.333
859.42	0.000
859.72	588.889
860.01	427.273
860.31	240.909
860.60	289.474
860.90	239.130
861.20	566.667
861.49	491.667
861.79	-5100.000
862.08	725.000
862.38	314.286
862.67	400.000
862.97	341.176
863.26	555.556
863.56	277.778
863.85	433.333
864.15	700.000
864.44	380.000
864.74	900.000
865.03	675.000
865.33	315.789
865.62	481.818
865.92	407.692
866.21	408.333
866.51	0.000
866.80	490.909
867.10	1260.000
867.39	461.538
867.69	563.636
867.98	331.579
868.27	472.727
868.57	321.053
868.86	-5200.000
869.16	331.250
869.45	2500.000
869.75	-4500.000
870.04	466.667
870.33	657.143
870.63	1100.000
870.92	3200.000
871.22	814.286
871.51	394.118
871.80	238.095
872.10	314.286
>>>>>End Processed Spectral Data<<<<<
