SpectraSuite Data File
++++++++++++++++++++++++++++++++++++
Date: Wed May 13 19:51:12 PDT 2015
User: schluterlab
Dark Spectrum Present: Yes
Reference Spectrum Present: Yes
Number of Sampled Component Spectra: 1
Spectrometers: USB2E3373
Integration Time (usec): 3000 (USB2E3373)
Spectra Averaged: 3 (USB2E3373)
Boxcar Smoothing: 0 (USB2E3373)
Correct for Electrical Dark: No (USB2E3373)
Strobe/Lamp Enabled: No (USB2E3373)
Correct for Detector Non-linearity: No (USB2E3373)
Correct for Stray Light: No (USB2E3373)
Number of Pixels in Processed Spectrum: 2048
>>>>>Begin Processed Spectral Data<<<<<
178.53	0.000
178.91	-1075.000
179.29	-1450.000
179.67	-233.333
180.04	-1425.000
180.42	2700.000
180.80	1280.000
181.18	-1250.000
181.56	742.857
181.94	0.000
182.31	-700.000
182.69	1900.000
183.07	-562.500
183.45	-488.889
183.83	545.455
184.20	-420.000
184.58	2550.000
184.96	5200.000
185.34	-840.000
185.72	-687.500
186.09	-2200.000
186.47	2500.000
186.85	2600.000
187.23	4700.000
187.61	-1700.000
187.98	1475.000
188.36	590.909
188.74	627.273
189.12	-1100.000
189.49	640.000
189.87	-5600.000
190.25	-1475.000
190.63	414.286
191.00	392.308
191.38	866.667
191.76	-1225.000
192.14	1525.000
192.51	625.000
192.89	1133.333
193.27	512.500
193.65	-1200.000
194.02	560.000
194.40	940.000
194.78	590.000
195.15	491.667
195.53	620.000
195.91	-2450.000
196.29	393.750
196.66	342.105
197.04	-310.000
197.42	0.000
197.79	640.000
198.17	-4800.000
198.55	814.286
198.92	750.000
199.30	1060.000
199.68	0.000
200.05	372.222
200.43	814.286
200.81	5200.000
201.18	1700.000
201.56	-1466.667
201.94	577.778
202.31	655.556
202.69	458.333
203.07	570.000
203.44	0.000
203.82	1325.000
204.19	871.429
204.57	442.857
204.95	662.500
205.32	1500.000
205.70	490.909
206.08	392.857
206.45	2900.000
206.83	393.750
207.20	1033.333
207.58	840.000
207.96	372.222
208.33	775.000
208.71	-783.333
209.08	757.143
209.46	600.000
209.84	581.818
210.21	-1766.667
210.59	1450.000
210.96	-550.000
211.34	3000.000
211.71	660.000
212.09	700.000
212.46	0.000
212.84	1666.667
213.22	1350.000
213.59	-4600.000
213.97	1000.000
214.34	771.429
214.72	609.091
215.09	960.000
215.47	-2450.000
215.84	-2400.000
216.22	1866.667
216.59	414.286
216.97	1400.000
217.34	463.636
217.72	-766.667
218.09	0.000
218.47	-5300.000
218.84	655.556
219.22	871.429
219.59	1766.667
219.97	-642.857
220.34	1020.000
220.72	-1700.000
221.09	414.286
221.47	1550.000
221.84	-916.667
222.22	0.000
222.59	1375.000
222.97	-3000.000
223.34	1320.000
223.72	530.769
224.09	1160.000
224.46	2450.000
224.84	-5200.000
225.21	-1000.000
225.59	-4300.000
225.96	630.000
226.34	310.000
226.71	2700.000
227.08	712.500
227.46	620.000
227.83	-1300.000
228.21	-1900.000
228.58	611.111
228.95	-2800.000
229.33	-2600.000
229.70	1633.333
230.08	914.286
230.45	-900.000
230.82	350.000
231.20	883.333
231.57	700.000
231.95	525.000
232.32	290.909
232.69	518.182
233.07	757.143
233.44	400.000
233.81	-1700.000
234.19	305.263
234.56	466.667
234.93	475.000
235.31	409.091
235.68	315.385
236.05	350.000
236.43	169.697
236.80	278.947
237.17	4600.000
237.55	285.714
237.92	232.143
238.29	247.619
238.67	187.097
239.04	217.241
239.41	147.222
239.79	119.565
240.16	145.238
240.53	147.727
240.91	98.039
241.28	96.000
241.65	106.000
242.02	97.101
242.40	90.323
242.77	88.333
243.14	74.194
243.51	82.022
243.89	76.471
244.26	65.556
244.63	65.591
245.00	64.894
245.38	60.396
245.75	62.617
246.12	51.376
246.49	54.745
246.87	66.400
247.24	55.385
247.61	53.571
247.98	49.020
248.36	46.622
248.73	50.318
249.10	49.045
249.47	48.588
249.84	48.128
250.22	39.572
250.59	40.828
250.96	43.434
251.33	40.758
251.70	41.584
252.08	36.190
252.45	36.771
252.82	33.478
253.19	37.021
253.56	33.725
253.94	34.025
254.31	32.422
254.68	33.846
255.05	33.579
255.42	34.553
255.79	33.088
256.16	32.491
256.54	31.095
256.91	35.587
257.28	24.101
257.65	29.043
258.02	28.882
258.39	29.338
258.76	30.769
259.14	29.167
259.51	29.787
259.88	28.571
260.25	29.003
260.62	28.902
260.99	30.124
261.36	28.529
261.73	26.361
262.10	26.453
262.47	27.324
262.85	28.134
263.22	24.786
263.59	28.775
263.96	23.901
264.33	28.460
264.70	28.947
265.07	27.877
265.44	27.020
265.81	21.655
266.18	24.623
266.55	25.366
266.92	27.764
267.29	25.926
267.66	23.624
268.03	25.000
268.40	23.131
268.77	23.628
269.14	24.775
269.51	24.379
269.88	25.175
270.25	25.959
270.62	24.045
270.99	24.301
271.36	25.322
271.73	26.869
272.10	20.870
272.47	25.161
272.84	23.377
273.21	24.948
273.58	21.616
273.95	21.174
274.32	22.107
274.69	21.627
275.06	22.441
275.43	22.340
275.80	22.445
276.17	21.792
276.54	23.493
276.91	21.146
277.28	19.141
277.65	23.404
278.02	19.462
278.39	23.438
278.76	22.182
279.13	25.283
279.50	22.346
279.87	22.311
280.23	21.956
280.60	22.050
280.97	20.148
281.34	23.186
281.71	23.273
282.08	21.497
282.45	19.636
282.82	19.005
283.19	18.360
283.56	21.579
283.92	19.628
284.29	19.577
284.66	19.056
285.03	19.349
285.40	19.718
285.77	21.212
286.14	17.789
286.51	21.167
286.87	19.829
287.24	19.218
287.61	18.620
287.98	19.156
288.35	19.334
288.72	17.601
289.08	17.840
289.45	20.593
289.82	20.488
290.19	17.739
290.56	18.377
290.93	17.976
291.29	18.098
291.66	16.962
292.03	21.076
292.40	19.236
292.77	18.639
293.13	18.657
293.50	18.076
293.87	16.741
294.24	17.037
294.60	15.138
294.97	18.314
295.34	18.336
295.71	18.466
296.08	15.954
296.44	15.818
296.81	13.871
297.18	18.022
297.55	14.116
297.91	14.908
298.28	17.403
298.65	16.188
299.02	17.260
299.38	15.936
299.75	13.612
300.12	14.815
300.48	14.750
300.85	14.550
301.22	17.197
301.59	14.646
301.95	15.869
302.32	15.148
302.69	16.129
303.05	17.212
303.42	14.938
303.79	14.383
304.15	12.937
304.52	14.137
304.89	12.892
305.25	14.617
305.62	14.609
305.99	14.758
306.35	14.541
306.72	16.368
307.09	15.538
307.45	14.977
307.82	14.174
308.19	14.128
308.55	16.073
308.92	14.071
309.29	13.411
309.65	13.892
310.02	14.905
310.38	14.086
310.75	15.839
311.12	16.684
311.48	15.361
311.85	15.933
312.22	16.129
312.58	14.345
312.95	15.206
313.31	15.437
313.68	15.904
314.05	18.047
314.41	15.578
314.78	16.818
315.14	17.577
315.51	15.963
315.87	17.624
316.24	16.683
316.61	17.349
316.97	18.885
317.34	17.417
317.70	19.025
318.07	18.961
318.43	19.472
318.80	19.963
319.16	20.904
319.53	19.512
319.89	22.095
320.26	22.300
320.62	22.123
320.99	23.434
321.35	23.333
321.72	24.127
322.08	23.791
322.45	24.975
322.81	25.388
323.18	26.108
323.54	25.046
323.91	25.943
324.27	26.577
324.64	27.120
325.00	25.879
325.37	28.298
325.73	29.354
326.10	29.921
326.46	30.108
326.83	31.838
327.19	31.768
327.56	31.010
327.92	31.321
328.29	32.742
328.65	32.689
329.01	32.130
329.38	34.135
329.74	32.133
330.11	34.025
330.47	33.058
330.84	34.559
331.20	34.882
331.56	34.679
331.93	34.722
332.29	33.895
332.66	34.602
333.02	35.832
333.38	35.863
333.75	36.453
334.11	36.032
334.48	36.291
334.84	35.754
335.20	36.909
335.57	36.174
335.93	35.268
336.29	36.722
336.66	36.429
337.02	36.561
337.38	37.222
337.75	36.631
338.11	36.885
338.47	36.648
338.84	38.497
339.20	36.881
339.56	38.321
339.93	35.545
340.29	36.957
340.65	37.077
341.02	38.569
341.38	37.811
341.74	37.544
342.11	38.777
342.47	37.709
342.83	37.586
343.20	38.009
343.56	37.911
343.92	38.772
344.28	38.520
344.65	38.607
345.01	37.121
345.37	37.221
345.73	37.817
346.10	39.557
346.46	38.220
346.82	38.386
347.19	37.845
347.55	38.424
347.91	39.159
348.27	38.702
348.63	38.629
349.00	38.430
349.36	39.245
349.72	39.134
350.08	38.979
350.45	39.788
350.81	39.805
351.17	40.519
351.53	39.312
351.89	39.026
352.26	39.779
352.62	40.417
352.98	40.032
353.34	40.263
353.70	39.771
354.07	41.290
354.43	38.889
354.79	40.628
355.15	39.505
355.51	40.128
355.87	41.796
356.24	41.368
356.60	40.417
356.96	40.467
357.32	41.864
357.68	42.205
358.04	41.884
358.40	42.439
358.77	42.879
359.13	41.673
359.49	42.275
359.85	42.143
360.21	42.903
360.57	42.646
360.93	43.385
361.29	42.404
361.66	41.950
362.02	42.836
362.38	43.574
362.74	42.113
363.10	44.115
363.46	43.580
363.82	44.142
364.18	43.392
364.54	45.097
364.90	45.609
365.26	44.706
365.62	46.384
365.98	45.142
366.35	44.269
366.71	45.842
367.07	44.574
367.43	46.589
367.79	45.182
368.15	46.911
368.51	47.166
368.87	46.253
369.23	47.110
369.59	47.791
369.95	47.279
370.31	47.293
370.67	47.101
371.03	47.790
371.39	47.522
371.75	48.309
372.11	46.942
372.47	48.534
372.83	49.135
373.19	49.350
373.55	49.372
373.91	50.589
374.27	48.247
374.63	49.018
374.99	50.494
375.35	49.058
375.71	49.692
376.07	49.863
376.42	50.894
376.78	50.298
377.14	50.407
377.50	50.927
377.86	50.598
378.22	51.138
378.58	51.692
378.94	50.660
379.30	51.845
379.66	52.348
380.02	52.457
380.38	50.941
380.74	52.701
381.09	52.506
381.45	53.780
381.81	53.133
382.17	54.459
382.53	53.962
382.89	54.074
383.25	52.658
383.61	55.514
383.97	54.722
384.32	53.774
384.68	54.585
385.04	54.763
385.40	55.108
385.76	55.221
386.12	55.181
386.48	55.884
386.83	57.152
387.19	57.328
387.55	57.019
387.91	55.985
388.27	57.143
388.62	57.037
388.98	55.897
389.34	56.884
389.70	55.794
390.06	57.161
390.42	56.680
390.77	58.015
391.13	58.775
391.49	57.043
391.85	57.607
392.20	58.297
392.56	60.038
392.92	58.270
393.28	58.935
393.64	58.333
393.99	58.400
394.35	59.119
394.71	58.281
395.07	58.879
395.42	59.703
395.78	59.542
396.14	58.845
396.50	61.090
396.85	60.331
397.21	58.755
397.57	59.640
397.92	60.937
398.28	60.314
398.64	60.514
399.00	60.045
399.35	59.334
399.71	60.938
400.07	59.965
400.42	60.798
400.78	61.098
401.14	60.610
401.49	61.851
401.85	60.557
402.21	60.838
402.57	61.875
402.92	61.665
403.28	61.774
403.63	61.881
403.99	61.975
404.35	60.909
404.70	61.151
405.06	61.095
405.42	62.633
405.77	61.371
406.13	60.779
406.49	62.448
406.84	62.020
407.20	61.348
407.55	62.923
407.91	63.267
408.27	62.285
408.62	61.288
408.98	62.071
409.34	62.792
409.69	62.323
410.05	62.206
410.40	63.058
410.76	61.768
411.11	61.701
411.47	62.109
411.83	63.103
412.18	61.286
412.54	62.453
412.89	62.108
413.25	63.341
413.60	63.434
413.96	63.267
414.31	62.880
414.67	63.245
415.03	64.040
415.38	63.531
415.74	62.379
416.09	64.533
416.45	63.655
416.80	64.111
417.16	63.673
417.51	63.968
417.87	61.914
418.22	62.208
418.58	62.944
418.93	62.592
419.29	63.208
419.64	64.043
420.00	62.561
420.35	62.667
420.71	63.837
421.06	62.232
421.42	62.515
421.77	63.677
422.12	62.718
422.48	62.547
422.83	63.366
423.19	63.039
423.54	63.320
423.90	63.072
424.25	62.479
424.61	64.226
424.96	65.190
425.31	62.348
425.67	61.011
426.02	62.514
426.38	64.835
426.73	62.961
427.09	63.891
427.44	63.427
427.79	63.830
428.15	63.393
428.50	62.083
428.85	63.588
429.21	62.838
429.56	62.934
429.92	62.355
430.27	63.059
430.62	61.802
430.98	62.636
431.33	61.598
431.68	63.351
432.04	61.022
432.39	63.449
432.74	63.136
433.10	64.233
433.45	64.723
433.80	63.082
434.16	62.821
434.51	63.000
434.86	62.600
435.22	61.979
435.57	62.857
435.92	64.482
436.28	64.294
436.63	63.300
436.98	62.450
437.34	62.493
437.69	63.127
438.04	63.069
438.39	63.343
438.75	63.393
439.10	63.240
439.45	63.636
439.81	62.417
440.16	61.434
440.51	62.507
440.86	63.289
441.22	61.846
441.57	61.624
441.92	62.180
442.27	62.217
442.63	61.401
442.98	63.380
443.33	61.957
443.68	61.022
444.03	62.665
444.39	61.052
444.74	61.310
445.09	62.588
445.44	60.908
445.79	59.772
446.15	61.567
446.50	61.712
446.85	61.151
447.20	61.397
447.55	62.479
447.91	61.666
448.26	60.712
448.61	61.391
448.96	62.016
449.31	62.542
449.66	61.564
450.02	60.724
450.37	60.488
450.72	60.575
451.07	60.878
451.42	58.723
451.77	60.364
452.12	59.411
452.47	61.505
452.83	59.907
453.18	60.941
453.53	61.967
453.88	60.012
454.23	59.414
454.58	59.661
454.93	60.458
455.28	58.915
455.63	59.769
455.98	61.250
456.34	59.736
456.69	60.676
457.04	60.124
457.39	59.439
457.74	59.141
458.09	58.597
458.44	59.179
458.79	57.430
459.14	59.255
459.49	58.435
459.84	57.452
460.19	58.220
460.54	58.449
460.89	57.817
461.24	59.199
461.59	58.571
461.94	57.891
462.29	58.398
462.64	58.583
462.99	57.385
463.34	58.333
463.69	57.911
464.04	58.087
464.39	56.986
464.74	58.111
465.09	57.720
465.44	57.119
465.79	55.928
466.14	55.556
466.49	55.784
466.84	55.925
467.19	54.617
467.54	57.500
467.89	55.102
468.24	56.777
468.59	57.448
468.94	56.017
469.29	56.362
469.64	56.292
469.99	57.307
470.34	55.812
470.68	56.609
471.03	56.122
471.38	56.915
471.73	55.496
472.08	56.184
472.43	55.151
472.78	54.312
473.13	55.199
473.48	54.494
473.83	55.915
474.17	54.512
474.52	55.583
474.87	54.116
475.22	53.511
475.57	53.358
475.92	53.744
476.27	52.706
476.61	53.006
476.96	53.271
477.31	52.800
477.66	54.158
478.01	52.535
478.36	53.411
478.70	52.025
479.05	51.970
479.40	52.303
479.75	53.686
480.10	51.640
480.45	50.024
480.79	50.836
481.14	51.468
481.49	52.112
481.84	50.709
482.19	51.249
482.53	51.284
482.88	50.535
483.23	51.262
483.58	50.136
483.92	51.172
484.27	49.063
484.62	50.000
484.97	49.192
485.31	49.007
485.66	48.009
486.01	47.052
486.36	45.295
486.70	44.400
487.05	44.610
487.40	45.557
487.75	46.687
488.09	47.619
488.44	47.265
488.79	48.174
489.13	48.892
489.48	48.246
489.83	48.123
490.17	49.233
490.52	48.140
490.87	47.897
491.22	47.704
491.56	47.016
491.91	48.115
492.26	47.129
492.60	47.143
492.95	46.024
493.30	47.196
493.64	48.437
493.99	46.054
494.34	46.253
494.68	46.749
495.03	47.415
495.37	46.068
495.72	47.417
496.07	47.471
496.41	44.513
496.76	45.295
497.11	44.890
497.45	46.530
497.80	45.969
498.14	45.459
498.49	45.951
498.84	45.542
499.18	44.714
499.53	45.157
499.87	44.455
500.22	45.455
500.56	46.019
500.91	44.615
501.26	45.092
501.60	45.183
501.95	43.355
502.29	44.424
502.64	44.227
502.98	43.619
503.33	43.419
503.67	44.084
504.02	43.639
504.36	42.723
504.71	43.087
505.06	43.373
505.40	43.364
505.75	42.768
506.09	43.003
506.44	43.069
506.78	42.815
507.13	43.614
507.47	42.727
507.82	43.212
508.16	43.414
508.51	43.480
508.85	43.198
509.19	42.704
509.54	41.990
509.88	42.452
510.23	42.879
510.57	43.189
510.92	43.035
511.26	41.778
511.61	41.701
511.95	41.493
512.30	43.054
512.64	42.504
512.98	42.069
513.33	41.649
513.67	40.928
514.02	41.396
514.36	41.180
514.70	40.952
515.05	40.993
515.39	41.559
515.74	41.047
516.08	40.693
516.42	41.731
516.77	41.416
517.11	40.622
517.46	41.084
517.80	41.580
518.14	40.591
518.49	41.540
518.83	40.284
519.17	39.838
519.52	41.256
519.86	39.475
520.20	40.809
520.55	41.652
520.89	40.633
521.23	40.350
521.58	39.796
521.92	40.784
522.26	39.109
522.61	41.495
522.95	40.393
523.29	40.475
523.64	39.207
523.98	41.035
524.32	39.626
524.66	39.327
525.01	39.277
525.35	39.777
525.69	40.271
526.04	39.626
526.38	39.658
526.72	39.448
527.06	39.360
527.41	37.438
527.75	39.743
528.09	39.499
528.43	39.516
528.78	38.476
529.12	37.697
529.46	39.559
529.80	38.243
530.15	38.318
530.49	36.923
530.83	38.418
531.17	40.209
531.51	39.429
531.86	38.258
532.20	39.113
532.54	38.053
532.88	37.420
533.22	36.914
533.57	37.531
533.91	36.183
534.25	36.938
534.59	36.852
534.93	36.585
535.27	36.331
535.62	37.363
535.96	37.037
536.30	36.427
536.64	37.798
536.98	37.558
537.32	35.089
537.66	36.467
538.01	36.669
538.35	36.264
538.69	38.098
539.03	35.997
539.37	35.591
539.71	34.738
540.05	36.732
540.39	36.213
540.73	36.223
541.07	36.600
541.42	35.356
541.76	36.387
542.10	35.511
542.44	35.298
542.78	36.100
543.12	34.613
543.46	35.672
543.80	35.068
544.14	34.981
544.48	34.095
544.82	34.958
545.16	35.459
545.50	34.190
545.84	35.349
546.18	35.017
546.52	35.650
546.86	35.533
547.20	35.469
547.54	33.467
547.88	34.821
548.22	33.686
548.56	32.893
548.90	32.586
549.24	33.737
549.58	33.970
549.92	34.409
550.26	34.446
550.60	33.887
550.94	33.521
551.28	32.919
551.62	34.436
551.96	33.404
552.30	33.720
552.64	33.874
552.98	33.153
553.32	33.648
553.66	34.151
554.00	33.699
554.34	32.712
554.68	34.621
555.02	33.357
555.36	33.542
555.69	33.085
556.03	32.974
556.37	33.834
556.71	32.538
557.05	34.244
557.39	33.240
557.73	32.957
558.07	33.648
558.41	33.285
558.75	33.872
559.08	33.408
559.42	32.653
559.76	32.941
560.10	33.547
560.44	32.635
560.78	31.537
561.12	31.728
561.45	31.943
561.79	31.905
562.13	31.254
562.47	31.421
562.81	32.287
563.15	31.639
563.48	31.300
563.82	31.963
564.16	31.131
564.50	30.534
564.84	30.721
565.17	30.759
565.51	30.735
565.85	30.964
566.19	29.931
566.52	31.096
566.86	29.777
567.20	31.368
567.54	29.623
567.88	29.603
568.21	29.101
568.55	28.665
568.89	29.280
569.23	27.941
569.56	28.097
569.90	27.925
570.24	27.305
570.57	27.066
570.91	26.438
571.25	26.127
571.59	26.804
571.92	26.210
572.26	26.314
572.60	26.306
572.93	25.997
573.27	25.762
573.61	26.047
573.95	25.556
574.28	25.452
574.62	25.073
574.96	24.540
575.29	24.952
575.63	25.102
575.97	25.358
576.30	24.801
576.64	25.044
576.98	24.550
577.31	24.538
577.65	24.343
577.98	24.789
578.32	24.166
578.66	24.214
578.99	24.515
579.33	24.716
579.67	24.495
580.00	24.718
580.34	24.371
580.67	24.486
581.01	24.601
581.35	23.849
581.68	23.972
582.02	23.089
582.35	23.834
582.69	23.745
583.02	23.875
583.36	24.003
583.70	24.351
584.03	24.007
584.37	24.690
584.70	24.869
585.04	24.144
585.37	23.928
585.71	23.919
586.04	23.919
586.38	24.478
586.72	24.220
587.05	24.015
587.39	23.562
587.72	23.937
588.06	23.746
588.39	24.527
588.73	24.435
589.06	24.307
589.40	24.579
589.73	24.534
590.07	24.840
590.40	24.626
590.73	25.566
591.07	25.315
591.40	25.390
591.74	25.844
592.07	25.044
592.41	25.589
592.74	24.419
593.08	24.017
593.41	23.758
593.75	23.017
594.08	23.667
594.41	24.037
594.75	24.104
595.08	24.159
595.42	24.308
595.75	24.181
596.09	24.371
596.42	24.401
596.75	24.778
597.09	25.411
597.42	24.030
597.75	24.666
598.09	25.174
598.42	24.055
598.76	23.591
599.09	23.489
599.42	23.071
599.76	23.865
600.09	23.169
600.42	22.973
600.76	23.000
601.09	23.388
601.42	23.820
601.76	23.529
602.09	23.715
602.42	23.686
602.76	23.660
603.09	23.879
603.42	23.350
603.76	23.666
604.09	23.769
604.42	23.971
604.76	24.336
605.09	23.678
605.42	22.830
605.75	23.510
606.09	22.977
606.42	23.662
606.75	23.725
607.09	23.859
607.42	23.534
607.75	23.249
608.08	22.883
608.42	23.442
608.75	23.490
609.08	23.127
609.41	23.608
609.75	23.583
610.08	23.751
610.41	22.905
610.74	23.132
611.07	24.457
611.41	23.749
611.74	24.786
612.07	24.172
612.40	24.554
612.73	23.632
613.07	23.976
613.40	24.065
613.73	23.440
614.06	24.624
614.39	24.069
614.72	23.947
615.06	23.739
615.39	23.567
615.72	23.466
616.05	23.339
616.38	23.291
616.71	25.178
617.05	24.735
617.38	24.233
617.71	23.544
618.04	24.038
618.37	23.536
618.70	24.331
619.03	25.000
619.36	25.187
619.69	25.070
620.03	25.412
620.36	25.201
620.69	25.411
621.02	24.853
621.35	25.529
621.68	25.701
622.01	25.000
622.34	25.416
622.67	24.563
623.00	24.945
623.33	23.731
623.66	25.304
623.99	24.448
624.32	24.536
624.65	24.153
624.99	24.150
625.32	24.692
625.65	25.545
625.98	24.366
626.31	26.516
626.64	25.224
626.97	25.686
627.30	24.771
627.63	25.923
627.96	26.325
628.29	25.197
628.62	28.088
628.95	27.830
629.28	26.551
629.61	27.956
629.94	25.714
630.26	26.311
630.59	27.359
630.92	25.383
631.25	26.160
631.58	28.929
631.91	28.499
632.24	25.738
632.57	28.541
632.90	27.193
633.23	28.076
633.56	27.458
633.89	28.652
634.22	29.171
634.55	29.467
634.88	26.946
635.20	28.913
635.53	29.639
635.86	27.599
636.19	29.176
636.52	28.143
636.85	26.919
637.18	25.806
637.51	28.605
637.83	26.880
638.16	30.691
638.49	28.967
638.82	29.709
639.15	28.500
639.48	28.055
639.81	28.820
640.13	28.385
640.46	27.651
640.79	27.873
641.12	28.748
641.45	29.330
641.77	29.897
642.10	29.094
642.43	28.378
642.76	29.567
643.09	31.595
643.41	28.832
643.74	32.099
644.07	28.811
644.40	30.061
644.73	30.551
645.05	29.635
645.38	29.542
645.71	29.147
646.04	30.731
646.36	31.386
646.69	30.100
647.02	30.612
647.35	31.100
647.67	30.442
648.00	30.894
648.33	30.528
648.66	28.485
648.98	28.336
649.31	26.308
649.64	29.746
649.96	28.912
650.29	28.910
650.62	30.097
650.94	30.794
651.27	31.757
651.60	30.283
651.92	29.712
652.25	29.642
652.58	28.660
652.90	30.332
653.23	28.351
653.56	29.764
653.88	30.745
654.21	27.488
654.54	28.878
654.86	29.751
655.19	24.865
655.52	18.171
655.84	15.268
656.17	19.538
656.49	26.831
656.82	27.024
657.15	20.421
657.47	15.394
657.80	11.935
658.13	12.104
658.45	18.256
658.78	18.537
659.10	19.477
659.43	20.184
659.75	21.751
660.08	22.848
660.41	26.257
660.73	28.717
661.06	28.822
661.38	29.636
661.71	32.885
662.03	31.361
662.36	29.622
662.68	31.928
663.01	31.717
663.33	29.724
663.66	27.101
663.98	31.317
664.31	27.731
664.63	30.364
664.96	27.968
665.28	29.918
665.61	29.240
665.93	30.584
666.26	34.483
666.58	31.799
666.91	31.290
667.23	31.685
667.56	30.022
667.88	32.265
668.21	33.049
668.53	32.755
668.86	29.654
669.18	32.196
669.50	31.739
669.83	34.641
670.15	31.556
670.48	29.412
670.80	32.328
671.13	31.847
671.45	31.489
671.77	32.994
672.10	30.314
672.42	27.739
672.75	27.529
673.07	29.401
673.39	27.848
673.72	28.320
674.04	30.392
674.37	29.903
674.69	30.266
675.01	30.126
675.34	33.060
675.66	33.053
675.98	30.346
676.31	31.513
676.63	31.423
676.95	31.237
677.28	31.075
677.60	31.429
677.92	30.802
678.25	31.211
678.57	28.287
678.89	31.263
679.22	28.487
679.54	28.817
679.86	27.706
680.18	27.907
680.51	26.241
680.83	27.580
681.15	27.547
681.48	28.355
681.80	28.433
682.12	29.693
682.44	25.919
682.77	29.532
683.09	34.979
683.41	30.155
683.73	29.360
684.06	31.198
684.38	29.159
684.70	28.682
685.02	30.957
685.34	26.007
685.67	27.448
685.99	26.632
686.31	27.304
686.63	25.795
686.96	25.893
687.28	28.339
687.60	26.630
687.92	28.154
688.24	26.996
688.56	29.518
688.89	31.950
689.21	28.384
689.53	29.645
689.85	31.707
690.17	29.607
690.49	32.059
690.82	32.243
691.14	29.018
691.46	29.325
691.78	29.116
692.10	33.471
692.42	32.335
692.74	28.631
693.06	29.574
693.39	30.185
693.71	30.131
694.03	29.684
694.35	29.221
694.67	26.545
694.99	31.707
695.31	30.637
695.63	31.579
695.95	31.540
696.27	30.457
696.59	32.383
696.91	35.492
697.23	28.638
697.56	30.064
697.88	27.607
698.20	31.875
698.52	32.258
698.84	29.621
699.16	26.267
699.48	29.454
699.80	29.952
700.12	33.506
700.44	29.443
700.76	33.702
701.08	31.897
701.40	31.285
701.72	35.569
702.04	38.920
702.36	32.578
702.68	29.462
703.00	35.457
703.32	31.915
703.64	31.099
703.96	30.084
704.28	35.756
704.60	33.724
704.91	35.905
705.23	34.311
705.55	36.877
705.87	39.535
706.19	37.102
706.51	35.826
706.83	32.121
707.15	36.134
707.47	31.818
707.79	30.958
708.11	28.767
708.43	30.714
708.74	29.082
709.06	31.429
709.38	32.283
709.70	35.174
710.02	33.828
710.34	30.606
710.66	37.015
710.98	35.511
711.29	32.267
711.61	34.808
711.93	33.654
712.25	36.656
712.57	38.603
712.89	37.370
713.20	31.915
713.52	40.132
713.84	33.544
714.16	32.622
714.48	32.184
714.80	36.170
715.11	31.700
715.43	33.531
715.75	35.362
716.07	35.144
716.39	35.423
716.70	38.538
717.02	35.252
717.34	33.216
717.66	37.687
717.97	38.645
718.29	35.926
718.61	37.591
718.93	39.706
719.24	37.370
719.56	34.576
719.88	34.237
720.20	34.459
720.51	35.540
720.83	31.970
721.15	36.567
721.46	36.525
721.78	39.427
722.10	42.642
722.42	38.346
722.73	37.828
723.05	34.836
723.37	36.842
723.68	42.085
724.00	39.024
724.32	36.290
724.63	39.431
724.95	35.146
725.27	41.700
725.58	39.062
725.90	40.511
726.22	38.113
726.53	33.681
726.85	40.956
727.16	38.078
727.48	35.816
727.80	36.364
728.11	38.406
728.43	37.308
728.74	32.975
729.06	35.401
729.38	34.559
729.69	34.875
730.01	33.788
730.32	32.986
730.64	30.769
730.96	31.353
731.27	33.444
731.59	32.110
731.90	32.362
732.22	32.298
732.53	32.817
732.85	32.051
733.16	29.904
733.48	34.551
733.80	33.117
734.11	33.121
734.43	32.840
734.74	32.571
735.06	29.513
735.37	34.682
735.69	31.847
736.00	33.007
736.32	34.579
736.63	31.949
736.95	36.102
737.26	27.891
737.58	31.290
737.89	35.117
738.21	35.495
738.52	35.714
738.83	35.849
739.15	34.231
739.46	35.036
739.78	31.597
740.09	32.000
740.41	35.484
740.72	35.889
741.04	34.815
741.35	38.333
741.66	39.556
741.98	42.453
742.29	43.541
742.61	46.983
742.92	41.629
743.23	38.462
743.55	33.200
743.86	33.333
744.18	42.478
744.49	44.498
744.80	44.131
745.12	39.091
745.43	45.815
745.74	42.342
746.06	40.367
746.37	44.395
746.68	42.986
747.00	41.667
747.31	40.476
747.62	36.283
747.94	43.612
748.25	33.191
748.56	42.291
748.88	34.158
749.19	45.500
749.50	36.744
749.82	37.805
750.13	39.184
750.44	38.321
750.75	34.737
751.07	36.013
751.38	32.753
751.69	34.657
752.01	33.459
752.32	34.657
752.63	35.816
752.94	35.246
753.26	40.000
753.57	39.024
753.88	38.672
754.19	35.000
754.51	37.500
754.82	32.491
755.13	36.604
755.44	33.835
755.75	30.657
756.07	35.461
756.38	31.022
756.69	30.537
757.00	30.240
757.31	31.751
757.63	28.363
757.94	30.295
758.25	24.755
758.56	27.901
758.87	29.839
759.18	33.030
759.50	27.900
759.81	33.333
760.12	33.437
760.43	28.080
760.74	28.261
761.05	32.486
761.36	32.086
761.67	34.659
761.99	30.435
762.30	32.986
762.61	35.496
762.92	35.156
763.23	36.555
763.54	41.200
763.85	34.375
764.16	36.923
764.47	37.643
764.78	34.982
765.10	30.063
765.41	30.678
765.72	28.743
766.03	32.288
766.34	32.333
766.65	42.979
766.96	40.598
767.27	44.162
767.58	47.396
767.89	42.632
768.20	41.954
768.51	41.117
768.82	42.661
769.13	36.992
769.44	38.866
769.75	33.476
770.06	32.569
770.37	39.819
770.68	43.519
770.99	37.333
771.30	35.246
771.61	41.256
771.92	36.475
772.23	35.714
772.54	43.077
772.85	40.838
773.16	44.681
773.47	41.304
773.78	44.670
774.09	45.833
774.39	46.199
774.70	44.444
775.01	51.449
775.32	52.941
775.63	50.658
775.94	48.201
776.25	52.756
776.56	60.448
776.87	49.180
777.18	57.812
777.48	56.489
777.79	59.848
778.10	61.481
778.41	52.679
778.72	46.715
779.03	53.020
779.34	52.349
779.65	46.622
779.95	49.693
780.26	54.902
780.57	48.966
780.88	64.062
781.19	55.639
781.50	54.054
781.80	44.654
782.11	46.893
782.42	47.468
782.73	52.147
783.04	55.405
783.34	58.451
783.65	71.233
783.96	64.179
784.27	57.343
784.57	51.079
784.88	50.926
785.19	60.317
785.50	68.868
785.81	63.433
786.11	67.213
786.42	58.915
786.73	51.327
787.04	67.925
787.34	66.964
787.65	66.000
787.96	61.261
788.26	63.636
788.57	61.017
788.88	57.025
789.19	51.389
789.49	63.636
789.80	58.015
790.11	69.524
790.41	83.168
790.72	63.855
791.03	58.696
791.33	79.070
791.64	67.010
791.95	76.238
792.25	86.667
792.56	87.013
792.87	85.897
793.17	93.671
793.48	85.057
793.79	68.966
794.09	71.591
794.40	64.706
794.70	61.029
795.01	47.407
795.32	48.201
795.62	63.780
795.93	64.655
796.23	62.832
796.54	78.824
796.85	82.432
797.15	105.634
797.46	87.879
797.76	81.928
798.07	86.076
798.37	100.000
798.68	83.333
798.99	91.549
799.29	79.221
799.60	77.273
799.90	87.671
800.21	92.537
800.51	105.172
800.82	103.509
801.12	101.639
801.43	98.485
801.73	97.297
802.04	112.698
802.34	92.593
802.65	87.500
802.95	108.475
803.26	106.250
803.56	81.429
803.87	96.923
804.17	80.882
804.48	101.852
804.78	82.759
805.09	104.412
805.39	113.462
805.70	107.143
806.00	109.836
806.30	81.818
806.61	90.244
806.91	73.418
807.22	84.211
807.52	88.060
807.83	94.366
808.13	109.375
808.43	90.000
808.74	76.316
809.04	98.551
809.35	95.522
809.65	85.526
809.95	117.742
810.26	94.915
810.56	96.825
810.86	143.182
811.17	145.238
811.47	113.333
811.77	114.815
812.08	109.091
812.38	120.000
812.69	147.222
812.99	147.727
813.29	112.245
813.59	123.810
813.90	124.490
814.20	100.000
814.50	78.462
814.81	95.588
815.11	136.735
815.41	111.475
815.72	150.000
816.02	121.818
816.32	138.095
816.62	140.000
816.93	153.659
817.23	147.619
817.53	143.182
817.84	196.970
818.14	145.652
818.44	140.000
818.74	167.647
819.04	132.500
819.35	151.429
819.65	202.941
819.95	214.286
820.25	285.000
820.56	164.103
820.86	150.000
821.16	113.953
821.46	151.282
821.76	130.000
822.07	162.857
822.37	160.000
822.67	169.697
822.97	129.412
823.27	203.571
823.57	140.541
823.88	180.000
824.18	173.333
824.48	161.905
824.78	240.000
825.08	200.000
825.38	167.568
825.69	136.585
825.99	250.000
826.29	179.310
826.59	168.421
826.89	144.737
827.19	176.471
827.49	200.000
827.79	175.000
828.09	138.636
828.39	114.894
828.70	130.612
829.00	177.778
829.30	167.742
829.60	157.500
829.90	346.667
830.20	221.429
830.50	252.174
830.80	204.348
831.10	193.333
831.40	223.333
831.70	221.739
832.00	242.308
832.30	244.444
832.60	318.750
832.90	183.333
833.20	407.143
833.50	167.742
833.80	227.586
834.10	196.875
834.40	215.385
834.70	288.889
835.00	323.810
835.30	191.429
835.60	353.846
835.90	206.897
836.20	321.429
836.50	210.345
836.80	232.000
837.10	172.222
837.40	261.905
837.70	282.353
838.00	240.741
838.30	266.667
838.60	319.048
838.90	203.846
839.19	320.000
839.49	342.857
839.79	335.000
840.09	275.000
840.39	295.238
840.69	243.478
840.99	294.444
841.29	590.000
841.59	333.333
841.88	331.250
842.18	175.862
842.48	304.762
842.78	176.667
843.08	234.783
843.38	193.750
843.68	916.667
843.97	246.154
844.27	244.828
844.57	314.286
844.87	406.250
845.17	200.000
845.47	1733.333
845.76	533.333
846.06	288.235
846.36	400.000
846.66	335.714
846.96	293.750
847.25	472.727
847.55	400.000
847.85	265.217
848.15	460.000
848.44	407.143
848.74	272.222
849.04	288.235
849.34	510.000
849.63	289.474
849.93	454.545
850.23	1080.000
850.53	442.857
850.82	2800.000
851.12	-4900.000
851.42	4200.000
851.71	270.000
852.01	-1433.333
852.31	262.500
852.61	1700.000
852.90	300.000
853.20	224.000
853.50	364.706
853.79	342.857
854.09	229.167
854.39	350.000
854.68	194.595
854.98	216.129
855.28	186.667
855.57	231.034
855.87	222.222
856.17	263.158
856.46	273.333
856.76	276.471
857.05	210.345
857.35	229.167
857.65	386.667
857.94	226.087
858.24	250.000
858.53	295.000
858.83	259.091
859.13	326.667
859.42	0.000
859.72	600.000
860.01	500.000
860.31	277.273
860.60	263.158
860.90	260.870
861.20	677.778
861.49	425.000
861.79	-5000.000
862.08	625.000
862.38	295.238
862.67	323.077
862.97	335.294
863.26	555.556
863.56	350.000
863.85	483.333
864.15	612.500
864.44	420.000
864.74	950.000
865.03	625.000
865.33	342.105
865.62	500.000
865.92	415.385
866.21	366.667
866.51	0.000
866.80	518.182
867.10	1240.000
867.39	407.692
867.69	527.273
867.98	273.684
868.27	509.091
868.57	321.053
868.86	-4100.000
869.16	318.750
869.45	2200.000
869.75	-5000.000
870.04	458.333
870.33	757.143
870.63	1275.000
870.92	2950.000
871.22	785.714
871.51	288.235
871.80	223.810
872.10	392.857
>>>>>End Processed Spectral Data<<<<<
