SpectraSuite Data File
++++++++++++++++++++++++++++++++++++
Date: Wed May 13 19:43:05 PDT 2015
User: schluterlab
Dark Spectrum Present: Yes
Reference Spectrum Present: Yes
Number of Sampled Component Spectra: 1
Spectrometers: USB2E3373
Integration Time (usec): 3000 (USB2E3373)
Spectra Averaged: 3 (USB2E3373)
Boxcar Smoothing: 0 (USB2E3373)
Correct for Electrical Dark: No (USB2E3373)
Strobe/Lamp Enabled: No (USB2E3373)
Correct for Detector Non-linearity: No (USB2E3373)
Correct for Stray Light: No (USB2E3373)
Number of Pixels in Processed Spectrum: 2048
>>>>>Begin Processed Spectral Data<<<<<
178.53	0.000
178.91	-1175.000
179.29	-1375.000
179.67	-188.889
180.04	-1325.000
180.42	2550.000
180.80	920.000
181.18	-1500.000
181.56	642.857
181.94	0.000
182.31	-700.000
182.69	1733.333
183.07	-500.000
183.45	-666.667
183.83	554.545
184.20	-380.000
184.58	2450.000
184.96	5600.000
185.34	-940.000
185.72	-625.000
186.09	-2100.000
186.47	2700.000
186.85	2550.000
187.23	5000.000
187.61	-1666.667
187.98	1500.000
188.36	563.636
188.74	500.000
189.12	-840.000
189.49	550.000
189.87	-4500.000
190.25	-1500.000
190.63	442.857
191.00	500.000
191.38	1033.333
191.76	-1175.000
192.14	1175.000
192.51	762.500
192.89	866.667
193.27	612.500
193.65	-1050.000
194.02	650.000
194.40	920.000
194.78	560.000
195.15	458.333
195.53	610.000
195.91	-2000.000
196.29	293.750
196.66	357.895
197.04	-400.000
197.42	0.000
197.79	600.000
198.17	-3400.000
198.55	571.429
198.92	662.500
199.30	1040.000
199.68	0.000
200.05	316.667
200.43	728.571
200.81	4200.000
201.18	1400.000
201.56	-1700.000
201.94	522.222
202.31	644.444
202.69	350.000
203.07	520.000
203.44	0.000
203.82	1375.000
204.19	842.857
204.57	414.286
204.95	587.500
205.32	1866.667
205.70	472.727
206.08	364.286
206.45	2900.000
206.83	356.250
207.20	966.667
207.58	580.000
207.96	350.000
208.33	650.000
208.71	-733.333
209.08	828.571
209.46	600.000
209.84	481.818
210.21	-1733.333
210.59	1400.000
210.96	-462.500
211.34	2600.000
211.71	580.000
212.09	866.667
212.46	0.000
212.84	1766.667
213.22	1200.000
213.59	-4900.000
213.97	850.000
214.34	757.143
214.72	600.000
215.09	1100.000
215.47	-2250.000
215.84	-2500.000
216.22	1800.000
216.59	378.571
216.97	1400.000
217.34	545.455
217.72	-750.000
218.09	0.000
218.47	-5000.000
218.84	655.556
219.22	742.857
219.59	1800.000
219.97	-700.000
220.34	1120.000
220.72	-1400.000
221.09	392.857
221.47	1625.000
221.84	-933.333
222.22	0.000
222.59	1250.000
222.97	-2300.000
223.34	960.000
223.72	330.769
224.09	1060.000
224.46	2100.000
224.84	-5300.000
225.21	-980.000
225.59	-4400.000
225.96	610.000
226.34	275.000
226.71	2600.000
227.08	687.500
227.46	500.000
227.83	-825.000
228.21	-2150.000
228.58	633.333
228.95	-2300.000
229.33	-2100.000
229.70	1866.667
230.08	700.000
230.45	-920.000
230.82	433.333
231.20	966.667
231.57	671.429
231.95	483.333
232.32	259.091
232.69	381.818
233.07	571.429
233.44	353.846
233.81	-1500.000
234.19	315.789
234.56	383.333
234.93	341.667
235.31	436.364
235.68	361.538
236.05	378.571
236.43	169.697
236.80	252.632
237.17	4400.000
237.55	219.048
237.92	175.000
238.29	219.048
238.67	158.065
239.04	186.207
239.41	130.556
239.79	104.348
240.16	119.048
240.53	102.273
240.91	84.314
241.28	100.000
241.65	88.000
242.02	82.609
242.40	77.419
242.77	76.667
243.14	64.516
243.51	57.303
243.89	50.588
244.26	50.000
244.63	58.065
245.00	44.681
245.38	56.436
245.75	49.533
246.12	35.780
246.49	41.606
246.87	56.000
247.24	35.385
247.61	36.429
247.98	36.601
248.36	28.378
248.73	28.662
249.10	29.299
249.47	31.073
249.84	29.947
250.22	28.342
250.59	33.136
250.96	29.293
251.33	28.436
251.70	30.693
252.08	22.381
252.45	25.561
252.82	16.957
253.19	21.277
253.56	20.392
253.94	19.502
254.31	18.750
254.68	21.923
255.05	23.247
255.42	21.138
255.79	19.853
256.16	20.939
256.54	16.254
256.91	20.641
257.28	16.547
257.65	19.802
258.02	17.391
258.39	15.457
258.76	15.385
259.14	17.560
259.51	14.894
259.88	12.422
260.25	16.012
260.62	14.451
260.99	13.043
261.36	15.916
261.73	15.473
262.10	13.372
262.47	16.056
262.85	13.928
263.22	11.681
263.59	16.524
263.96	11.538
264.33	14.360
264.70	15.263
265.07	15.090
265.44	13.889
265.81	13.625
266.18	12.312
266.55	11.463
266.92	12.285
267.29	13.194
267.66	12.615
268.03	13.182
268.40	11.215
268.77	10.501
269.14	10.135
269.51	13.093
269.88	11.888
270.25	13.093
270.62	11.236
270.99	12.258
271.36	12.232
271.73	10.047
272.10	10.870
272.47	12.043
272.84	12.338
273.21	11.321
273.58	10.480
273.95	9.853
274.32	11.570
274.69	10.921
275.06	8.661
275.43	13.404
275.80	8.818
276.17	12.831
276.54	9.563
276.91	9.684
277.28	10.352
277.65	11.799
278.02	9.731
278.39	11.523
278.76	11.636
279.13	12.264
279.50	11.359
279.87	10.757
280.23	10.379
280.60	10.445
280.97	9.427
281.34	9.027
281.71	8.545
282.08	8.445
282.45	9.273
282.82	9.414
283.19	6.595
283.56	8.772
283.92	8.968
284.29	8.642
284.66	10.345
285.03	8.861
285.40	9.859
285.77	8.754
286.14	7.081
286.51	10.000
286.87	11.282
287.24	8.469
287.61	8.828
287.98	9.416
288.35	7.132
288.72	8.723
289.08	10.642
289.45	7.743
289.82	8.455
290.19	7.535
290.56	8.882
290.93	8.006
291.29	7.515
291.66	9.735
292.03	10.174
292.40	10.720
292.77	7.101
293.13	8.657
293.50	9.621
293.87	7.111
294.24	9.481
294.60	6.987
294.97	7.849
295.34	9.450
295.71	7.102
296.08	6.838
296.44	5.502
296.81	4.888
297.18	7.588
297.55	4.881
297.91	6.596
298.28	7.497
298.65	8.094
299.02	7.642
299.38	7.171
299.75	5.930
300.12	6.513
300.48	7.625
300.85	7.152
301.22	5.478
301.59	4.924
301.95	6.549
302.32	6.547
302.69	5.974
303.05	5.576
303.42	5.185
303.79	5.663
304.15	6.061
304.52	5.214
304.89	5.110
305.25	7.309
305.62	7.361
305.99	6.494
306.35	6.600
306.72	6.614
307.09	6.548
307.45	7.432
307.82	5.246
308.19	6.071
308.55	6.472
308.92	5.693
309.29	4.857
309.65	4.984
310.02	6.448
310.38	6.237
310.75	5.913
311.12	6.551
311.48	5.225
311.85	5.451
312.22	6.243
312.58	4.886
312.95	5.702
313.31	5.728
313.68	5.613
314.05	7.396
314.41	7.035
314.78	5.841
315.14	6.157
315.51	6.694
315.87	6.337
316.24	6.256
316.61	4.581
316.97	4.795
317.34	4.795
317.70	6.023
318.07	5.679
318.43	6.556
318.80	6.560
319.16	6.026
319.53	6.473
319.89	6.857
320.26	6.000
320.62	6.548
320.99	5.960
321.35	6.263
321.72	7.598
322.08	6.417
322.45	6.866
322.81	6.589
323.18	7.322
323.54	7.236
323.91	7.264
324.27	6.023
324.64	5.871
325.00	5.771
325.37	6.278
325.73	7.361
326.10	5.472
326.46	5.914
326.83	7.506
327.19	6.746
327.56	6.272
327.92	5.862
328.29	7.187
328.65	6.262
329.01	6.769
329.38	5.088
329.74	7.295
330.11	6.692
330.47	6.795
330.84	7.721
331.20	5.829
331.56	6.514
331.93	6.667
332.29	6.477
332.66	7.080
333.02	6.124
333.38	7.407
333.75	7.576
334.11	6.584
334.48	6.211
334.84	6.618
335.20	6.909
335.57	5.621
335.93	5.893
336.29	5.952
336.66	6.132
337.02	6.154
337.38	7.407
337.75	6.239
338.11	6.714
338.47	6.446
338.84	6.416
339.20	5.780
339.56	7.026
339.93	6.455
340.29	5.797
340.65	6.061
341.02	6.195
341.38	6.940
341.74	6.579
342.11	7.074
342.47	5.903
342.83	6.764
343.20	5.541
343.56	5.729
343.92	5.263
344.28	6.548
344.65	7.223
345.01	7.155
345.37	5.403
345.73	6.261
346.10	5.627
346.46	6.017
346.82	6.013
347.19	5.180
347.55	6.322
347.91	6.311
348.27	5.588
348.63	6.522
349.00	5.178
349.36	6.322
349.72	5.533
350.08	4.943
350.45	5.126
350.81	6.418
351.17	5.754
351.53	6.143
351.89	5.116
352.26	6.314
352.62	6.255
352.98	6.726
353.34	5.916
353.70	5.401
354.07	5.484
354.43	5.952
354.79	6.677
355.15	4.709
355.51	7.194
355.87	5.796
356.24	5.700
356.60	5.934
356.96	5.873
357.32	4.661
357.68	7.165
358.04	6.097
358.40	6.017
358.77	6.338
359.13	4.815
359.49	5.569
359.85	4.127
360.21	5.423
360.57	5.837
360.93	4.846
361.29	6.274
361.66	4.412
362.02	6.045
362.38	4.943
362.74	5.134
363.10	4.145
363.46	5.062
363.82	5.745
364.18	5.874
364.54	5.349
364.90	6.091
365.26	5.074
365.62	5.259
365.98	4.164
366.35	4.799
366.71	4.989
367.07	4.588
367.43	5.298
367.79	5.496
368.15	5.172
368.51	4.288
368.87	4.782
369.23	5.121
369.59	5.141
369.95	5.000
370.31	6.125
370.67	5.145
371.03	5.768
371.39	5.175
371.75	5.294
372.11	5.050
372.47	5.645
372.83	5.187
373.19	5.130
373.55	5.026
373.91	5.081
374.27	5.292
374.63	4.582
374.99	5.014
375.35	3.908
375.71	4.866
376.07	4.801
376.42	4.539
376.78	4.639
377.14	4.274
377.50	5.232
377.86	4.987
378.22	5.247
378.58	4.511
378.94	4.777
379.30	4.071
379.66	4.886
380.02	4.545
380.38	4.068
380.74	4.442
381.09	4.707
381.45	5.224
381.81	4.975
382.17	5.287
382.53	3.585
382.89	3.765
383.25	4.003
383.61	4.213
383.97	4.690
384.32	4.616
384.68	3.594
385.04	4.733
385.40	4.520
385.76	4.423
386.12	4.210
386.48	4.657
386.83	4.362
387.19	4.824
387.55	4.638
387.91	4.353
388.27	4.108
388.62	4.364
388.98	3.808
389.34	4.631
389.70	4.047
390.06	5.196
390.42	4.604
390.77	4.453
391.13	4.914
391.49	4.695
391.85	3.947
392.20	3.155
392.56	4.293
392.92	4.591
393.28	3.254
393.64	4.376
393.99	5.131
394.35	3.970
394.71	4.517
395.07	4.237
395.42	4.326
395.78	4.707
396.14	4.469
396.50	4.699
396.85	4.005
397.21	4.316
397.57	5.580
397.92	3.786
398.28	3.083
398.64	4.540
399.00	4.589
399.35	4.061
399.71	4.572
400.07	4.258
400.42	4.663
400.78	5.066
401.14	3.720
401.49	4.955
401.85	4.174
402.21	4.192
402.57	4.318
402.92	4.540
403.28	4.560
403.63	4.208
403.99	3.567
404.35	4.303
404.70	3.357
405.06	4.426
405.42	4.492
405.77	4.229
406.13	4.628
406.49	4.613
406.84	4.962
407.20	4.433
407.55	4.212
407.91	4.333
408.27	3.893
408.62	5.057
408.98	3.799
409.34	4.797
409.69	3.742
410.05	4.647
410.40	4.587
410.76	4.480
411.11	4.463
411.47	4.217
411.83	4.826
412.18	4.391
412.54	4.608
412.89	5.060
413.25	4.841
413.60	3.830
413.96	4.614
414.31	4.313
414.67	5.006
415.03	5.099
415.38	5.412
415.74	4.502
416.09	4.507
416.45	4.351
416.80	4.296
417.16	5.228
417.51	4.446
417.87	4.560
418.22	5.426
418.58	5.036
418.93	4.791
419.29	5.283
419.64	5.416
420.00	4.756
420.35	5.217
420.71	5.260
421.06	4.415
421.42	4.737
421.77	4.933
422.12	3.987
422.48	3.832
422.83	4.601
423.19	4.696
423.54	4.469
423.90	4.522
424.25	5.416
424.61	3.988
424.96	3.673
425.31	5.260
425.67	4.831
426.02	4.057
426.38	5.067
426.73	4.857
427.09	4.316
427.44	4.428
427.79	4.428
428.15	4.762
428.50	4.564
428.85	5.662
429.21	3.920
429.56	3.681
429.92	3.775
430.27	4.369
430.62	4.199
430.98	4.100
431.33	4.794
431.68	3.979
432.04	4.899
432.39	4.569
432.74	4.309
433.10	4.244
433.45	4.315
433.80	4.047
434.16	4.701
434.51	4.632
434.86	5.017
435.22	4.169
435.57	4.985
435.92	4.330
436.28	4.330
436.63	5.243
436.98	4.408
437.34	4.949
437.69	5.076
438.04	4.666
438.39	5.015
438.75	5.055
439.10	4.246
439.45	4.782
439.81	4.411
440.16	4.969
440.51	4.862
440.86	4.806
441.22	4.394
441.57	4.087
441.92	4.913
442.27	4.144
442.63	4.476
442.98	4.563
443.33	4.674
443.68	5.008
444.03	4.685
444.39	3.700
444.74	4.816
445.09	4.528
445.44	4.374
445.79	4.651
446.15	5.082
446.50	4.847
446.85	4.728
447.20	4.488
447.55	3.741
447.91	4.909
448.26	4.786
448.61	4.014
448.96	5.260
449.31	4.781
449.66	4.446
450.02	4.345
450.37	4.365
450.72	4.569
451.07	4.997
451.42	4.924
451.77	5.344
452.12	4.619
452.47	5.846
452.83	4.196
453.18	4.951
453.53	4.947
453.88	4.312
454.23	5.380
454.58	4.906
454.93	5.785
455.28	5.050
455.63	4.854
455.98	5.476
456.34	5.214
456.69	5.197
457.04	5.201
457.39	5.143
457.74	4.817
458.09	4.945
458.44	4.675
458.79	4.013
459.14	4.515
459.49	5.079
459.84	4.931
460.19	4.125
460.54	4.861
460.89	4.717
461.24	5.282
461.59	5.346
461.94	4.686
462.29	4.807
462.64	4.722
462.99	5.140
463.34	5.533
463.69	4.878
464.04	5.275
464.39	5.043
464.74	5.051
465.09	4.885
465.44	4.654
465.79	4.642
466.14	4.488
466.49	5.451
466.84	5.020
467.19	5.311
467.54	5.688
467.89	4.442
468.24	5.119
468.59	5.495
468.94	4.765
469.29	4.820
469.64	5.890
469.99	4.871
470.34	4.954
470.68	5.388
471.03	4.626
471.38	5.420
471.73	5.263
472.08	5.987
472.43	5.465
472.78	5.398
473.13	4.621
473.48	6.180
473.83	5.366
474.17	4.107
474.52	5.397
474.87	5.079
475.22	5.281
475.57	4.352
475.92	4.249
476.27	5.186
476.61	4.854
476.96	3.793
477.31	4.500
477.66	5.361
478.01	4.757
478.36	4.336
478.70	4.621
479.05	4.473
479.40	4.401
479.75	4.779
480.10	4.423
480.45	4.760
480.79	4.396
481.14	4.403
481.49	4.177
481.84	4.344
482.19	4.816
482.53	4.358
482.88	4.141
483.23	4.346
483.58	4.641
483.92	4.592
484.27	3.747
484.62	4.224
484.97	4.218
485.31	4.110
485.66	3.245
486.01	2.763
486.36	2.707
486.70	2.709
487.05	3.000
487.40	2.758
487.75	3.258
488.09	3.488
488.44	3.436
488.79	3.689
489.13	3.972
489.48	4.119
489.83	4.057
490.17	4.472
490.52	4.296
490.87	3.754
491.22	3.774
491.56	3.964
491.91	4.793
492.26	4.180
492.60	4.562
492.95	4.116
493.30	4.860
493.64	4.060
493.99	3.946
494.34	4.487
494.68	4.075
495.03	4.981
495.37	4.653
495.72	4.288
496.07	4.455
496.41	3.982
496.76	4.222
497.11	4.412
497.45	4.797
497.80	4.319
498.14	3.913
498.49	3.854
498.84	4.650
499.18	4.333
499.53	4.036
499.87	4.194
500.22	4.381
500.56	5.194
500.91	4.087
501.26	4.599
501.60	4.841
501.95	4.125
502.29	4.873
502.64	4.050
502.98	4.254
503.33	4.250
503.67	4.548
504.02	3.835
504.36	4.352
504.71	4.055
505.06	4.482
505.40	4.132
505.75	4.388
506.09	4.179
506.44	3.848
506.78	4.433
507.13	4.392
507.47	5.101
507.82	4.559
508.16	4.610
508.51	5.124
508.85	4.469
509.19	4.337
509.54	4.541
509.88	4.431
510.23	4.524
510.57	4.644
510.92	4.609
511.26	4.573
511.61	4.927
511.95	4.854
512.30	4.401
512.64	5.105
512.98	4.930
513.33	4.925
513.67	4.482
514.02	4.437
514.36	4.697
514.70	5.257
515.05	4.462
515.39	4.823
515.74	4.786
516.08	4.975
516.42	5.272
516.77	6.020
517.11	4.828
517.46	5.079
517.80	5.226
518.14	4.053
518.49	5.018
518.83	5.057
519.17	4.965
519.52	4.924
519.86	4.849
520.20	5.318
520.55	5.685
520.89	5.353
521.23	5.368
521.58	5.522
521.92	5.389
522.26	4.454
522.61	4.922
522.95	4.113
523.29	5.173
523.64	5.305
523.98	4.806
524.32	5.127
524.66	5.652
525.01	4.902
525.35	4.771
525.69	4.680
526.04	4.922
526.38	5.674
526.72	5.031
527.06	5.022
527.41	5.012
527.75	5.145
528.09	4.881
528.43	4.971
528.78	5.839
529.12	5.273
529.46	5.021
529.80	5.507
530.15	5.981
530.49	5.169
530.83	5.633
531.17	6.266
531.51	5.707
531.86	4.581
532.20	6.389
532.54	6.278
532.88	5.841
533.22	5.559
533.57	6.049
533.91	5.117
534.25	5.589
534.59	5.247
534.93	4.819
535.27	5.492
535.62	5.372
535.96	5.461
536.30	5.149
536.64	6.117
536.98	5.441
537.32	5.596
537.66	5.400
538.01	6.188
538.35	5.882
538.69	6.318
539.03	5.133
539.37	4.856
539.71	4.537
540.05	5.556
540.39	5.449
540.73	5.239
541.07	5.646
541.42	5.675
541.76	6.065
542.10	5.886
542.44	5.099
542.78	6.324
543.12	5.438
543.46	5.705
543.80	5.595
544.14	5.520
544.48	5.524
544.82	5.324
545.16	5.856
545.50	5.206
545.84	6.586
546.18	5.791
546.52	6.332
546.86	5.704
547.20	6.069
547.54	5.945
547.88	6.569
548.22	5.044
548.56	6.730
548.90	5.314
549.24	4.646
549.58	6.276
549.92	5.769
550.26	6.179
550.60	6.224
550.94	5.704
551.28	4.243
551.62	6.470
551.96	6.316
552.30	6.416
552.64	5.950
552.98	6.034
553.32	6.541
553.66	5.999
554.00	6.383
554.34	6.418
554.68	6.080
555.02	5.712
555.36	5.776
555.69	5.616
556.03	6.460
556.37	5.798
556.71	5.525
557.05	5.602
557.39	6.508
557.73	5.857
558.07	6.454
558.41	5.282
558.75	5.878
559.08	6.562
559.42	5.896
559.76	6.618
560.10	5.996
560.44	5.730
560.78	5.788
561.12	5.541
561.45	6.193
561.79	5.735
562.13	6.372
562.47	6.011
562.81	5.160
563.15	6.154
563.48	5.902
563.82	5.349
564.16	5.821
564.50	5.078
564.84	5.247
565.17	5.405
565.51	5.623
565.85	5.520
566.19	4.884
566.52	5.320
566.86	5.244
567.20	5.660
567.54	5.137
567.88	4.726
568.21	5.926
568.55	5.056
568.89	4.621
569.23	4.412
569.56	4.575
569.90	4.755
570.24	4.198
570.57	3.876
570.91	3.685
571.25	3.706
571.59	4.035
571.92	3.859
572.26	3.582
572.60	3.634
572.93	3.898
573.27	3.786
573.61	4.048
573.95	3.747
574.28	3.442
574.62	3.571
574.96	3.536
575.29	3.516
575.63	3.430
575.97	3.463
576.30	3.611
576.64	3.715
576.98	3.257
577.31	3.073
577.65	3.409
577.98	3.357
578.32	2.859
578.66	3.375
578.99	3.401
579.33	3.026
579.67	3.357
580.00	3.309
580.34	3.275
580.67	3.356
581.01	3.665
581.35	3.293
581.68	3.106
582.02	2.991
582.35	3.056
582.69	3.525
583.02	3.160
583.36	3.389
583.70	3.646
584.03	3.501
584.37	3.636
584.70	3.109
585.04	3.669
585.37	3.448
585.71	3.501
586.04	3.600
586.38	3.631
586.72	3.977
587.05	3.178
587.39	3.430
587.72	3.685
588.06	3.175
588.39	3.676
588.73	3.637
589.06	3.864
589.40	3.569
589.73	3.344
590.07	4.021
590.40	3.763
590.73	3.786
591.07	3.989
591.40	4.302
591.74	4.805
592.07	4.494
592.41	4.506
592.74	4.082
593.08	3.964
593.41	3.986
593.75	3.654
594.08	4.056
594.41	4.206
594.75	3.845
595.08	3.722
595.42	4.063
595.75	4.202
596.09	4.281
596.42	4.833
596.75	4.559
597.09	4.978
597.42	4.216
597.75	4.269
598.09	4.478
598.42	4.338
598.76	3.972
599.09	3.801
599.42	3.712
599.76	4.209
600.09	4.262
600.42	4.054
600.76	3.679
601.09	3.971
601.42	3.919
601.76	4.250
602.09	4.427
602.42	4.538
602.76	4.555
603.09	4.091
603.42	4.295
603.76	4.230
604.09	3.490
604.42	3.914
604.76	4.724
605.09	4.762
605.42	4.617
605.75	4.263
606.09	3.701
606.42	3.637
606.75	4.521
607.09	4.646
607.42	4.108
607.75	3.755
608.08	4.255
608.42	5.110
608.75	4.554
609.08	4.209
609.41	4.569
609.75	4.812
610.08	5.137
610.41	4.376
610.74	3.737
611.07	4.644
611.41	4.760
611.74	5.631
612.07	5.435
612.40	5.194
612.73	4.474
613.07	4.741
613.40	4.897
613.73	3.776
614.06	4.731
614.39	4.719
614.72	5.421
615.06	4.832
615.39	5.096
615.72	5.266
616.05	4.572
616.38	4.892
616.71	5.285
617.05	5.124
617.38	4.570
617.71	5.225
618.04	5.168
618.37	4.790
618.70	5.476
619.03	5.592
619.36	6.517
619.69	5.563
620.03	5.907
620.36	6.083
620.69	6.575
621.02	6.711
621.35	5.560
621.68	5.919
622.01	5.960
622.34	6.203
622.67	5.475
623.00	5.282
623.33	4.932
623.66	5.933
623.99	5.523
624.32	6.491
624.65	5.862
624.99	4.816
625.32	5.069
625.65	6.236
625.98	5.919
626.31	6.687
626.64	7.102
626.97	4.904
627.30	5.985
627.63	7.547
627.96	6.140
628.29	6.737
628.62	7.045
628.95	8.302
629.28	6.752
629.61	6.783
629.94	6.381
630.26	5.529
630.59	6.673
630.92	6.226
631.25	6.713
631.58	7.307
631.91	7.099
632.24	7.068
632.57	6.925
632.90	7.018
633.23	8.277
633.56	8.249
633.89	8.267
634.22	8.286
634.55	8.521
634.88	7.545
635.20	10.394
635.53	7.470
635.86	7.673
636.19	7.765
636.52	7.497
636.85	7.560
637.18	6.567
637.51	7.920
637.83	6.412
638.16	8.056
638.49	8.186
638.82	8.470
639.15	9.000
639.48	8.229
639.81	8.847
640.13	9.245
640.46	8.591
640.79	9.511
641.12	6.190
641.45	9.637
641.77	8.984
642.10	9.357
642.43	9.009
642.76	7.740
643.09	9.509
643.41	10.167
643.74	10.340
644.07	10.518
644.40	10.429
644.73	9.764
645.05	10.777
645.38	10.111
645.71	9.340
646.04	9.801
646.36	11.686
646.69	9.866
647.02	11.395
647.35	10.653
647.67	9.735
648.00	10.732
648.33	9.406
648.66	10.606
648.98	11.844
649.31	8.520
649.64	7.773
649.96	9.687
650.29	9.163
650.62	9.871
650.94	11.507
651.27	11.486
651.60	9.151
651.92	10.064
652.25	8.795
652.58	9.190
652.90	9.953
653.23	8.937
653.56	8.976
653.88	11.410
654.21	9.637
654.54	9.241
654.86	8.411
655.19	8.243
655.52	3.347
655.84	2.192
656.17	2.403
656.49	3.174
656.82	3.191
657.15	2.527
657.47	1.926
657.80	1.603
658.13	1.574
658.45	2.698
658.78	2.789
659.10	3.145
659.43	3.472
659.75	3.930
660.08	4.494
660.41	6.797
660.73	8.895
661.06	8.439
661.38	12.182
661.71	13.269
662.03	10.454
662.36	10.139
662.68	13.253
663.01	11.717
663.33	12.314
663.66	9.664
663.98	12.743
664.31	10.294
664.63	10.931
664.96	10.463
665.28	11.885
665.61	11.306
665.93	10.060
666.26	10.953
666.58	11.088
666.91	12.896
667.23	11.461
667.56	10.151
667.88	13.675
668.21	13.646
668.53	13.449
668.86	10.606
669.18	14.499
669.50	13.696
669.83	13.943
670.15	13.778
670.48	12.418
670.80	12.500
671.13	12.739
671.45	13.830
671.77	12.627
672.10	10.166
672.42	10.601
672.75	10.779
673.07	9.683
673.39	9.765
673.72	8.398
674.04	11.373
674.37	10.485
674.69	9.407
675.01	11.088
675.34	12.731
675.66	14.947
675.98	12.627
676.31	11.975
676.63	13.376
676.95	12.369
677.28	12.383
677.60	10.769
677.92	13.080
678.25	12.320
678.57	12.351
678.89	11.623
679.22	10.413
679.54	10.878
679.86	12.110
680.18	10.197
680.51	10.993
680.83	12.456
681.15	13.019
681.48	13.611
681.80	11.992
682.12	10.536
682.44	8.704
682.77	12.424
683.09	14.163
683.41	10.865
683.73	14.349
684.06	13.017
684.38	11.350
684.70	11.822
685.02	10.507
685.34	12.637
685.67	8.916
685.99	9.966
686.31	9.727
686.63	10.424
686.96	9.643
687.28	9.025
687.60	8.152
687.92	11.883
688.24	10.646
688.56	13.454
688.89	12.241
689.21	13.974
689.53	12.109
689.85	11.752
690.17	8.903
690.49	13.588
690.82	11.682
691.14	12.054
691.46	9.916
691.78	11.847
692.10	11.157
692.42	13.373
692.74	8.506
693.06	9.787
693.39	11.704
693.71	11.790
694.03	12.211
694.35	11.255
694.67	11.442
694.99	14.390
695.31	11.520
695.63	12.440
695.95	12.469
696.27	11.421
696.59	14.767
696.91	18.394
697.23	10.798
697.56	13.859
697.88	9.816
698.20	11.250
698.52	12.473
698.84	13.808
699.16	11.751
699.48	12.827
699.80	15.217
700.12	13.247
700.44	17.507
700.76	16.022
701.08	15.517
701.40	16.201
701.72	16.910
702.04	19.034
702.36	15.297
702.68	15.581
703.00	13.573
703.32	15.160
703.64	17.158
703.96	14.485
704.28	12.209
704.60	16.716
704.91	19.288
705.23	17.009
705.55	18.605
705.87	18.937
706.19	15.548
706.51	18.069
706.83	16.970
707.15	16.246
707.47	12.626
707.79	12.531
708.11	15.297
708.43	12.857
708.74	13.010
709.06	17.403
709.38	17.585
709.70	15.698
710.02	19.288
710.34	16.061
710.66	17.313
710.98	17.330
711.29	16.279
711.61	16.814
711.93	14.423
712.25	20.579
712.57	14.706
712.89	20.069
713.20	18.237
713.52	17.105
713.84	16.772
714.16	17.988
714.48	16.092
714.80	19.757
715.11	15.850
715.43	16.024
715.75	16.812
716.07	15.335
716.39	16.301
716.70	20.266
717.02	19.424
717.34	21.201
717.66	22.761
717.97	21.912
718.29	21.111
718.61	16.058
718.93	20.221
719.24	18.339
719.56	16.271
719.88	20.339
720.20	20.608
720.51	22.997
720.83	24.164
721.15	16.045
721.46	17.730
721.78	18.996
722.10	20.377
722.42	19.549
722.73	19.101
723.05	18.852
723.37	16.194
723.68	20.463
724.00	21.138
724.32	19.355
724.63	21.951
724.95	20.921
725.27	27.935
725.58	18.750
725.90	23.358
726.22	15.472
726.53	18.056
726.85	20.819
727.16	18.149
727.48	23.404
727.80	20.455
728.11	22.464
728.43	16.923
728.74	18.280
729.06	20.438
729.38	21.324
729.69	19.929
730.01	20.137
730.32	17.361
730.64	20.067
730.96	14.851
731.27	19.868
731.59	18.960
731.90	16.035
732.22	19.565
732.53	16.099
732.85	16.346
733.16	17.363
733.48	15.947
733.80	16.558
734.11	18.790
734.43	15.976
734.74	14.857
735.06	12.034
735.37	17.052
735.69	15.924
736.00	16.340
736.32	20.249
736.63	17.252
736.95	17.572
737.26	11.905
737.58	17.419
737.89	18.060
738.21	18.430
738.52	19.643
738.83	20.755
739.15	19.231
739.46	20.073
739.78	19.792
740.09	17.846
740.41	22.258
740.72	14.634
741.04	22.222
741.35	19.583
741.66	24.444
741.98	18.396
742.29	26.316
742.61	27.586
742.92	23.982
743.23	23.077
743.55	25.200
743.86	20.614
744.18	23.009
744.49	26.316
744.80	28.169
745.12	26.364
745.43	21.586
745.74	26.577
746.06	24.771
746.37	24.664
746.68	23.529
747.00	26.852
747.31	26.667
747.62	17.257
747.94	23.789
748.25	22.553
748.56	26.872
748.88	26.238
749.19	26.500
749.50	24.186
749.82	23.577
750.13	15.918
750.44	18.613
750.75	17.895
751.07	22.508
751.38	22.300
751.69	15.884
752.01	15.414
752.32	16.968
752.63	19.504
752.94	21.721
753.26	26.000
753.57	18.293
753.88	25.000
754.19	20.357
754.51	22.917
754.82	17.690
755.13	20.377
755.44	18.797
755.75	18.613
756.07	19.504
756.38	13.869
756.69	20.134
757.00	17.665
757.31	14.540
757.63	16.374
757.94	14.209
758.25	13.725
758.56	14.321
758.87	13.978
759.18	18.182
759.50	16.614
759.81	21.184
760.12	13.750
760.43	15.473
760.74	16.033
761.05	13.842
761.36	14.171
761.67	16.193
761.99	13.975
762.30	20.139
762.61	20.611
762.92	21.094
763.23	22.269
763.54	24.000
763.85	21.875
764.16	23.077
764.47	23.954
764.78	18.728
765.10	12.342
765.41	15.634
765.72	17.365
766.03	16.928
766.34	15.667
766.65	22.553
766.96	22.222
767.27	29.949
767.58	30.729
767.89	31.579
768.20	34.483
768.51	27.411
768.82	23.853
769.13	15.447
769.44	21.457
769.75	24.034
770.06	14.220
770.37	24.887
770.68	26.389
770.99	24.444
771.30	20.082
771.61	25.112
771.92	26.230
772.23	28.571
772.54	27.692
772.85	35.602
773.16	28.191
773.47	31.522
773.78	31.980
774.09	27.381
774.39	33.333
774.70	35.802
775.01	31.159
775.32	39.216
775.63	38.816
775.94	35.252
776.25	37.795
776.56	44.030
776.87	36.066
777.18	38.281
777.48	44.275
777.79	33.333
778.10	39.259
778.41	41.964
778.72	24.088
779.03	34.899
779.34	31.544
779.65	24.324
779.95	27.607
780.26	35.948
780.57	31.034
780.88	50.781
781.19	33.835
781.50	40.541
781.80	27.673
782.11	30.508
782.42	29.114
782.73	34.356
783.04	36.486
783.34	38.028
783.65	44.521
783.96	41.045
784.27	28.671
784.57	30.216
784.88	35.185
785.19	47.619
785.50	44.340
785.81	46.269
786.11	51.639
786.42	41.860
786.73	32.743
787.04	43.396
787.34	43.750
787.65	50.000
787.96	54.054
788.26	42.975
788.57	50.000
788.88	52.893
789.19	40.972
789.49	43.939
789.80	41.221
790.11	48.571
790.41	52.475
790.72	59.036
791.03	70.652
791.33	51.163
791.64	48.454
791.95	52.475
792.25	70.000
792.56	55.844
792.87	66.667
793.17	82.278
793.48	65.517
793.79	62.069
794.09	67.045
794.40	41.176
794.70	46.324
795.01	40.000
795.32	37.410
795.62	44.094
795.93	45.690
796.23	47.788
796.54	51.765
796.85	60.811
797.15	84.507
797.46	84.848
797.76	77.108
798.07	70.886
798.37	61.538
798.68	68.182
798.99	61.972
799.29	72.727
799.60	55.682
799.90	69.863
800.21	76.119
800.51	77.586
800.82	92.982
801.12	75.410
801.43	80.303
801.73	64.865
802.04	88.889
802.34	70.370
802.65	81.250
802.95	96.610
803.26	79.688
803.56	72.857
803.87	84.615
804.17	89.706
804.48	100.000
804.78	87.931
805.09	77.941
805.39	80.769
805.70	83.929
806.00	75.410
806.30	65.152
806.61	67.073
806.91	56.962
807.22	57.895
807.52	65.672
807.83	73.239
808.13	89.062
808.43	75.000
808.74	65.789
809.04	92.754
809.35	88.060
809.65	64.474
809.95	101.613
810.26	79.661
810.56	73.016
810.86	97.727
811.17	83.333
811.47	91.667
811.77	87.037
812.08	85.455
812.38	88.000
812.69	133.333
812.99	115.909
813.29	114.286
813.59	83.333
813.90	116.327
814.20	89.091
814.50	63.077
814.81	83.824
815.11	102.041
815.41	91.803
815.72	123.810
816.02	118.182
816.32	116.667
816.62	117.500
816.93	126.829
817.23	114.286
817.53	106.818
817.84	142.424
818.14	121.739
818.44	97.778
818.74	126.471
819.04	110.000
819.35	148.571
819.65	155.882
819.95	153.571
820.25	240.000
820.56	141.026
820.86	122.727
821.16	127.907
821.46	125.641
821.76	118.000
822.07	131.429
822.37	130.000
822.67	160.606
822.97	101.961
823.27	142.857
823.57	143.243
823.88	135.000
824.18	170.000
824.48	133.333
824.78	168.000
825.08	145.833
825.38	145.946
825.69	126.829
825.99	179.167
826.29	127.586
826.59	157.895
826.89	152.632
827.19	179.412
827.49	174.194
827.79	147.727
828.09	118.182
828.39	117.021
828.70	93.878
829.00	151.852
829.30	154.839
829.60	130.000
829.90	300.000
830.20	217.857
830.50	152.174
830.80	178.261
831.10	180.000
831.40	160.000
831.70	169.565
832.00	203.846
832.30	192.593
832.60	268.750
832.90	233.333
833.20	392.857
833.50	180.645
833.80	175.862
834.10	168.750
834.40	180.769
834.70	272.222
835.00	285.714
835.30	145.714
835.60	246.154
835.90	186.207
836.20	250.000
836.50	175.862
836.80	196.000
837.10	152.778
837.40	200.000
837.70	323.529
838.00	181.481
838.30	233.333
838.60	252.381
838.90	250.000
839.19	255.000
839.49	328.571
839.79	305.000
840.09	280.000
840.39	266.667
840.69	200.000
840.99	294.444
841.29	430.000
841.59	316.667
841.88	325.000
842.18	141.379
842.48	223.810
842.78	200.000
843.08	230.435
843.38	187.500
843.68	933.333
843.97	196.154
844.27	168.966
844.57	285.714
844.87	375.000
845.17	196.296
845.47	1433.333
845.76	400.000
846.06	347.059
846.36	512.500
846.66	364.286
846.96	275.000
847.25	400.000
847.55	445.455
847.85	239.130
848.15	490.000
848.44	328.571
848.74	272.222
849.04	241.176
849.34	520.000
849.63	236.842
849.93	536.364
850.23	900.000
850.53	414.286
850.82	2000.000
851.12	-4000.000
851.42	4700.000
851.71	270.000
852.01	-1000.000
852.31	262.500
852.61	1666.667
852.90	238.095
853.20	204.000
853.50	335.294
853.79	257.143
854.09	204.167
854.39	343.750
854.68	159.459
854.98	174.194
855.28	176.667
855.57	193.103
855.87	177.778
856.17	294.737
856.46	300.000
856.76	282.353
857.05	175.862
857.35	212.500
857.65	293.333
857.94	252.174
858.24	211.538
858.53	280.000
858.83	204.545
859.13	280.000
859.42	0.000
859.72	566.667
860.01	445.455
860.31	245.455
860.60	242.105
860.90	226.087
861.20	644.444
861.49	433.333
861.79	-4300.000
862.08	562.500
862.38	271.429
862.67	307.692
862.97	335.294
863.26	533.333
863.56	272.222
863.85	441.667
864.15	550.000
864.44	340.000
864.74	633.333
865.03	675.000
865.33	226.316
865.62	463.636
865.92	461.538
866.21	358.333
866.51	0.000
866.80	336.364
867.10	1140.000
867.39	438.462
867.69	481.818
867.98	268.421
868.27	481.818
868.57	315.789
868.86	-5200.000
869.16	312.500
869.45	2200.000
869.75	-5200.000
870.04	391.667
870.33	671.429
870.63	950.000
870.92	2250.000
871.22	685.714
871.51	311.765
871.80	257.143
872.10	414.286
>>>>>End Processed Spectral Data<<<<<
