SpectraSuite Data File
++++++++++++++++++++++++++++++++++++
Date: Wed May 13 19:15:11 PDT 2015
User: schluterlab
Dark Spectrum Present: Yes
Reference Spectrum Present: Yes
Number of Sampled Component Spectra: 1
Spectrometers: USB2E3373
Integration Time (usec): 3000 (USB2E3373)
Spectra Averaged: 3 (USB2E3373)
Boxcar Smoothing: 0 (USB2E3373)
Correct for Electrical Dark: No (USB2E3373)
Strobe/Lamp Enabled: No (USB2E3373)
Correct for Detector Non-linearity: No (USB2E3373)
Correct for Stray Light: No (USB2E3373)
Number of Pixels in Processed Spectrum: 2048
>>>>>Begin Processed Spectral Data<<<<<
178.53	0.000
178.91	-1450.000
179.29	-1075.000
179.67	-261.111
180.04	-1325.000
180.42	2650.000
180.80	1140.000
181.18	-1150.000
181.56	785.714
181.94	0.000
182.31	-742.857
182.69	2066.667
183.07	-650.000
183.45	-544.444
183.83	609.091
184.20	-550.000
184.58	2500.000
184.96	6700.000
185.34	-880.000
185.72	-600.000
186.09	-2600.000
186.47	3050.000
186.85	2300.000
187.23	5600.000
187.61	-1733.333
187.98	1475.000
188.36	609.091
188.74	563.636
189.12	-960.000
189.49	660.000
189.87	-5900.000
190.25	-1100.000
190.63	471.429
191.00	523.077
191.38	883.333
191.76	-1175.000
192.14	1675.000
192.51	725.000
192.89	1050.000
193.27	700.000
193.65	-1300.000
194.02	620.000
194.40	920.000
194.78	550.000
195.15	600.000
195.53	640.000
195.91	-2850.000
196.29	393.750
196.66	347.368
197.04	-370.000
197.42	0.000
197.79	610.000
198.17	-4900.000
198.55	657.143
198.92	725.000
199.30	980.000
199.68	0.000
200.05	372.222
200.43	1000.000
200.81	5200.000
201.18	2100.000
201.56	-1666.667
201.94	566.667
202.31	600.000
202.69	483.333
203.07	520.000
203.44	0.000
203.82	1475.000
204.19	657.143
204.57	521.429
204.95	737.500
205.32	1700.000
205.70	536.364
206.08	414.286
206.45	2700.000
206.83	381.250
207.20	1066.667
207.58	940.000
207.96	361.111
208.33	837.500
208.71	-916.667
209.08	742.857
209.46	644.444
209.84	481.818
210.21	-1666.667
210.59	1500.000
210.96	-687.500
211.34	2900.000
211.71	680.000
212.09	900.000
212.46	0.000
212.84	1566.667
213.22	1300.000
213.59	-4500.000
213.97	1116.667
214.34	885.714
214.72	627.273
215.09	1040.000
215.47	-2250.000
215.84	-2800.000
216.22	1966.667
216.59	471.429
216.97	1500.000
217.34	490.909
217.72	-966.667
218.09	0.000
218.47	-5200.000
218.84	700.000
219.22	900.000
219.59	1966.667
219.97	-714.286
220.34	1140.000
220.72	-2000.000
221.09	457.143
221.47	1675.000
221.84	-1033.333
222.22	0.000
222.59	1700.000
222.97	-3000.000
223.34	1360.000
223.72	492.308
224.09	1300.000
224.46	2700.000
224.84	-5500.000
225.21	-1060.000
225.59	-4900.000
225.96	690.000
226.34	310.000
226.71	3400.000
227.08	750.000
227.46	640.000
227.83	-1250.000
228.21	-2700.000
228.58	755.556
228.95	-2550.000
229.33	-2700.000
229.70	2033.333
230.08	942.857
230.45	-1240.000
230.82	566.667
231.20	1016.667
231.57	900.000
231.95	491.667
232.32	281.818
232.69	409.091
233.07	700.000
233.44	430.769
233.81	-1900.000
234.19	363.158
234.56	441.667
234.93	541.667
235.31	590.909
235.68	376.923
236.05	464.286
236.43	215.152
236.80	294.737
237.17	6300.000
237.55	328.571
237.92	285.714
238.29	304.762
238.67	251.613
239.04	296.552
239.41	222.222
239.79	178.261
240.16	221.429
240.53	193.182
240.91	160.784
241.28	186.000
241.65	190.000
242.02	149.275
242.40	169.355
242.77	161.667
243.14	113.978
243.51	129.213
243.89	128.235
244.26	114.444
244.63	108.602
245.00	117.021
245.38	121.782
245.75	104.673
246.12	106.422
246.49	110.219
246.87	107.200
247.24	105.385
247.61	99.286
247.98	100.000
248.36	99.324
248.73	96.178
249.10	106.369
249.47	83.051
249.84	95.722
250.22	88.235
250.59	98.225
250.96	85.859
251.33	87.678
251.70	90.594
252.08	90.952
252.45	82.063
252.82	86.522
253.19	88.085
253.56	84.706
253.94	81.743
254.31	84.375
254.68	80.769
255.05	82.657
255.42	84.959
255.79	83.824
256.16	86.282
256.54	77.032
256.91	84.698
257.28	79.496
257.65	77.228
258.02	75.776
258.39	77.918
258.76	79.264
259.14	74.405
259.51	75.380
259.88	75.466
260.25	74.320
260.62	77.746
260.99	80.124
261.36	75.075
261.73	76.791
262.10	79.651
262.47	76.056
262.85	75.766
263.22	74.644
263.59	74.359
263.96	72.253
264.33	75.196
264.70	69.737
265.07	73.913
265.44	71.970
265.81	71.290
266.18	74.121
266.55	74.390
266.92	72.236
267.29	72.917
267.66	70.642
268.03	71.136
268.40	69.860
268.77	72.315
269.14	74.550
269.51	71.332
269.88	73.660
270.25	69.300
270.62	70.787
270.99	71.613
271.36	68.670
271.73	75.234
272.10	67.609
272.47	73.118
272.84	70.346
273.21	68.344
273.58	70.524
273.95	66.038
274.32	67.769
274.69	69.379
275.06	68.110
275.43	71.489
275.80	67.735
276.17	69.450
276.54	68.191
276.91	66.206
277.28	67.773
277.65	64.603
278.02	68.323
278.39	69.531
278.76	64.545
279.13	68.113
279.50	63.501
279.87	64.143
280.23	69.461
280.60	68.472
280.97	66.913
281.34	65.133
281.71	67.455
282.08	68.138
282.45	65.455
282.82	64.298
283.19	63.636
283.56	65.439
283.92	64.805
284.29	64.374
284.66	61.343
285.03	62.387
285.40	62.676
285.77	62.458
286.14	63.212
286.51	59.833
286.87	64.274
287.24	64.169
287.61	60.514
287.98	61.039
288.35	59.905
288.72	59.657
289.08	58.842
289.45	61.120
289.82	59.024
290.19	56.044
290.56	58.652
290.93	56.798
291.29	57.515
291.66	56.785
292.03	58.285
292.40	58.003
292.77	54.586
293.13	52.985
293.50	53.790
293.87	54.222
294.24	52.148
294.60	54.731
294.97	54.506
295.34	52.327
295.71	51.989
296.08	50.427
296.44	51.994
296.81	50.462
297.18	51.762
297.55	48.681
297.91	50.528
298.28	50.067
298.65	50.522
299.02	48.880
299.38	50.598
299.75	46.765
300.12	46.871
300.48	47.500
300.85	48.089
301.22	48.408
301.59	49.116
301.95	47.481
302.32	48.652
302.69	46.714
303.05	46.788
303.42	45.062
303.79	45.300
304.15	44.406
304.52	45.539
304.89	46.341
305.25	45.708
305.62	44.847
305.99	46.281
306.35	45.190
306.72	45.067
307.09	46.060
307.45	45.833
307.82	44.643
308.19	46.358
308.55	46.278
308.92	43.609
309.29	43.506
309.65	42.630
310.02	44.397
310.38	45.484
310.75	45.301
311.12	41.556
311.48	44.305
311.85	44.654
312.22	43.184
312.58	43.243
312.95	42.661
313.31	41.942
313.68	42.931
314.05	44.970
314.41	41.809
314.78	43.605
315.14	43.098
315.51	43.357
315.87	41.485
316.24	41.212
316.61	42.690
316.97	42.368
317.34	40.607
317.70	42.925
318.07	41.482
318.43	42.759
318.80	41.518
319.16	41.902
319.53	40.525
319.89	42.762
320.26	44.200
320.62	41.667
320.99	38.687
321.35	41.717
321.72	41.581
322.08	42.053
322.45	43.881
322.81	43.411
323.18	43.931
323.54	42.950
323.91	42.264
324.27	42.256
324.64	39.888
325.00	39.766
325.37	40.855
325.73	41.831
326.10	40.335
326.46	38.889
326.83	41.242
327.19	40.222
327.56	40.679
327.92	40.857
328.29	41.881
328.65	41.805
329.01	41.516
329.38	40.796
329.74	39.705
330.11	41.659
330.47	40.404
330.84	40.257
331.20	39.891
331.56	39.817
331.93	40.370
332.29	39.130
332.66	39.558
333.02	40.494
333.38	39.295
333.75	40.018
334.11	39.591
334.48	41.171
334.84	39.982
335.20	39.364
335.57	38.713
335.93	38.482
336.29	39.377
336.66	40.667
337.02	37.738
337.38	40.833
337.75	38.414
338.11	39.302
338.47	39.871
338.84	39.872
339.20	38.073
339.56	38.960
339.93	37.636
340.29	38.587
340.65	38.324
341.02	38.831
341.38	38.612
341.74	38.947
342.11	38.777
342.47	37.709
342.83	38.014
343.20	39.048
343.56	37.152
343.92	38.158
344.28	37.755
344.65	38.521
345.01	37.458
345.37	37.050
345.73	38.156
346.10	38.363
346.46	37.458
346.82	37.562
347.19	36.675
347.55	37.192
347.91	37.460
348.27	38.620
348.63	37.291
349.00	37.379
349.36	35.468
349.72	36.728
350.08	36.710
350.45	38.405
350.81	36.718
351.17	37.439
351.53	35.872
351.89	36.139
352.26	36.306
352.62	36.407
352.98	37.277
353.34	36.647
353.70	35.843
354.07	36.452
354.43	35.000
354.79	35.398
355.15	35.674
355.51	38.050
355.87	36.082
356.24	36.564
356.60	35.846
356.96	36.444
357.32	35.732
357.68	36.535
358.04	35.946
358.40	36.342
358.77	35.759
359.13	34.412
359.49	34.118
359.85	34.365
360.21	34.769
360.57	35.564
360.93	35.769
361.29	35.450
361.66	34.443
362.02	34.925
362.38	35.817
362.74	34.003
363.10	33.975
363.46	34.189
363.82	35.147
364.18	34.728
364.54	34.695
364.90	34.065
365.26	34.412
365.62	34.624
365.98	34.405
366.35	32.808
366.71	34.129
367.07	34.377
367.43	34.906
367.79	35.689
368.15	35.632
368.51	33.866
368.87	33.405
369.23	33.504
369.59	34.323
369.95	33.382
370.31	33.333
370.67	33.406
371.03	34.082
371.39	33.601
371.75	33.603
372.11	33.001
372.47	34.531
372.83	35.879
373.19	32.587
373.55	34.442
373.91	33.800
374.27	32.234
374.63	33.018
374.99	34.040
375.35	33.217
375.71	33.448
376.07	33.882
376.42	33.081
376.78	33.267
377.14	32.836
377.50	31.921
377.86	32.513
378.22	33.818
378.58	31.078
378.94	32.747
379.30	32.061
379.66	33.566
380.02	32.985
380.38	32.483
380.74	32.473
381.09	32.641
381.45	33.190
381.81	32.555
382.17	33.121
382.53	31.258
382.89	32.531
383.25	32.020
383.61	33.519
383.97	32.458
384.32	31.815
384.68	31.537
385.04	31.899
385.40	33.189
385.76	31.880
386.12	32.060
386.48	32.725
386.83	30.917
387.19	32.158
387.55	31.664
387.91	31.378
388.27	32.373
388.62	31.899
388.98	31.388
389.34	32.290
389.70	32.311
390.06	31.686
390.42	32.685
390.77	32.379
391.13	31.653
391.49	31.853
391.85	31.381
392.20	30.789
392.56	31.566
392.92	31.371
393.28	31.065
393.64	31.655
393.99	31.643
394.35	32.072
394.71	32.120
395.07	30.717
395.42	31.706
395.78	31.043
396.14	32.464
396.50	32.895
396.85	31.850
397.21	31.196
397.57	30.750
397.92	30.950
398.28	30.493
398.64	30.765
399.00	30.386
399.35	30.852
399.71	30.671
400.07	31.283
400.42	31.472
400.78	31.544
401.14	31.037
401.49	30.985
401.85	30.611
402.21	31.078
402.57	31.154
402.92	31.148
403.28	31.293
403.63	31.683
403.99	30.510
404.35	30.788
404.70	31.175
405.06	29.878
405.42	31.067
405.77	30.114
406.13	29.571
406.49	31.106
406.84	30.301
407.20	30.024
407.55	31.908
407.91	31.200
408.27	31.334
408.62	30.464
408.98	30.147
409.34	30.627
409.69	29.935
410.05	30.607
410.40	30.153
410.76	30.944
411.11	30.277
411.47	30.224
411.83	31.338
412.18	29.623
412.54	30.448
412.89	30.241
413.25	29.398
413.60	30.760
413.96	29.569
414.31	29.830
414.67	30.165
415.03	29.669
415.38	31.314
415.74	30.547
416.09	29.980
416.45	30.924
416.80	29.808
417.16	30.697
417.51	31.055
417.87	29.094
418.22	31.230
418.58	29.438
418.93	30.590
419.29	29.917
419.64	30.290
420.00	30.000
420.35	30.493
420.71	30.245
421.06	29.594
421.42	29.942
421.77	29.652
422.12	28.916
422.48	29.358
422.83	30.460
423.19	29.006
423.54	30.122
423.90	30.551
424.25	28.867
424.61	29.464
424.96	29.096
425.31	29.623
425.67	29.551
426.02	29.143
426.38	30.342
426.73	29.549
427.09	29.909
427.44	28.925
427.79	29.845
428.15	30.536
428.50	29.081
428.85	29.023
429.21	28.382
429.56	28.979
429.92	29.441
430.27	29.345
430.62	29.493
430.98	29.113
431.33	29.072
431.68	29.581
432.04	28.647
432.39	29.412
432.74	30.042
433.10	29.825
433.45	29.096
433.80	29.157
434.16	28.686
434.51	28.474
434.86	28.962
435.22	29.405
435.57	29.422
435.92	29.491
436.28	29.834
436.63	29.415
436.98	29.365
437.34	29.457
437.69	30.630
438.04	29.230
438.39	29.731
438.75	30.099
439.10	29.497
439.45	29.693
439.81	30.091
440.16	29.418
440.51	29.174
440.86	29.589
441.22	29.310
441.57	28.662
441.92	28.454
442.27	28.956
442.63	28.120
442.98	29.690
443.33	28.424
443.68	29.066
444.03	28.306
444.39	27.897
444.74	28.896
445.09	28.841
445.44	28.376
445.79	28.402
446.15	29.857
446.50	29.025
446.85	29.239
447.20	28.557
447.55	30.151
447.91	28.792
448.26	29.160
448.61	29.621
448.96	28.682
449.31	29.303
449.66	29.319
450.02	28.301
450.37	28.685
450.72	28.652
451.07	29.129
451.42	28.389
451.77	29.536
452.12	28.811
452.47	29.478
452.83	29.254
453.18	28.973
453.53	29.375
453.88	28.116
454.23	28.691
454.58	29.861
454.93	29.243
455.28	28.055
455.63	28.944
455.98	29.048
456.34	28.769
456.69	29.618
457.04	29.350
457.39	29.047
457.74	28.845
458.09	29.557
458.44	28.791
458.79	28.525
459.14	29.007
459.49	28.313
459.84	28.975
460.19	27.991
460.54	28.241
460.89	28.140
461.24	29.933
461.59	28.937
461.94	29.162
462.29	29.377
462.64	28.909
462.99	28.692
463.34	29.267
463.69	28.956
464.04	28.754
464.39	27.884
464.74	28.996
465.09	27.925
465.44	27.535
465.79	27.685
466.14	28.407
466.49	28.420
466.84	28.663
467.19	27.761
467.54	28.312
467.89	28.271
468.24	28.679
468.59	28.877
468.94	27.917
469.29	28.856
469.64	28.179
469.99	28.011
470.34	27.939
470.68	28.376
471.03	28.163
471.38	29.882
471.73	28.248
472.08	28.092
472.43	28.141
472.78	27.650
473.13	27.664
473.48	28.090
473.83	27.744
474.17	27.442
474.52	27.978
474.87	27.788
475.22	27.800
475.57	26.867
475.92	27.191
476.27	27.903
476.61	27.192
476.96	26.993
477.31	26.740
477.66	27.571
478.01	26.085
478.36	27.393
478.70	26.480
479.05	27.370
479.40	27.277
479.75	26.995
480.10	26.938
480.45	26.464
480.79	26.756
481.14	27.789
481.49	27.195
481.84	26.109
482.19	26.715
482.53	26.606
482.88	27.082
483.23	26.495
483.58	27.389
483.92	27.085
484.27	26.275
484.62	27.155
484.97	26.764
485.31	27.603
485.66	25.762
486.01	25.258
486.36	24.895
486.70	25.512
487.05	26.229
487.40	27.247
487.75	27.519
488.09	28.723
488.44	29.019
488.79	29.946
489.13	28.304
489.48	28.711
489.83	27.665
490.17	26.699
490.52	26.838
490.87	26.730
491.22	26.603
491.56	25.558
491.91	26.245
492.26	25.356
492.60	25.622
492.95	25.491
493.30	26.495
493.64	25.898
493.99	25.905
494.34	25.532
494.68	26.099
495.03	25.846
495.37	25.733
495.72	25.877
496.07	26.172
496.41	25.133
496.76	26.561
497.11	26.385
497.45	26.502
497.80	26.967
498.14	26.329
498.49	26.439
498.84	25.839
499.18	26.095
499.53	25.689
499.87	26.095
500.22	25.765
500.56	25.874
500.91	26.106
501.26	26.221
501.60	26.436
501.95	25.298
502.29	25.867
502.64	26.350
502.98	26.695
503.33	25.274
503.67	26.032
504.02	25.678
504.36	25.550
504.71	26.380
505.06	25.446
505.40	24.793
505.75	26.230
506.09	25.413
506.44	26.048
506.78	25.572
507.13	26.754
507.47	26.313
507.82	26.039
508.16	26.444
508.51	26.281
508.85	25.472
509.19	26.531
509.54	25.561
509.88	25.605
510.23	25.707
510.57	26.471
510.92	25.790
511.26	26.259
511.61	25.985
511.95	25.157
512.30	25.239
512.64	26.276
512.98	26.206
513.33	26.178
513.67	25.080
514.02	24.567
514.36	26.707
514.70	24.737
515.05	25.153
515.39	25.967
515.74	26.126
516.08	24.707
516.42	25.971
516.77	25.753
517.11	25.139
517.46	25.000
517.80	26.249
518.14	25.014
518.49	25.088
518.83	24.318
519.17	25.520
519.52	25.580
519.86	25.328
520.20	25.954
520.55	26.511
520.89	26.095
521.23	25.814
521.58	25.690
521.92	25.107
522.26	24.771
522.61	24.673
522.95	25.537
523.29	24.224
523.64	25.732
523.98	24.646
524.32	25.151
524.66	25.436
525.01	25.735
525.35	25.527
525.69	25.123
526.04	24.798
526.38	24.954
526.72	24.479
527.06	25.047
527.41	23.453
527.75	25.273
528.09	25.819
528.43	25.112
528.78	25.446
529.12	24.485
529.46	24.617
529.80	25.495
530.15	25.421
530.49	24.369
530.83	24.241
531.17	26.958
531.51	25.875
531.86	25.484
532.20	26.271
532.54	26.137
532.88	25.866
533.22	24.422
533.57	24.938
533.91	24.744
534.25	24.970
534.59	26.419
534.93	25.104
535.27	25.407
535.62	25.214
535.96	25.235
536.30	25.874
536.64	26.529
536.98	26.410
537.32	26.070
537.66	25.600
538.01	25.346
538.35	25.339
538.69	26.611
539.03	25.211
539.37	24.856
539.71	24.433
540.05	26.340
540.39	25.449
540.73	25.226
541.07	26.606
541.42	25.506
541.76	26.194
542.10	25.032
542.44	24.768
542.78	25.823
543.12	24.696
543.46	24.918
543.80	26.220
544.14	25.032
544.48	26.540
544.82	24.567
545.16	25.764
545.50	26.157
545.84	25.470
546.18	27.003
546.52	26.015
546.86	27.079
547.20	24.747
547.54	25.518
547.88	26.594
548.22	25.965
548.56	26.226
548.90	25.480
549.24	24.983
549.58	24.829
549.92	25.755
550.26	25.639
550.60	25.104
550.94	25.634
551.28	25.677
551.62	26.240
551.96	25.053
552.30	25.870
552.64	26.166
552.98	25.085
553.32	25.624
553.66	25.835
554.00	26.699
554.34	25.880
554.68	26.180
555.02	25.529
555.36	25.052
555.69	24.222
556.03	25.639
556.37	25.989
556.71	25.171
557.05	24.930
557.39	25.962
557.73	25.335
558.07	24.873
558.41	26.339
558.75	25.790
559.08	25.503
559.42	25.472
559.76	26.029
560.10	24.697
560.44	25.087
560.78	24.019
561.12	24.802
561.45	25.750
561.79	24.456
562.13	26.023
562.47	25.956
562.81	26.360
563.15	25.151
563.48	25.332
563.82	24.397
564.16	25.311
564.50	24.740
564.84	25.601
565.17	25.483
565.51	26.262
565.85	25.635
566.19	25.110
566.52	25.586
566.86	24.834
567.20	26.002
567.54	25.171
567.88	25.638
568.21	26.508
568.55	25.935
568.89	26.021
569.23	24.955
569.56	25.547
569.90	25.623
570.24	25.332
570.57	25.774
570.91	25.210
571.25	25.818
571.59	25.832
571.92	25.144
572.26	26.112
572.60	25.766
572.93	26.297
573.27	27.122
573.61	26.186
573.95	26.331
574.28	26.181
574.62	25.777
574.96	25.902
575.29	26.382
575.63	26.626
575.97	26.660
576.30	26.367
576.64	26.611
576.98	26.349
577.31	26.086
577.65	26.406
577.98	26.216
578.32	25.993
578.66	26.415
578.99	27.163
579.33	26.555
579.67	26.928
580.00	26.972
580.34	26.910
580.67	27.180
581.01	27.457
581.35	26.754
581.68	25.962
582.02	25.573
582.35	26.347
582.69	26.758
583.02	26.763
583.36	28.245
583.70	28.172
584.03	28.213
584.37	27.879
584.70	27.299
585.04	27.128
585.37	26.887
585.71	26.692
586.04	26.794
586.38	26.855
586.72	27.727
587.05	27.248
587.39	25.963
587.72	26.797
588.06	27.321
588.39	27.407
588.73	27.398
589.06	27.516
589.40	27.946
589.73	27.420
590.07	27.331
590.40	27.475
590.73	27.635
591.07	28.042
591.40	27.625
591.74	27.143
592.07	27.094
592.41	26.995
592.74	26.105
593.08	25.683
593.41	26.669
593.75	25.578
594.08	26.651
594.41	26.829
594.75	26.691
595.08	26.163
595.42	26.375
595.75	27.066
596.09	27.262
596.42	27.859
596.75	27.649
597.09	27.749
597.42	26.391
597.75	26.693
598.09	27.348
598.42	26.203
598.76	25.618
599.09	25.124
599.42	26.128
599.76	26.537
600.09	26.594
600.42	26.297
600.76	26.571
601.09	26.922
601.42	26.560
601.76	26.945
602.09	27.115
602.42	27.189
602.76	26.884
603.09	27.223
603.42	26.904
603.76	26.601
604.09	26.406
604.42	26.824
604.76	27.415
605.09	26.824
605.42	26.422
605.75	26.987
606.09	26.352
606.42	27.013
606.75	26.421
607.09	26.957
607.42	26.401
607.75	26.498
608.08	26.357
608.42	27.521
608.75	27.006
609.08	26.920
609.41	27.416
609.75	27.156
610.08	26.814
610.41	26.071
610.74	26.585
611.07	27.520
611.41	26.840
611.74	26.948
612.07	27.484
612.40	27.440
612.73	26.684
613.07	27.963
613.40	26.804
613.73	25.800
614.06	27.527
614.39	26.901
614.72	26.211
615.06	26.628
615.39	26.699
615.72	25.869
616.05	26.741
616.38	27.071
616.71	27.375
617.05	28.092
617.38	27.300
617.71	27.508
618.04	27.464
618.37	26.493
618.70	27.442
619.03	28.092
619.36	27.020
619.69	27.324
620.03	27.060
620.36	27.607
620.69	27.329
621.02	26.917
621.35	26.625
621.68	26.558
622.01	27.477
622.34	27.383
622.67	27.757
623.00	25.899
623.33	26.019
623.66	28.091
623.99	26.583
624.32	26.605
624.65	27.048
624.99	25.992
625.32	26.720
625.65	27.273
625.98	26.518
626.31	27.527
626.64	27.102
626.97	26.766
627.30	26.018
627.63	27.564
627.96	28.175
628.29	27.297
628.62	28.179
628.95	27.358
629.28	26.277
629.61	26.856
629.94	27.333
630.26	24.881
630.59	26.978
630.92	27.011
631.25	26.357
631.58	25.926
631.91	26.775
632.24	26.160
632.57	26.863
632.90	26.864
633.23	27.517
633.56	25.989
633.89	27.520
634.22	26.447
634.55	27.929
634.88	26.826
635.20	27.360
635.53	27.349
635.86	25.990
636.19	27.294
636.52	26.644
636.85	26.690
637.18	24.770
637.51	28.014
637.83	25.031
638.16	26.343
638.49	25.945
638.82	27.181
639.15	26.250
639.48	26.185
639.81	27.212
640.13	26.042
640.46	27.383
640.79	26.816
641.12	24.897
641.45	26.536
641.77	26.068
642.10	27.193
642.43	26.577
642.76	26.935
643.09	29.294
643.41	27.011
643.74	29.630
644.07	27.287
644.40	29.908
644.73	27.402
645.05	28.526
645.38	25.434
645.71	27.214
646.04	27.243
646.36	28.214
646.69	28.094
647.02	29.252
647.35	27.148
647.67	28.319
648.00	27.642
648.33	26.898
648.66	26.364
648.98	28.186
649.31	26.308
649.64	26.308
649.96	27.720
650.29	28.594
650.62	27.670
650.94	29.660
651.27	30.574
651.60	28.619
651.92	28.594
652.25	25.407
652.58	28.972
652.90	29.068
653.23	27.119
653.56	27.717
653.88	28.685
654.21	27.962
654.54	28.383
654.86	27.103
655.19	27.973
655.52	19.665
655.84	18.736
656.17	25.881
656.49	37.302
656.82	41.215
657.15	33.217
657.47	25.594
657.80	19.841
658.13	21.621
658.45	33.701
658.78	35.647
659.10	37.183
659.43	38.870
659.75	40.375
660.08	42.152
660.41	40.782
660.73	39.517
661.06	34.076
661.38	32.909
661.71	28.269
662.03	29.783
662.36	28.429
662.68	29.116
663.01	29.293
663.33	28.025
663.66	28.782
663.98	29.374
664.31	30.042
664.63	26.518
664.96	28.974
665.28	29.713
665.61	27.485
665.93	28.974
666.26	29.209
666.58	29.707
666.91	30.867
667.23	30.787
667.56	25.918
667.88	29.274
668.21	31.343
668.53	27.115
668.86	29.437
669.18	31.770
669.50	30.000
669.83	29.847
670.15	31.556
670.48	28.322
670.80	29.741
671.13	28.238
671.45	30.426
671.77	30.346
672.10	27.357
672.42	27.208
672.75	28.027
673.07	28.697
673.39	29.837
673.72	30.859
674.04	29.608
674.37	28.350
674.69	29.448
675.01	30.126
675.34	31.211
675.66	30.947
675.98	30.550
676.31	28.992
676.63	30.149
676.95	29.140
677.28	28.505
677.60	30.769
677.92	29.958
678.25	31.622
678.57	27.888
678.89	30.661
679.22	28.291
679.54	28.626
679.86	29.908
680.18	28.980
680.51	27.482
680.83	30.783
681.15	30.755
681.48	30.246
681.80	30.948
682.12	28.736
682.44	28.627
682.77	31.772
683.09	34.120
683.41	31.929
683.73	31.126
684.06	30.992
684.38	31.703
684.70	29.070
685.02	32.645
685.34	29.853
685.67	28.846
685.99	29.038
686.31	30.375
686.63	28.622
686.96	31.071
687.28	29.242
687.60	29.891
687.92	31.810
688.24	32.129
688.56	31.526
688.89	31.120
689.21	33.843
689.53	30.271
689.85	31.929
690.17	28.571
690.49	33.121
690.82	30.607
691.14	30.580
691.46	29.114
691.78	30.120
692.10	31.198
692.42	28.942
692.74	30.705
693.06	31.489
693.39	32.649
693.71	30.131
694.03	31.789
694.35	30.952
694.67	31.121
694.99	34.390
695.31	32.598
695.63	32.057
695.95	33.252
696.27	27.665
696.59	34.456
696.91	31.088
697.23	27.934
697.56	29.424
697.88	28.425
698.20	32.917
698.52	31.398
698.84	30.735
699.16	29.493
699.48	33.729
699.80	31.884
700.12	33.506
700.44	31.300
700.76	35.635
701.08	34.195
701.40	30.168
701.72	34.985
702.04	37.500
702.36	29.178
702.68	31.161
703.00	31.579
703.32	29.787
703.64	32.440
703.96	31.476
704.28	31.977
704.60	32.551
704.91	34.718
705.23	35.777
705.55	36.213
705.87	37.874
706.19	34.982
706.51	34.891
706.83	33.939
707.15	33.613
707.47	33.333
707.79	32.678
708.11	32.420
708.43	34.286
708.74	29.592
709.06	35.065
709.38	35.433
709.70	38.081
710.02	38.576
710.34	32.727
710.66	34.627
710.98	35.227
711.29	34.012
711.61	33.628
711.93	37.821
712.25	36.013
712.57	35.662
712.89	37.716
713.20	37.386
713.52	41.118
713.84	35.127
714.16	34.756
714.48	34.483
714.80	41.337
715.11	33.141
715.43	33.828
715.75	35.362
716.07	34.505
716.39	33.229
716.70	38.870
717.02	36.331
717.34	36.042
717.66	36.940
717.97	40.239
718.29	36.296
718.61	38.321
718.93	37.132
719.24	39.446
719.56	35.254
719.88	36.610
720.20	40.203
720.51	36.585
720.83	39.033
721.15	34.701
721.46	37.234
721.78	39.068
722.10	40.000
722.42	40.226
722.73	42.322
723.05	39.344
723.37	38.057
723.68	38.224
724.00	34.553
724.32	41.129
724.63	35.366
724.95	36.402
725.27	42.510
725.58	42.188
725.90	39.416
726.22	42.264
726.53	35.417
726.85	37.201
727.16	39.146
727.48	40.780
727.80	38.636
728.11	34.783
728.43	38.077
728.74	34.050
729.06	40.876
729.38	42.279
729.69	38.790
730.01	37.543
730.32	35.069
730.64	33.779
730.96	32.343
731.27	41.391
731.59	35.780
731.90	35.569
732.22	37.578
732.53	38.700
732.85	33.654
733.16	36.013
733.48	38.206
733.80	34.091
734.11	40.127
734.43	39.941
734.74	31.714
735.06	34.097
735.37	40.462
735.69	37.898
736.00	38.562
736.32	40.498
736.63	37.700
736.95	35.783
737.26	32.993
737.58	36.452
737.89	39.465
738.21	34.812
738.52	41.786
738.83	41.509
739.15	43.846
739.46	38.321
739.78	36.806
740.09	38.154
740.41	39.032
740.72	38.676
741.04	42.593
741.35	37.500
741.66	47.556
741.98	37.736
742.29	47.368
742.61	43.966
742.92	42.081
743.23	43.590
743.55	41.200
743.86	43.421
744.18	44.248
744.49	43.541
744.80	42.723
745.12	43.636
745.43	43.172
745.74	45.045
746.06	40.826
746.37	47.085
746.68	41.629
747.00	50.000
747.31	45.714
747.62	41.593
747.94	41.850
748.25	40.851
748.56	51.101
748.88	44.059
749.19	47.000
749.50	42.326
749.82	36.179
750.13	38.367
750.44	39.416
750.75	40.351
751.07	40.836
751.38	36.237
751.69	43.321
752.01	38.722
752.32	40.072
752.63	40.426
752.94	37.705
753.26	44.800
753.57	37.805
753.88	43.359
754.19	39.286
754.51	39.583
754.82	36.823
755.13	39.623
755.44	42.481
755.75	37.226
756.07	36.879
756.38	31.752
756.69	37.584
757.00	38.024
757.31	36.202
757.63	35.088
757.94	35.657
758.25	35.049
758.56	34.568
758.87	34.677
759.18	38.485
759.50	36.050
759.81	37.383
760.12	32.188
760.43	38.395
760.74	32.880
761.05	35.876
761.36	35.561
761.67	39.489
761.99	36.335
762.30	40.972
762.61	40.458
762.92	45.703
763.23	41.597
763.54	44.000
763.85	37.109
764.16	43.462
764.47	41.445
764.78	38.163
765.10	30.696
765.41	40.708
765.72	37.126
766.03	38.558
766.34	39.333
766.65	44.681
766.96	44.444
767.27	52.792
767.58	44.271
767.89	48.947
768.20	46.552
768.51	46.701
768.82	44.495
769.13	42.276
769.44	39.271
769.75	42.918
770.06	37.615
770.37	47.964
770.68	46.296
770.99	44.444
771.30	35.246
771.61	47.534
771.92	46.311
772.23	47.479
772.54	51.282
772.85	55.497
773.16	47.340
773.47	54.891
773.78	49.746
774.09	50.595
774.39	54.971
774.70	46.296
775.01	57.246
775.32	58.824
775.63	55.263
775.94	44.604
776.25	62.992
776.56	58.955
776.87	63.115
777.18	51.563
777.48	74.809
777.79	52.273
778.10	61.481
778.41	62.500
778.72	52.555
779.03	56.376
779.34	49.664
779.65	59.459
779.95	48.466
780.26	58.824
780.57	66.207
780.88	67.969
781.19	65.414
781.50	58.108
781.80	57.233
782.11	49.718
782.42	54.430
782.73	49.693
783.04	60.811
783.34	60.563
783.65	60.274
783.96	59.701
784.27	56.643
784.57	59.712
784.88	64.815
785.19	68.254
785.50	66.981
785.81	59.701
786.11	63.115
786.42	65.116
786.73	66.372
787.04	57.547
787.34	65.179
787.65	64.000
787.96	67.568
788.26	60.331
788.57	73.729
788.88	69.421
789.19	65.972
789.49	63.636
789.80	64.885
790.11	72.381
790.41	71.287
790.72	83.133
791.03	84.783
791.33	70.930
791.64	73.196
791.95	75.248
792.25	87.778
792.56	92.208
792.87	87.179
793.17	102.532
793.48	88.506
793.79	81.609
794.09	82.955
794.40	59.664
794.70	63.235
795.01	56.296
795.32	58.273
795.62	64.567
795.93	68.966
796.23	70.796
796.54	78.824
796.85	85.135
797.15	102.817
797.46	72.727
797.76	86.747
798.07	97.468
798.37	93.846
798.68	109.091
798.99	84.507
799.29	81.818
799.60	82.955
799.90	94.521
800.21	108.955
800.51	105.172
800.82	115.789
801.12	113.115
801.43	100.000
801.73	86.486
802.04	103.175
802.34	92.593
802.65	101.563
802.95	108.475
803.26	118.750
803.56	88.571
803.87	110.769
804.17	94.118
804.48	122.222
804.78	91.379
805.09	89.706
805.39	119.231
805.70	100.000
806.00	116.393
806.30	87.879
806.61	91.463
806.91	88.608
807.22	81.579
807.52	94.030
807.83	116.901
808.13	106.250
808.43	105.000
808.74	89.474
809.04	104.348
809.35	111.940
809.65	97.368
809.95	124.194
810.26	111.864
810.56	103.175
810.86	145.455
811.17	142.857
811.47	135.000
811.77	131.481
812.08	130.909
812.38	148.000
812.69	150.000
812.99	184.091
813.29	122.449
813.59	102.381
813.90	132.653
814.20	118.182
814.50	106.154
814.81	111.765
815.11	151.020
815.41	109.836
815.72	166.667
816.02	143.636
816.32	135.714
816.62	130.000
816.93	148.780
817.23	150.000
817.53	152.273
817.84	190.909
818.14	178.261
818.44	140.000
818.74	194.118
819.04	150.000
819.35	177.143
819.65	202.941
819.95	189.286
820.25	235.000
820.56	153.846
820.86	145.455
821.16	151.163
821.46	146.154
821.76	144.000
822.07	180.000
822.37	180.000
822.67	184.848
822.97	139.216
823.27	225.000
823.57	167.568
823.88	190.000
824.18	213.333
824.48	157.143
824.78	232.000
825.08	220.833
825.38	191.892
825.69	151.220
825.99	245.833
826.29	200.000
826.59	168.421
826.89	176.316
827.19	208.824
827.49	216.129
827.79	150.000
828.09	147.727
828.39	140.426
828.70	142.857
829.00	155.556
829.30	212.903
829.60	157.500
829.90	306.667
830.20	200.000
830.50	186.957
830.80	234.783
831.10	196.667
831.40	236.667
831.70	217.391
832.00	269.231
832.30	229.630
832.60	337.500
832.90	213.333
833.20	400.000
833.50	200.000
833.80	210.345
834.10	203.125
834.40	230.769
834.70	294.444
835.00	290.476
835.30	202.857
835.60	338.462
835.90	231.034
836.20	421.429
836.50	213.793
836.80	220.000
837.10	183.333
837.40	247.619
837.70	394.118
838.00	222.222
838.30	319.048
838.60	342.857
838.90	250.000
839.19	305.000
839.49	414.286
839.79	335.000
840.09	270.000
840.39	333.333
840.69	295.652
840.99	322.222
841.29	550.000
841.59	366.667
841.88	381.250
842.18	206.897
842.48	276.190
842.78	200.000
843.08	243.478
843.38	181.250
843.68	983.333
843.97	238.462
844.27	203.448
844.57	352.381
844.87	406.250
845.17	240.741
845.47	1933.333
845.76	577.778
846.06	364.706
846.36	537.500
846.66	378.571
846.96	325.000
847.25	409.091
847.55	490.909
847.85	321.739
848.15	610.000
848.44	435.714
848.74	333.333
849.04	364.706
849.34	580.000
849.63	252.632
849.93	581.818
850.23	1100.000
850.53	435.714
850.82	2600.000
851.12	-4700.000
851.42	5800.000
851.71	350.000
852.01	-1466.667
852.31	300.000
852.61	1766.667
852.90	290.476
853.20	228.000
853.50	347.059
853.79	285.714
854.09	216.667
854.39	362.500
854.68	170.270
854.98	264.516
855.28	230.000
855.57	227.586
855.87	233.333
856.17	305.263
856.46	360.000
856.76	329.412
857.05	217.241
857.35	241.667
857.65	426.667
857.94	278.261
858.24	269.231
858.53	285.000
858.83	290.909
859.13	406.667
859.42	0.000
859.72	644.444
860.01	536.364
860.31	286.364
860.60	310.526
860.90	269.565
861.20	622.222
861.49	558.333
861.79	-4500.000
862.08	725.000
862.38	285.714
862.67	415.385
862.97	382.353
863.26	622.222
863.56	305.556
863.85	483.333
864.15	700.000
864.44	406.667
864.74	1033.333
865.03	712.500
865.33	336.842
865.62	545.455
865.92	453.846
866.21	433.333
866.51	0.000
866.80	409.091
867.10	1360.000
867.39	476.923
867.69	463.636
867.98	331.579
868.27	472.727
868.57	389.474
868.86	-3900.000
869.16	406.250
869.45	2700.000
869.75	-4900.000
870.04	516.667
870.33	842.857
870.63	1275.000
870.92	2900.000
871.22	714.286
871.51	394.118
871.80	238.095
872.10	392.857
>>>>>End Processed Spectral Data<<<<<
