SpectraSuite Data File
++++++++++++++++++++++++++++++++++++
Date: Wed May 13 19:56:57 PDT 2015
User: schluterlab
Dark Spectrum Present: Yes
Reference Spectrum Present: Yes
Number of Sampled Component Spectra: 1
Spectrometers: USB2E3373
Integration Time (usec): 3000 (USB2E3373)
Spectra Averaged: 3 (USB2E3373)
Boxcar Smoothing: 0 (USB2E3373)
Correct for Electrical Dark: No (USB2E3373)
Strobe/Lamp Enabled: No (USB2E3373)
Correct for Detector Non-linearity: No (USB2E3373)
Correct for Stray Light: No (USB2E3373)
Number of Pixels in Processed Spectrum: 2048
>>>>>Begin Processed Spectral Data<<<<<
178.53	0.000
178.91	-1125.000
179.29	-1200.000
179.67	-288.889
180.04	-1000.000
180.42	3000.000
180.80	1120.000
181.18	-1275.000
181.56	657.143
181.94	0.000
182.31	-600.000
182.69	1866.667
183.07	-575.000
183.45	-488.889
183.83	609.091
184.20	-400.000
184.58	2450.000
184.96	5200.000
185.34	-820.000
185.72	-637.500
186.09	-2750.000
186.47	2700.000
186.85	2800.000
187.23	4900.000
187.61	-1933.333
187.98	1325.000
188.36	600.000
188.74	581.818
189.12	-920.000
189.49	600.000
189.87	-6100.000
190.25	-1250.000
190.63	414.286
191.00	500.000
191.38	883.333
191.76	-1375.000
192.14	1300.000
192.51	700.000
192.89	950.000
193.27	712.500
193.65	-1275.000
194.02	570.000
194.40	880.000
194.78	550.000
195.15	558.333
195.53	700.000
195.91	-2400.000
196.29	293.750
196.66	326.316
197.04	-400.000
197.42	0.000
197.79	650.000
198.17	-4800.000
198.55	728.571
198.92	737.500
199.30	1000.000
199.68	0.000
200.05	338.889
200.43	814.286
200.81	5400.000
201.18	1833.333
201.56	-1366.667
201.94	444.444
202.31	655.556
202.69	408.333
203.07	520.000
203.44	0.000
203.82	1225.000
204.19	828.571
204.57	471.429
204.95	687.500
205.32	1900.000
205.70	590.909
206.08	385.714
206.45	2850.000
206.83	362.500
207.20	933.333
207.58	980.000
207.96	333.333
208.33	575.000
208.71	-816.667
209.08	800.000
209.46	611.111
209.84	554.545
210.21	-1733.333
210.59	1425.000
210.96	-575.000
211.34	2500.000
211.71	630.000
212.09	900.000
212.46	0.000
212.84	1833.333
213.22	1450.000
213.59	-5000.000
213.97	933.333
214.34	814.286
214.72	618.182
215.09	1040.000
215.47	-2350.000
215.84	-3150.000
216.22	1766.667
216.59	392.857
216.97	1425.000
217.34	418.182
217.72	-816.667
218.09	0.000
218.47	-4800.000
218.84	644.444
219.22	814.286
219.59	1900.000
219.97	-600.000
220.34	1080.000
220.72	-1800.000
221.09	407.143
221.47	1475.000
221.84	-1050.000
222.22	0.000
222.59	1300.000
222.97	-2500.000
223.34	1260.000
223.72	453.846
224.09	1060.000
224.46	2800.000
224.84	-5600.000
225.21	-1060.000
225.59	-4800.000
225.96	690.000
226.34	315.000
226.71	2850.000
227.08	650.000
227.46	520.000
227.83	-1100.000
228.21	-2000.000
228.58	722.222
228.95	-2600.000
229.33	-2400.000
229.70	1733.333
230.08	757.143
230.45	-980.000
230.82	450.000
231.20	950.000
231.57	657.143
231.95	575.000
232.32	218.182
232.69	436.364
233.07	785.714
233.44	353.846
233.81	-1800.000
234.19	310.526
234.56	525.000
234.93	416.667
235.31	472.727
235.68	438.462
236.05	442.857
236.43	187.879
236.80	336.842
237.17	5300.000
237.55	247.619
237.92	189.286
238.29	309.524
238.67	203.226
239.04	255.172
239.41	169.444
239.79	141.304
240.16	154.762
240.53	156.818
240.91	117.647
241.28	132.000
241.65	124.000
242.02	111.594
242.40	112.903
242.77	133.333
243.14	93.548
243.51	95.506
243.89	92.941
244.26	80.000
244.63	94.624
245.00	89.362
245.38	83.168
245.75	77.570
246.12	77.982
246.49	75.182
246.87	83.200
247.24	78.462
247.61	70.714
247.98	64.706
248.36	67.568
248.73	77.070
249.10	70.701
249.47	63.277
249.84	64.171
250.22	63.102
250.59	59.763
250.96	64.646
251.33	65.403
251.70	64.851
252.08	61.905
252.45	58.296
252.82	60.870
253.19	61.277
253.56	58.039
253.94	58.921
254.31	57.812
254.68	56.154
255.05	52.768
255.42	54.472
255.79	55.882
256.16	54.513
256.54	48.057
256.91	56.584
257.28	51.079
257.65	53.465
258.02	54.037
258.39	51.420
258.76	50.836
259.14	50.000
259.51	46.201
259.88	49.379
260.25	48.943
260.62	46.821
260.99	53.106
261.36	51.051
261.73	50.716
262.10	47.965
262.47	50.423
262.85	49.304
263.22	45.584
263.59	52.422
263.96	45.330
264.33	48.042
264.70	47.895
265.07	49.361
265.44	48.737
265.81	44.282
266.18	46.231
266.55	44.878
266.92	48.157
267.29	46.528
267.66	46.560
268.03	43.409
268.40	45.327
268.77	42.005
269.14	45.495
269.51	43.115
269.88	44.522
270.25	43.341
270.62	44.045
270.99	44.731
271.36	41.845
271.73	45.093
272.10	42.609
272.47	41.505
272.84	42.641
273.21	40.881
273.58	42.795
273.95	38.994
274.32	39.669
274.69	44.968
275.06	42.717
275.43	41.277
275.80	40.481
276.17	42.566
276.54	43.243
276.91	39.328
277.28	40.234
277.65	42.166
278.02	40.787
278.39	39.453
278.76	41.636
279.13	40.377
279.50	42.831
279.87	39.243
280.23	42.315
280.60	41.199
280.97	39.002
281.34	39.823
281.71	41.455
282.08	42.035
282.45	38.909
282.82	41.030
283.19	39.572
283.56	38.772
283.92	38.917
284.29	39.506
284.66	39.746
285.03	37.251
285.40	39.085
285.77	38.384
286.14	38.860
286.51	38.833
286.87	38.974
287.24	38.762
287.61	38.042
287.98	40.260
288.35	37.559
288.72	37.227
289.08	37.402
289.45	37.562
289.82	37.236
290.19	37.363
290.56	36.294
290.93	35.196
291.29	38.650
291.66	35.988
292.03	36.337
292.40	38.326
292.77	35.651
293.13	35.075
293.50	36.006
293.87	36.741
294.24	35.852
294.60	35.808
294.97	35.174
295.34	36.530
295.71	32.670
296.08	32.621
296.44	32.462
296.81	33.686
297.18	34.011
297.55	32.982
297.91	33.773
298.28	34.672
298.65	32.898
299.02	34.519
299.38	34.661
299.75	31.941
300.12	31.545
300.48	32.125
300.85	32.306
301.22	31.847
301.59	31.187
301.95	32.494
302.32	32.734
302.69	32.258
303.05	31.394
303.42	30.617
303.79	32.616
304.15	31.119
304.52	31.518
304.89	32.869
305.25	32.599
305.62	31.370
305.99	32.940
306.35	32.438
306.72	32.960
307.09	33.629
307.45	33.221
307.82	31.920
308.19	32.009
308.55	33.118
308.92	32.653
309.29	32.629
309.65	32.874
310.02	33.615
310.38	33.548
310.75	33.474
311.12	33.572
311.48	35.319
311.85	34.067
312.22	35.276
312.58	34.615
312.95	34.636
313.31	35.728
313.68	37.006
314.05	37.771
314.41	37.990
314.78	36.959
315.14	37.637
315.51	38.208
315.87	39.604
316.24	38.828
316.61	37.524
316.97	38.160
317.34	39.922
317.70	40.631
318.07	41.386
318.43	41.292
318.80	42.081
319.16	42.467
319.53	40.338
319.89	44.000
320.26	45.700
320.62	46.429
320.99	44.343
321.35	45.960
321.72	47.433
322.08	48.766
322.45	48.955
322.81	48.740
323.18	50.674
323.54	50.557
323.91	50.755
324.27	52.008
324.64	53.215
325.00	54.914
325.37	54.777
325.73	57.451
326.10	57.105
326.46	57.885
326.83	59.362
327.19	58.753
327.56	62.021
327.92	61.242
328.29	63.177
328.65	63.352
329.01	63.989
329.38	64.477
329.74	65.928
330.11	67.955
330.47	65.748
330.84	67.004
331.20	66.302
331.56	66.972
331.93	69.167
332.29	66.193
332.66	67.522
333.02	68.921
333.38	69.196
333.75	66.310
334.11	68.327
334.48	70.275
334.84	69.301
335.20	69.364
335.57	69.447
335.93	70.893
336.29	69.963
336.66	70.243
337.02	68.507
337.38	70.185
337.75	70.499
338.11	69.382
338.47	71.087
338.84	70.486
339.20	67.064
339.56	71.350
339.93	70.545
340.29	70.652
340.65	69.875
341.02	70.419
341.38	71.085
341.74	70.351
342.11	69.345
342.47	71.366
342.83	71.062
343.20	70.303
343.56	70.598
343.92	71.491
344.28	70.663
344.65	72.399
345.01	70.370
345.37	71.698
345.73	71.066
346.10	71.782
346.46	70.000
346.82	71.993
347.19	70.175
347.55	71.264
347.91	72.168
348.27	70.994
348.63	72.324
349.00	70.874
349.36	70.608
349.72	72.253
350.08	70.827
350.45	72.091
350.81	70.674
351.17	71.961
351.53	71.417
351.89	70.462
352.26	71.429
352.62	72.735
352.98	72.771
353.34	72.473
353.70	73.077
354.07	72.500
354.43	72.302
354.79	71.521
355.15	71.668
355.51	73.141
355.87	73.959
356.24	73.941
356.60	72.574
356.96	73.773
357.32	74.162
357.68	73.465
358.04	74.663
358.40	72.526
358.77	75.274
359.13	73.323
359.49	75.843
359.85	74.127
360.21	75.518
360.57	74.864
360.93	77.385
361.29	75.661
361.66	74.458
362.02	76.194
362.38	76.730
362.74	77.232
363.10	74.981
363.46	76.889
363.82	77.249
364.18	76.138
364.54	78.826
364.90	76.629
365.26	76.691
365.62	80.278
365.98	76.041
366.35	76.074
366.71	78.742
367.07	78.150
367.43	79.753
367.79	80.300
368.15	79.526
368.51	77.253
368.87	81.085
369.23	80.176
369.59	80.304
369.95	80.441
370.31	78.917
370.67	78.986
371.03	83.596
371.39	81.195
371.75	83.015
372.11	80.512
372.47	82.698
372.83	83.573
373.19	83.092
373.55	83.888
373.91	83.947
374.27	82.131
374.63	84.873
374.99	84.040
375.35	83.322
375.71	83.893
376.07	83.745
376.42	85.626
376.78	84.559
377.14	85.346
377.50	86.225
377.86	85.771
378.22	85.082
378.58	83.960
378.94	87.178
379.30	86.959
379.66	87.500
380.02	87.531
380.38	86.460
380.74	87.875
381.09	86.797
381.45	90.104
381.81	86.732
382.17	89.427
382.53	90.314
382.89	89.383
383.25	89.306
383.61	92.751
383.97	90.494
384.32	90.331
384.68	89.591
385.04	89.613
385.40	90.774
385.76	90.479
386.12	91.451
386.48	92.385
386.83	92.431
387.19	93.692
387.55	93.012
387.91	92.926
388.27	93.194
388.62	91.580
388.98	92.383
389.34	95.244
389.70	93.501
390.06	95.247
390.42	94.228
390.77	93.384
391.13	97.320
391.49	94.036
391.85	94.526
392.20	93.249
392.56	94.129
392.92	94.703
393.28	95.266
393.64	95.743
393.99	94.136
394.35	94.479
394.71	94.479
395.07	95.514
395.42	97.281
395.78	94.720
396.14	94.786
396.50	96.491
396.85	95.868
397.21	94.945
397.57	96.032
397.92	96.935
398.28	94.899
398.64	96.237
399.00	94.964
399.35	96.898
399.71	97.280
400.07	95.860
400.42	97.055
400.78	96.683
401.14	96.646
401.49	97.851
401.85	97.278
402.21	96.287
402.57	97.039
402.92	97.163
403.28	98.376
403.63	97.092
403.99	99.299
404.35	95.515
404.70	97.662
405.06	97.146
405.42	97.692
405.77	96.914
406.13	94.300
406.49	96.629
406.84	95.038
407.20	95.863
407.55	98.405
407.91	97.200
408.27	99.362
408.62	94.822
408.98	96.569
409.34	97.786
409.69	97.484
410.05	98.017
410.40	97.248
410.76	96.714
411.11	95.778
411.47	96.869
411.83	97.190
412.18	96.228
412.54	98.941
412.89	97.108
413.25	96.871
413.60	97.468
413.96	95.325
414.31	97.327
414.67	98.479
415.03	98.874
415.38	99.291
415.74	98.971
416.09	99.869
416.45	99.732
416.80	100.000
417.16	100.268
417.51	99.536
417.87	99.615
418.22	102.397
418.58	99.806
418.93	100.614
419.29	100.764
419.64	101.448
420.00	102.805
420.35	100.290
420.71	103.288
421.06	103.640
421.42	103.626
421.77	102.803
422.12	102.471
422.48	102.860
422.83	106.872
423.19	101.602
423.54	104.875
423.90	104.348
424.25	104.746
424.61	105.655
424.96	107.930
425.31	104.873
425.67	105.730
426.02	105.371
426.38	109.035
426.73	106.846
427.09	108.632
427.44	107.591
427.79	108.568
428.15	108.452
428.50	109.011
428.85	109.654
429.21	109.442
429.56	110.368
429.92	110.619
430.27	108.689
430.62	109.114
430.98	108.978
431.33	108.814
431.68	111.099
432.04	108.307
432.39	112.279
432.74	112.867
433.10	112.168
433.45	112.711
433.80	113.525
434.16	112.767
434.51	112.421
434.86	112.315
435.22	113.174
435.57	114.225
435.92	113.692
436.28	115.421
436.63	112.859
436.98	113.852
437.34	114.073
437.69	114.644
438.04	115.964
438.39	114.090
438.75	115.572
439.10	115.196
439.45	113.754
439.81	115.891
440.16	113.326
440.51	117.165
440.86	116.445
441.22	114.516
441.57	114.862
441.92	116.223
442.27	117.277
442.63	115.429
442.98	116.901
443.33	112.554
443.68	115.230
444.03	115.861
444.39	115.774
444.74	117.695
445.09	116.226
445.44	114.981
445.79	115.487
446.15	114.187
446.50	116.747
446.85	115.159
447.20	116.675
447.55	119.151
447.91	116.988
448.26	117.140
448.61	116.224
448.96	118.771
449.31	119.123
449.66	115.813
450.02	115.655
450.37	116.723
450.72	117.879
451.07	116.332
451.42	115.258
451.77	117.322
452.12	114.550
452.47	116.045
452.83	118.531
453.18	114.792
453.53	118.306
453.88	116.775
454.23	116.856
454.58	116.959
454.93	118.563
455.28	117.893
455.63	118.811
455.98	118.571
456.34	117.839
456.69	120.225
457.04	119.319
457.39	116.365
457.74	117.295
458.09	116.216
458.44	116.648
458.79	113.883
459.14	118.059
459.49	115.470
459.84	116.011
460.19	116.323
460.54	113.889
460.89	116.237
461.24	117.790
461.59	116.502
461.94	117.509
462.29	116.202
462.64	116.401
462.99	115.159
463.34	116.000
463.69	117.699
464.04	116.522
464.39	114.087
464.74	115.924
465.09	115.440
465.44	114.903
465.79	116.107
466.14	113.684
466.49	113.960
466.84	114.127
467.19	114.906
467.54	116.375
467.89	115.006
468.24	113.147
468.59	114.286
468.94	113.989
469.29	115.938
469.64	116.867
469.99	118.403
470.34	117.437
470.68	117.744
471.03	116.190
471.38	118.555
471.73	117.455
472.08	117.237
472.43	117.148
472.78	115.800
473.13	115.854
473.48	115.044
473.83	115.366
474.17	114.997
474.52	115.323
474.87	115.353
475.22	115.554
475.57	113.649
475.92	114.551
476.27	114.318
476.61	114.727
476.96	114.513
477.31	112.193
477.66	113.950
478.01	113.225
478.36	114.754
478.70	114.226
479.05	114.217
479.40	113.204
479.75	115.201
480.10	113.867
480.45	111.661
480.79	111.467
481.14	113.112
481.49	113.574
481.84	112.391
482.19	113.812
482.53	111.881
482.88	112.797
483.23	113.318
483.58	111.692
483.92	111.434
484.27	109.586
484.62	111.897
484.97	111.234
485.31	110.000
485.66	107.227
486.01	105.232
486.36	102.175
486.70	101.373
487.05	103.022
487.40	104.928
487.75	105.559
488.09	107.310
488.44	107.171
488.79	110.199
489.13	110.390
489.48	109.951
489.83	109.495
490.17	111.311
490.52	108.725
490.87	110.357
491.22	108.959
491.56	108.884
491.91	109.725
492.26	109.371
492.60	108.618
492.95	109.355
493.30	108.692
493.64	108.586
493.99	107.428
494.34	109.389
494.68	108.242
495.03	108.694
495.37	107.492
495.72	108.918
496.07	108.770
496.41	105.265
496.76	107.212
497.11	107.429
497.45	107.313
497.80	108.733
498.14	107.971
498.49	107.220
498.84	106.999
499.18	107.190
499.53	107.645
499.87	105.405
500.22	105.605
500.56	108.883
500.91	106.442
501.26	107.018
501.60	108.068
501.95	104.170
502.29	106.607
502.64	106.238
502.98	105.563
503.33	105.347
503.67	104.316
504.02	105.051
504.36	105.147
504.71	106.155
505.06	105.012
505.40	104.375
505.75	102.845
506.09	105.005
506.44	106.068
506.78	103.848
507.13	107.118
507.47	105.152
507.82	104.813
508.16	106.839
508.51	106.799
508.85	103.674
509.19	106.224
509.54	104.133
509.88	104.688
510.23	105.501
510.57	105.315
510.92	105.593
511.26	103.340
511.61	104.305
511.95	102.871
512.30	104.560
512.64	103.923
512.98	105.252
513.33	102.784
513.67	102.988
514.02	104.924
514.36	105.680
514.70	107.028
515.05	105.020
515.39	104.319
515.74	104.448
516.08	104.528
516.42	105.050
516.77	105.017
517.11	103.663
517.46	104.458
517.80	106.562
518.14	103.648
518.49	105.134
518.83	104.034
519.17	102.598
519.52	103.962
519.86	104.450
520.20	104.046
520.55	105.625
520.89	104.562
521.23	106.996
521.58	102.941
521.92	105.205
522.26	101.647
522.61	105.296
522.95	104.727
523.29	104.504
523.64	103.659
523.98	105.977
524.32	102.895
524.66	102.465
525.01	103.248
525.35	103.160
525.69	100.369
526.04	103.053
526.38	101.891
526.72	100.675
527.06	104.143
527.41	99.257
527.75	102.637
528.09	103.982
528.43	103.442
528.78	101.721
529.12	100.242
529.46	101.531
529.80	102.413
530.15	101.620
530.49	98.400
530.83	98.797
531.17	103.264
531.51	101.297
531.86	102.065
532.20	100.587
532.54	100.064
532.88	101.284
533.22	98.563
533.57	97.531
533.91	97.833
534.25	97.934
534.59	98.658
534.93	96.847
535.27	96.801
535.62	97.253
535.96	98.556
536.30	99.301
536.64	98.519
536.98	97.478
537.32	98.157
537.66	99.533
538.01	99.408
538.35	97.027
538.69	98.341
539.03	97.531
539.37	94.696
539.71	95.658
540.05	97.190
540.39	98.671
540.73	93.661
541.07	96.755
541.42	96.608
541.76	96.387
542.10	96.313
542.44	96.755
542.78	97.101
543.12	94.242
543.46	95.344
543.80	95.901
544.14	93.774
544.48	95.619
544.82	94.548
545.16	95.706
545.50	93.830
545.84	94.489
546.18	95.084
546.52	95.526
546.86	93.677
547.20	93.459
547.54	94.055
547.88	92.666
548.22	92.341
548.56	93.459
548.90	91.229
549.24	93.737
549.58	93.793
549.92	93.819
550.26	93.963
550.60	92.600
550.94	93.944
551.28	93.709
551.62	94.105
551.96	92.982
552.30	92.491
552.64	92.495
552.98	92.203
553.32	91.908
553.66	92.843
554.00	91.833
554.34	91.028
554.68	92.489
555.02	91.537
555.36	90.884
555.69	89.513
556.03	91.790
556.37	92.292
556.71	89.768
557.05	92.157
557.39	89.223
557.73	90.685
558.07	92.096
558.41	91.606
558.75	91.256
559.08	91.201
559.42	93.953
559.76	93.088
560.10	91.149
560.44	90.077
560.78	88.822
561.12	89.776
561.45	88.266
561.79	87.871
562.13	89.470
562.47	89.003
562.81	91.702
563.15	86.823
563.48	87.798
563.82	89.563
564.16	87.050
564.50	88.216
564.84	85.967
565.17	86.937
565.51	87.987
565.85	86.548
566.19	85.974
566.52	86.574
566.86	84.810
567.20	86.380
567.54	85.217
567.88	83.976
568.21	84.392
568.55	82.305
568.89	83.901
569.23	81.061
569.56	79.960
569.90	79.774
570.24	80.337
570.57	78.953
570.91	77.214
571.25	77.085
571.59	76.672
571.92	76.815
572.26	75.823
572.60	77.027
572.93	75.712
573.27	76.102
573.61	76.159
573.95	75.840
574.28	75.302
574.62	75.413
574.96	74.217
575.29	74.758
575.63	73.984
575.97	73.679
576.30	73.314
576.64	74.678
576.98	73.870
577.31	73.868
577.65	73.637
577.98	72.678
578.32	72.180
578.66	72.704
578.99	73.066
579.33	72.888
579.67	72.294
580.00	72.764
580.34	72.900
580.67	72.725
581.01	73.038
581.35	72.673
581.68	72.289
582.02	70.981
582.35	71.646
582.69	71.537
583.02	72.044
583.36	72.723
583.70	73.077
584.03	73.119
584.37	72.859
584.70	73.093
585.04	72.016
585.37	71.575
585.71	73.285
586.04	72.167
586.38	73.433
586.72	72.880
587.05	72.833
587.39	72.375
587.72	71.940
588.06	72.866
588.39	72.373
588.73	72.103
589.06	73.761
589.40	73.569
589.73	73.214
590.07	73.238
590.40	72.744
590.73	73.810
591.07	75.051
591.40	73.766
591.74	75.931
592.07	73.909
592.41	73.667
592.74	72.622
593.08	73.018
593.41	72.003
593.75	70.237
594.08	72.679
594.41	72.322
594.75	72.717
595.08	71.868
595.42	72.294
595.75	72.187
596.09	73.338
596.42	72.534
596.75	73.491
597.09	72.727
597.42	71.880
597.75	72.704
598.09	72.435
598.42	72.294
598.76	72.315
599.09	70.886
599.42	69.541
599.76	70.791
600.09	70.638
600.42	70.270
600.76	69.786
601.09	69.763
601.42	72.298
601.76	70.702
602.09	71.265
602.42	72.014
602.76	71.302
603.09	71.676
603.42	71.378
603.76	70.084
604.09	70.648
604.42	72.320
604.76	70.350
605.09	70.992
605.42	69.944
605.75	71.192
606.09	69.825
606.42	71.312
606.75	70.054
607.09	68.983
607.42	71.245
607.75	70.253
608.08	70.083
608.42	70.238
608.75	69.477
609.08	68.779
609.41	70.538
609.75	70.319
610.08	70.924
610.41	70.624
610.74	70.956
611.07	70.751
611.41	71.737
611.74	70.588
612.07	71.532
612.40	72.088
612.73	71.053
613.07	72.091
613.40	70.300
613.73	71.159
614.06	71.613
614.39	69.324
614.72	68.158
615.06	71.324
615.39	69.480
615.72	69.070
616.05	69.750
616.38	70.762
616.71	72.387
617.05	71.496
617.38	70.054
617.71	72.613
618.04	72.596
618.37	71.141
618.70	71.375
619.03	71.974
619.36	72.234
619.69	73.592
620.03	73.489
620.36	72.460
620.69	73.014
621.02	74.189
621.35	73.767
621.68	71.963
622.01	73.452
622.34	73.071
622.67	75.057
623.00	73.514
623.33	70.264
623.66	72.409
623.99	72.459
624.32	72.183
624.65	70.339
624.99	71.601
625.32	71.760
625.65	73.629
625.98	74.097
626.31	73.017
626.64	73.388
626.97	73.815
627.30	72.818
627.63	73.421
627.96	74.769
628.29	74.103
628.62	74.931
628.95	76.321
629.28	73.449
629.61	75.802
629.94	77.810
630.26	75.691
630.59	75.214
630.92	73.851
631.25	73.050
631.58	73.574
631.91	74.645
632.24	74.367
632.57	75.341
632.90	77.193
633.23	78.188
633.56	78.531
633.89	78.369
634.22	76.844
634.55	80.947
634.88	77.964
635.20	77.419
635.53	77.229
635.86	77.228
636.19	75.176
636.52	76.817
636.85	75.830
637.18	74.424
637.51	76.596
637.83	75.216
638.16	74.936
638.49	78.841
638.82	78.761
639.15	75.875
639.48	77.930
639.81	80.831
640.13	79.036
640.46	77.450
640.79	78.203
641.12	77.029
641.45	78.911
641.77	82.032
642.10	78.363
642.43	80.030
642.76	81.115
643.09	80.521
643.41	78.756
643.74	83.333
644.07	80.945
644.40	79.294
644.73	80.157
645.05	81.616
645.38	79.305
645.71	80.032
646.04	82.724
646.36	81.970
646.69	80.769
647.02	80.952
647.35	79.210
647.67	82.301
648.00	79.350
648.33	80.528
648.66	76.364
648.98	77.811
649.31	74.589
649.64	77.280
649.96	78.092
650.29	78.357
650.62	77.184
650.94	77.958
651.27	80.068
651.60	79.700
651.92	79.073
652.25	77.199
652.58	76.168
652.90	77.093
653.23	73.806
653.56	74.646
653.88	75.911
654.21	77.567
654.54	79.208
654.86	75.545
655.19	72.027
655.52	55.170
655.84	51.141
656.17	65.152
656.49	86.746
656.82	87.939
657.15	66.503
657.47	50.119
657.80	38.307
658.13	39.664
658.45	58.625
658.78	59.060
659.10	60.333
659.43	62.083
659.75	64.984
660.08	69.620
660.41	73.464
660.73	75.604
661.06	78.503
661.38	79.636
661.71	80.192
662.03	80.671
662.36	75.547
662.68	78.916
663.01	76.768
663.33	81.104
663.66	80.042
663.98	83.801
664.31	76.261
664.63	75.911
664.96	77.867
665.28	81.148
665.61	75.049
665.93	77.465
666.26	79.716
666.58	81.590
666.91	80.550
667.23	83.820
667.56	77.538
667.88	81.197
668.21	80.171
668.53	75.705
668.86	77.922
669.18	80.810
669.50	80.000
669.83	83.660
670.15	81.556
670.48	79.956
670.80	79.526
671.13	76.645
671.45	77.234
671.77	78.004
672.10	75.601
672.42	73.675
672.75	71.973
673.07	74.824
673.39	72.514
673.72	75.195
674.04	76.275
674.37	73.204
674.69	76.687
675.01	74.059
675.34	77.618
675.66	80.000
675.98	76.375
676.31	79.622
676.63	77.495
676.95	78.407
677.28	81.542
677.60	79.341
677.92	78.481
678.25	74.538
678.57	76.494
678.89	77.956
679.22	73.281
679.54	74.427
679.86	75.229
680.18	72.809
680.51	73.050
680.83	71.886
681.15	73.774
681.48	75.425
681.80	75.629
682.12	73.946
682.44	71.760
682.77	74.745
683.09	75.536
683.41	78.492
683.73	77.925
684.06	76.240
684.38	75.147
684.70	73.643
685.02	73.171
685.34	70.513
685.67	70.629
685.99	68.900
686.31	69.454
686.63	68.375
686.96	68.929
687.28	70.036
687.60	67.754
687.92	71.664
688.24	70.722
688.56	72.691
688.89	74.481
689.21	76.419
689.53	74.322
689.85	77.162
690.17	70.393
690.49	71.550
690.82	78.037
691.14	73.437
691.46	71.308
691.78	70.482
692.10	75.826
692.42	72.655
692.74	68.257
693.06	72.979
693.39	73.511
693.71	74.454
694.03	73.684
694.35	71.861
694.67	72.082
694.99	76.341
695.31	74.755
695.63	74.163
695.95	77.995
696.27	72.335
696.59	74.611
696.91	73.575
697.23	70.892
697.56	72.495
697.88	67.076
698.20	69.583
698.52	71.828
698.84	72.383
699.16	71.889
699.48	71.734
699.80	75.362
700.12	76.623
700.44	77.719
700.76	77.624
701.08	79.310
701.40	76.257
701.72	76.968
702.04	80.682
702.36	72.521
702.68	75.921
703.00	74.792
703.32	73.936
703.64	71.046
703.96	70.752
704.28	74.709
704.60	80.938
704.91	78.042
705.23	76.540
705.55	81.728
705.87	82.392
706.19	82.332
706.51	74.766
706.83	80.000
707.15	76.190
707.47	69.949
707.79	73.219
708.11	70.320
708.43	72.619
708.74	72.959
709.06	71.429
709.38	75.328
709.70	76.453
710.02	76.855
710.34	75.455
710.66	78.209
710.98	72.159
711.29	71.802
711.61	75.221
711.93	79.167
712.25	74.920
712.57	86.765
712.89	81.661
713.20	75.988
713.52	79.934
713.84	75.633
714.16	75.000
714.48	75.000
714.80	82.067
715.11	70.605
715.43	72.107
715.75	74.203
716.07	74.760
716.39	73.668
716.70	79.734
717.02	75.899
717.34	74.912
717.66	79.104
717.97	82.869
718.29	76.296
718.61	81.387
718.93	79.044
719.24	75.779
719.56	75.254
719.88	75.593
720.20	78.378
720.51	74.564
720.83	81.041
721.15	75.746
721.46	74.113
721.78	79.570
722.10	77.358
722.42	82.331
722.73	79.026
723.05	79.918
723.37	76.518
723.68	78.378
724.00	76.423
724.32	82.661
724.63	77.236
724.95	77.406
725.27	80.162
725.58	77.734
725.90	83.212
726.22	78.868
726.53	72.569
726.85	70.648
727.16	76.868
727.48	69.858
727.80	79.167
728.11	73.913
728.43	76.154
728.74	74.910
729.06	81.022
729.38	73.529
729.69	73.665
730.01	70.648
730.32	74.306
730.64	74.247
730.96	70.627
731.27	73.841
731.59	71.865
731.90	64.140
732.22	71.739
732.53	69.350
732.85	68.590
733.16	69.132
733.48	71.761
733.80	72.078
734.11	71.656
734.43	68.935
734.74	68.571
735.06	69.341
735.37	73.988
735.69	70.701
736.00	73.529
736.32	70.405
736.63	71.885
736.95	71.246
737.26	65.306
737.58	68.710
737.89	68.896
738.21	75.427
738.52	71.786
738.83	73.585
739.15	76.538
739.46	74.453
739.78	74.306
740.09	69.231
740.41	65.161
740.72	68.990
741.04	74.815
741.35	76.250
741.66	83.111
741.98	79.245
742.29	80.383
742.61	74.569
742.92	75.566
743.23	75.641
743.55	74.800
743.86	71.930
744.18	82.743
744.49	79.904
744.80	79.812
745.12	86.364
745.43	79.295
745.74	81.982
746.06	76.147
746.37	77.578
746.68	75.113
747.00	81.944
747.31	84.286
747.62	75.664
747.94	76.652
748.25	71.489
748.56	82.819
748.88	77.228
749.19	92.000
749.50	79.535
749.82	70.325
750.13	71.837
750.44	73.358
750.75	74.035
751.07	72.990
751.38	72.822
751.69	68.231
752.01	75.188
752.32	73.285
752.63	74.113
752.94	78.279
753.26	76.000
753.57	71.951
753.88	74.609
754.19	71.429
754.51	70.833
754.82	70.758
755.13	69.811
755.44	72.180
755.75	70.438
756.07	71.277
756.38	71.168
756.69	71.141
757.00	67.365
757.31	65.282
757.63	66.374
757.94	63.539
758.25	59.314
758.56	60.000
758.87	64.785
759.18	64.848
759.50	63.323
759.81	63.863
760.12	64.375
760.43	67.335
760.74	65.489
761.05	69.209
761.36	59.893
761.67	63.068
761.99	63.665
762.30	72.569
762.61	72.901
762.92	68.750
763.23	72.689
763.54	73.200
763.85	69.922
764.16	72.308
764.47	74.144
764.78	67.138
765.10	63.924
765.41	67.552
765.72	66.766
766.03	65.831
766.34	60.667
766.65	77.021
766.96	76.923
767.27	74.112
767.58	81.771
767.89	74.737
768.20	83.908
768.51	81.218
768.82	78.440
769.13	75.203
769.44	70.850
769.75	75.536
770.06	67.431
770.37	77.828
770.68	76.389
770.99	73.333
771.30	65.164
771.61	82.063
771.92	70.492
772.23	75.630
772.54	78.462
772.85	73.298
773.16	81.383
773.47	75.000
773.78	77.157
774.09	82.738
774.39	80.117
774.70	83.333
775.01	91.304
775.32	92.810
775.63	81.579
775.94	93.525
776.25	91.339
776.56	99.254
776.87	96.721
777.18	92.969
777.48	94.656
777.79	90.909
778.10	94.074
778.41	103.571
778.72	87.591
779.03	89.262
779.34	83.221
779.65	79.054
779.95	82.822
780.26	87.582
780.57	86.207
780.88	101.562
781.19	84.962
781.50	86.486
781.80	74.843
782.11	74.011
782.42	79.747
782.73	77.301
783.04	87.838
783.34	92.958
783.65	89.041
783.96	91.045
784.27	85.315
784.57	71.223
784.88	96.296
785.19	90.476
785.50	106.604
785.81	95.522
786.11	97.541
786.42	87.597
786.73	93.805
787.04	96.226
787.34	97.321
787.65	113.000
787.96	84.685
788.26	88.430
788.57	103.390
788.88	103.306
789.19	91.667
789.49	91.667
789.80	94.656
790.11	99.048
790.41	110.891
790.72	110.843
791.03	106.522
791.33	112.791
791.64	102.062
791.95	103.960
792.25	111.111
792.56	116.883
792.87	126.923
793.17	115.190
793.48	100.000
793.79	116.092
794.09	107.955
794.40	87.395
794.70	87.500
795.01	86.667
795.32	68.345
795.62	88.189
795.93	93.103
796.23	89.381
796.54	101.176
796.85	106.757
797.15	116.901
797.46	121.212
797.76	112.048
798.07	117.722
798.37	129.231
798.68	136.364
798.99	109.859
799.29	102.597
799.60	98.864
799.90	121.918
800.21	129.851
800.51	144.828
800.82	150.877
801.12	118.033
801.43	142.424
801.73	104.054
802.04	126.984
802.34	104.938
802.65	118.750
802.95	128.814
803.26	123.438
803.56	110.000
803.87	116.923
804.17	125.000
804.48	166.667
804.78	125.862
805.09	119.118
805.39	148.077
805.70	133.929
806.00	140.984
806.30	134.848
806.61	117.073
806.91	92.405
807.22	130.263
807.52	114.925
807.83	112.676
808.13	143.750
808.43	131.667
808.74	97.368
809.04	130.435
809.35	117.910
809.65	107.895
809.95	129.032
810.26	127.119
810.56	109.524
810.86	184.091
811.17	200.000
811.47	136.667
811.77	133.333
812.08	143.636
812.38	160.000
812.69	186.111
812.99	186.364
813.29	132.653
813.59	135.714
813.90	169.388
814.20	136.364
814.50	115.385
814.81	132.353
815.11	151.020
815.41	122.951
815.72	209.524
816.02	140.000
816.32	176.190
816.62	165.000
816.93	146.341
817.23	150.000
817.53	159.091
817.84	193.939
818.14	169.565
818.44	148.889
818.74	202.941
819.04	187.500
819.35	202.857
819.65	188.235
819.95	192.857
820.25	295.000
820.56	194.872
820.86	154.545
821.16	183.721
821.46	166.667
821.76	172.000
822.07	197.143
822.37	192.500
822.67	187.879
822.97	135.294
823.27	232.143
823.57	200.000
823.88	190.000
824.18	203.333
824.48	161.905
824.78	244.000
825.08	241.667
825.38	189.189
825.69	158.537
825.99	262.500
826.29	203.448
826.59	186.842
826.89	171.053
827.19	200.000
827.49	193.548
827.79	168.182
828.09	154.545
828.39	134.043
828.70	151.020
829.00	248.148
829.30	151.613
829.60	187.500
829.90	373.333
830.20	242.857
830.50	247.826
830.80	295.652
831.10	263.333
831.40	210.000
831.70	191.304
832.00	284.615
832.30	218.519
832.60	325.000
832.90	196.667
833.20	450.000
833.50	200.000
833.80	200.000
834.10	196.875
834.40	284.615
834.70	327.778
835.00	338.095
835.30	168.571
835.60	392.308
835.90	248.276
836.20	428.571
836.50	203.448
836.80	236.000
837.10	205.556
837.40	238.095
837.70	341.176
838.00	214.815
838.30	257.143
838.60	319.048
838.90	253.846
839.19	320.000
839.49	464.286
839.79	325.000
840.09	270.000
840.39	228.571
840.69	282.609
840.99	316.667
841.29	560.000
841.59	450.000
841.88	387.500
842.18	182.759
842.48	309.524
842.78	236.667
843.08	278.261
843.38	206.250
843.68	900.000
843.97	280.769
844.27	231.034
844.57	323.810
844.87	400.000
845.17	270.370
845.47	1766.667
845.76	622.222
846.06	335.294
846.36	662.500
846.66	435.714
846.96	306.250
847.25	472.727
847.55	445.455
847.85	256.522
848.15	520.000
848.44	421.429
848.74	322.222
849.04	305.882
849.34	590.000
849.63	294.737
849.93	500.000
850.23	1120.000
850.53	435.714
850.82	2550.000
851.12	-4700.000
851.42	4300.000
851.71	305.000
852.01	-1400.000
852.31	245.833
852.61	2033.333
852.90	257.143
853.20	268.000
853.50	329.412
853.79	257.143
854.09	250.000
854.39	362.500
854.68	202.703
854.98	190.323
855.28	190.000
855.57	248.276
855.87	251.852
856.17	242.105
856.46	340.000
856.76	294.118
857.05	224.138
857.35	245.833
857.65	353.333
857.94	273.913
858.24	273.077
858.53	290.000
858.83	286.364
859.13	373.333
859.42	0.000
859.72	588.889
860.01	400.000
860.31	281.818
860.60	289.474
860.90	230.435
861.20	577.778
861.49	616.667
861.79	-5500.000
862.08	637.500
862.38	323.810
862.67	400.000
862.97	394.118
863.26	622.222
863.56	277.778
863.85	466.667
864.15	600.000
864.44	460.000
864.74	833.333
865.03	775.000
865.33	273.684
865.62	472.727
865.92	453.846
866.21	433.333
866.51	0.000
866.80	481.818
867.10	1100.000
867.39	446.154
867.69	445.455
867.98	300.000
868.27	436.364
868.57	321.053
868.86	-5000.000
869.16	343.750
869.45	2450.000
869.75	-4200.000
870.04	458.333
870.33	685.714
870.63	1150.000
870.92	2750.000
871.22	828.571
871.51	341.176
871.80	257.143
872.10	378.571
>>>>>End Processed Spectral Data<<<<<
