SpectraSuite Data File
++++++++++++++++++++++++++++++++++++
Date: Wed May 13 19:53:08 PDT 2015
User: schluterlab
Dark Spectrum Present: Yes
Reference Spectrum Present: Yes
Number of Sampled Component Spectra: 1
Spectrometers: USB2E3373
Integration Time (usec): 3000 (USB2E3373)
Spectra Averaged: 3 (USB2E3373)
Boxcar Smoothing: 0 (USB2E3373)
Correct for Electrical Dark: No (USB2E3373)
Strobe/Lamp Enabled: No (USB2E3373)
Correct for Detector Non-linearity: No (USB2E3373)
Correct for Stray Light: No (USB2E3373)
Number of Pixels in Processed Spectrum: 2048
>>>>>Begin Processed Spectral Data<<<<<
178.53	0.000
178.91	-1375.000
179.29	-1475.000
179.67	-266.667
180.04	-1325.000
180.42	2450.000
180.80	1180.000
181.18	-1050.000
181.56	714.286
181.94	0.000
182.31	-657.143
182.69	1666.667
183.07	-650.000
183.45	-722.222
183.83	481.818
184.20	-480.000
184.58	2300.000
184.96	6000.000
185.34	-880.000
185.72	-650.000
186.09	-2450.000
186.47	2750.000
186.85	2700.000
187.23	4900.000
187.61	-1800.000
187.98	1525.000
188.36	536.364
188.74	500.000
189.12	-1040.000
189.49	570.000
189.87	-5200.000
190.25	-1100.000
190.63	471.429
191.00	453.846
191.38	1116.667
191.76	-1275.000
192.14	1275.000
192.51	650.000
192.89	916.667
193.27	637.500
193.65	-1375.000
194.02	530.000
194.40	920.000
194.78	610.000
195.15	533.333
195.53	610.000
195.91	-2500.000
196.29	406.250
196.66	315.789
197.04	-410.000
197.42	0.000
197.79	700.000
198.17	-5400.000
198.55	928.571
198.92	775.000
199.30	940.000
199.68	0.000
200.05	333.333
200.43	728.571
200.81	5400.000
201.18	1733.333
201.56	-1833.333
201.94	633.333
202.31	566.667
202.69	450.000
203.07	580.000
203.44	0.000
203.82	1025.000
204.19	728.571
204.57	442.857
204.95	687.500
205.32	1666.667
205.70	500.000
206.08	407.143
206.45	2750.000
206.83	350.000
207.20	1100.000
207.58	1040.000
207.96	361.111
208.33	550.000
208.71	-700.000
209.08	785.714
209.46	566.667
209.84	518.182
210.21	-1366.667
210.59	1700.000
210.96	-562.500
211.34	3050.000
211.71	600.000
212.09	833.333
212.46	0.000
212.84	1700.000
213.22	1400.000
213.59	-4800.000
213.97	850.000
214.34	828.571
214.72	572.727
215.09	980.000
215.47	-2150.000
215.84	-2650.000
216.22	1400.000
216.59	414.286
216.97	1300.000
217.34	436.364
217.72	-700.000
218.09	0.000
218.47	-6300.000
218.84	700.000
219.22	685.714
219.59	1466.667
219.97	-685.714
220.34	1040.000
220.72	-1966.667
221.09	414.286
221.47	1450.000
221.84	-883.333
222.22	0.000
222.59	1175.000
222.97	-2650.000
223.34	1220.000
223.72	376.923
224.09	1100.000
224.46	2500.000
224.84	-5100.000
225.21	-980.000
225.59	-4300.000
225.96	600.000
226.34	300.000
226.71	2650.000
227.08	637.500
227.46	560.000
227.83	-950.000
228.21	-2400.000
228.58	622.222
228.95	-2200.000
229.33	-2450.000
229.70	1800.000
230.08	714.286
230.45	-1040.000
230.82	508.333
231.20	900.000
231.57	600.000
231.95	508.333
232.32	268.182
232.69	400.000
233.07	785.714
233.44	330.769
233.81	-1533.333
234.19	321.053
234.56	433.333
234.93	375.000
235.31	409.091
235.68	284.615
236.05	328.571
236.43	166.667
236.80	252.632
237.17	4200.000
237.55	233.333
237.92	192.857
238.29	261.905
238.67	154.839
239.04	158.621
239.41	138.889
239.79	106.522
240.16	123.810
240.53	147.727
240.91	66.667
241.28	88.000
241.65	108.000
242.02	86.957
242.40	87.097
242.77	88.333
243.14	61.290
243.51	69.663
243.89	64.706
244.26	50.000
244.63	51.613
245.00	46.809
245.38	52.475
245.75	40.187
246.12	39.450
246.49	56.204
246.87	53.600
247.24	50.769
247.61	41.429
247.98	35.294
248.36	37.838
248.73	33.758
249.10	38.217
249.47	26.554
249.84	34.225
250.22	34.759
250.59	30.769
250.96	26.768
251.33	30.332
251.70	33.168
252.08	28.095
252.45	24.215
252.82	26.522
253.19	26.383
253.56	25.490
253.94	26.971
254.31	21.875
254.68	23.462
255.05	22.509
255.42	22.764
255.79	19.853
256.16	24.188
256.54	20.141
256.91	22.064
257.28	17.266
257.65	19.802
258.02	18.944
258.39	17.035
258.76	15.719
259.14	19.643
259.51	18.845
259.88	16.460
260.25	20.242
260.62	17.052
260.99	13.975
261.36	18.619
261.73	16.905
262.10	15.116
262.47	19.718
262.85	17.549
263.22	15.385
263.59	16.524
263.96	14.835
264.33	14.360
264.70	17.895
265.07	17.903
265.44	15.404
265.81	13.869
266.18	14.070
266.55	12.439
266.92	13.514
267.29	15.046
267.66	13.532
268.03	15.227
268.40	13.551
268.77	14.797
269.14	12.838
269.51	14.673
269.88	10.956
270.25	15.124
270.62	15.056
270.99	15.914
271.36	14.163
271.73	13.318
272.10	11.957
272.47	12.473
272.84	13.853
273.21	15.514
273.58	12.009
273.95	11.530
274.32	12.397
274.69	13.062
275.06	10.630
275.43	15.106
275.80	10.822
276.17	12.424
276.54	14.345
276.91	13.439
277.28	13.477
277.65	12.379
278.02	11.801
278.39	13.672
278.76	12.909
279.13	13.962
279.50	12.663
279.87	11.355
280.23	11.776
280.60	9.478
280.97	10.536
281.34	11.681
281.71	12.545
282.08	11.900
282.45	12.182
282.82	9.414
283.19	8.734
283.56	10.526
283.92	11.506
284.29	8.818
284.66	10.163
285.03	10.307
285.40	10.739
285.77	10.101
286.14	9.672
286.51	11.000
286.87	10.769
287.24	10.261
287.61	11.236
287.98	10.390
288.35	9.509
288.72	11.215
289.08	10.172
289.45	9.885
289.82	10.732
290.19	8.634
290.56	9.342
290.93	6.798
291.29	8.896
291.66	9.292
292.03	11.337
292.40	11.160
292.77	8.876
293.13	10.597
293.50	9.184
293.87	9.926
294.24	8.148
294.60	8.588
294.97	8.430
295.34	10.578
295.71	9.375
296.08	8.262
296.44	8.253
296.81	8.851
297.18	10.298
297.55	6.596
297.91	7.784
298.28	10.040
298.65	8.355
299.02	8.827
299.38	7.835
299.75	6.469
300.12	8.046
300.48	8.875
300.85	8.755
301.22	8.153
301.59	7.828
301.95	8.438
302.32	8.472
302.69	7.885
303.05	8.000
303.42	7.407
303.79	8.267
304.15	7.226
304.52	6.952
304.89	7.782
305.25	7.193
305.62	8.607
305.99	8.383
306.35	7.047
306.72	8.184
307.09	7.325
307.45	8.333
307.82	7.254
308.19	8.278
308.55	7.983
308.92	7.948
309.29	5.913
309.65	7.635
310.02	6.660
310.38	7.849
310.75	7.603
311.12	7.984
311.48	7.210
311.85	8.805
312.22	7.284
312.58	7.484
312.95	8.131
313.31	8.058
313.68	7.277
314.05	8.974
314.41	8.744
314.78	7.956
315.14	7.944
315.51	7.415
315.87	9.307
316.24	9.335
316.61	7.797
316.97	8.219
317.34	8.806
317.70	9.369
318.07	10.010
318.43	11.057
318.80	9.560
319.16	11.111
319.53	9.850
319.89	11.524
320.26	11.400
320.62	11.111
320.99	10.404
321.35	11.717
321.72	13.142
322.08	13.722
322.45	14.030
322.81	14.244
323.18	14.933
323.54	14.007
323.91	15.000
324.27	14.723
324.64	14.352
325.00	14.337
325.37	15.469
325.73	17.235
326.10	16.417
326.46	15.412
326.83	17.947
327.19	16.140
327.56	16.812
327.92	17.235
328.29	18.634
328.65	19.153
329.01	18.502
329.38	18.131
329.74	19.760
330.11	18.096
330.47	20.018
330.84	20.956
331.20	18.852
331.56	19.817
331.93	19.167
332.29	20.497
332.66	21.062
333.02	20.384
333.38	20.958
333.75	21.569
334.11	21.263
334.48	20.674
334.84	21.875
335.20	20.636
335.57	21.396
335.93	19.911
336.29	21.520
336.66	22.453
337.02	20.271
337.38	21.944
337.75	20.588
338.11	22.023
338.47	21.639
338.84	22.731
339.20	21.101
339.56	22.810
339.93	22.091
340.29	22.283
340.65	20.856
341.02	23.822
341.38	22.331
341.74	21.140
342.11	23.144
342.47	22.203
342.83	22.774
343.20	23.550
343.56	21.820
343.92	21.930
344.28	22.789
344.65	22.614
345.01	22.643
345.37	22.041
345.73	22.166
346.10	22.336
346.46	22.881
346.82	23.723
347.19	22.389
347.55	22.250
347.91	23.058
348.27	23.418
348.63	24.080
349.00	21.683
349.36	22.578
349.72	22.053
350.08	22.853
350.45	24.817
350.81	22.258
351.17	23.420
351.53	22.604
351.89	22.525
352.26	24.073
352.62	24.779
352.98	23.339
353.34	25.308
353.70	23.895
354.07	24.194
354.43	23.413
354.79	23.813
355.15	23.703
355.51	24.620
355.87	24.245
356.24	23.290
356.60	24.459
356.96	24.296
357.32	24.612
357.68	23.858
358.04	24.466
358.40	24.228
358.77	24.257
359.13	24.862
359.49	24.863
359.85	23.413
360.21	24.402
360.57	24.825
360.93	25.231
361.29	25.397
361.66	25.774
362.02	25.597
362.38	24.335
362.74	25.670
363.10	24.130
363.46	25.018
363.82	23.961
364.18	25.918
364.54	26.300
364.90	25.000
365.26	26.029
365.62	26.150
365.98	24.909
366.35	25.143
366.71	26.103
367.07	25.856
367.43	26.415
367.79	27.052
368.15	26.724
368.51	26.090
368.87	26.909
369.23	26.554
369.59	26.792
369.95	25.441
370.31	26.211
370.67	25.145
371.03	26.966
371.39	26.895
371.75	25.882
372.11	26.885
372.47	28.079
372.83	27.810
373.19	26.517
373.55	26.829
373.91	28.203
374.27	26.117
374.63	26.909
374.99	27.119
375.35	26.378
375.71	26.799
376.07	27.435
376.42	27.029
376.78	27.104
377.14	27.815
377.50	27.152
377.86	26.330
378.22	28.066
378.58	26.504
378.94	26.964
379.30	27.417
379.66	27.728
380.02	27.334
380.38	27.019
380.74	26.951
381.09	28.423
381.45	27.535
381.81	27.088
382.17	28.153
382.53	27.987
382.89	27.778
383.25	27.955
383.61	28.253
383.97	28.268
384.32	28.509
384.68	27.695
385.04	27.904
385.40	27.802
385.76	27.641
386.12	28.368
386.48	28.005
386.83	28.929
387.19	28.571
387.55	28.386
387.91	28.235
388.27	27.774
388.62	28.150
388.98	28.010
389.34	28.536
389.70	28.387
390.06	29.024
390.42	29.248
390.77	28.690
391.13	29.036
391.49	29.061
391.85	28.644
392.20	27.508
392.56	27.904
392.92	28.428
393.28	27.160
393.64	27.158
393.99	27.856
394.35	28.970
394.71	27.227
395.07	26.978
395.42	27.874
395.78	28.053
396.14	27.064
396.50	28.008
396.85	28.036
397.21	27.312
397.57	27.712
397.92	28.065
398.28	26.738
398.64	27.419
399.00	27.868
399.35	27.242
399.71	27.604
400.07	27.735
400.42	28.282
400.78	28.227
401.14	27.073
401.49	26.925
401.85	26.800
402.21	26.707
402.57	27.020
402.92	28.121
403.28	27.108
403.63	27.290
403.99	27.516
404.35	28.121
404.70	26.739
405.06	26.092
405.42	27.573
405.77	26.457
406.13	26.242
406.49	26.434
406.84	25.930
407.20	25.946
407.55	27.505
407.91	26.867
408.27	26.994
408.62	25.707
408.98	26.348
409.34	26.322
409.69	26.516
410.05	25.836
410.40	26.055
410.76	25.149
411.11	25.995
411.47	24.920
411.83	25.229
412.18	24.985
412.54	25.903
412.89	25.542
413.25	26.033
413.60	25.263
413.96	25.440
414.31	25.091
414.67	25.982
415.03	25.563
415.38	26.160
415.74	24.566
416.09	25.343
416.45	25.435
416.80	24.587
417.16	25.737
417.51	25.216
417.87	25.305
418.22	25.678
418.58	25.888
418.93	25.430
419.29	25.589
419.64	25.756
420.00	25.366
420.35	24.870
420.71	25.463
421.06	25.298
421.42	24.678
421.77	24.832
422.12	24.874
422.48	24.231
422.83	24.752
423.19	25.138
423.54	25.363
423.90	24.812
424.25	23.730
424.61	24.821
424.96	24.373
425.31	24.917
425.67	23.034
426.02	23.543
426.38	25.580
426.73	24.166
427.09	25.350
427.44	23.922
427.79	23.749
428.15	24.881
428.50	24.751
428.85	24.017
429.21	24.186
429.56	23.328
429.92	23.603
430.27	24.429
430.62	23.041
430.98	23.352
431.33	23.144
431.68	23.560
432.04	23.110
432.39	22.730
432.74	23.399
433.10	24.844
433.45	23.907
433.80	23.503
434.16	23.878
434.51	23.421
434.86	24.572
435.22	23.457
435.57	24.073
435.92	24.283
436.28	24.674
436.63	23.620
436.98	23.354
437.34	23.614
437.69	24.096
438.04	23.665
438.39	23.701
438.75	24.114
439.10	23.855
439.45	24.439
439.81	24.713
440.16	23.433
440.51	24.605
440.86	23.393
441.22	24.416
441.57	23.514
441.92	24.002
442.27	24.435
442.63	24.171
442.98	25.070
443.33	24.076
443.68	23.025
444.03	23.719
444.39	24.099
444.74	24.567
445.09	24.205
445.44	24.932
445.79	23.602
446.15	24.193
446.50	24.017
446.85	23.330
447.20	24.120
447.55	23.786
447.91	23.938
448.26	24.485
448.61	24.590
448.96	25.249
449.31	24.072
449.66	24.930
450.02	24.401
450.37	24.150
450.72	23.914
451.07	23.888
451.42	24.924
451.77	23.723
452.12	24.654
452.47	24.627
452.83	24.767
453.18	24.572
453.53	24.861
453.88	23.686
454.23	24.507
454.58	24.652
454.93	24.984
455.28	25.125
455.63	25.243
455.98	25.119
456.34	24.560
456.69	24.984
457.04	24.830
457.39	23.787
457.74	24.260
458.09	24.612
458.44	23.831
458.79	24.132
459.14	23.420
459.49	23.701
459.84	23.380
460.19	23.453
460.54	23.669
460.89	23.862
461.24	24.408
461.59	24.288
461.94	23.551
462.29	24.273
462.64	23.484
462.99	23.552
463.34	24.667
463.69	24.140
464.04	23.652
464.39	23.420
464.74	23.292
465.09	23.040
465.44	22.604
465.79	22.371
466.14	22.277
466.49	22.414
466.84	22.825
467.19	22.571
467.54	22.375
467.89	22.449
468.24	23.386
468.59	23.504
468.94	21.808
469.29	22.751
469.64	24.230
469.99	22.869
470.34	22.787
470.68	23.132
471.03	21.633
471.38	23.558
471.73	22.718
472.08	23.224
472.43	21.922
472.78	21.330
473.13	22.786
473.48	22.534
473.83	22.195
474.17	21.469
474.52	21.650
474.87	22.067
475.22	21.474
475.57	20.903
475.92	20.340
476.27	22.041
476.61	20.518
476.96	21.275
477.31	20.984
477.66	20.678
478.01	19.969
478.36	21.787
478.70	20.042
479.05	21.299
479.40	20.727
479.75	19.980
480.10	20.179
480.45	20.086
480.79	19.876
481.14	20.157
481.49	20.361
481.84	19.707
482.19	19.855
482.53	19.541
482.88	19.451
483.23	19.860
483.58	19.927
483.92	20.103
484.27	18.693
484.62	19.612
484.97	19.038
485.31	19.315
485.66	18.609
486.01	17.815
486.36	17.370
486.70	16.837
487.05	17.118
487.40	17.620
487.75	17.853
488.09	18.047
488.44	17.912
488.79	18.590
489.13	17.723
489.48	18.801
489.83	17.954
490.17	18.325
490.52	18.778
490.87	18.634
491.22	18.372
491.56	17.449
491.91	17.962
492.26	17.915
492.60	18.203
492.95	17.774
493.30	17.944
493.64	18.292
493.99	17.920
494.34	18.178
494.68	18.086
495.03	17.058
495.37	17.729
495.72	17.836
496.07	18.190
496.41	17.655
496.76	17.590
497.11	17.290
497.45	17.513
497.80	17.226
498.14	17.391
498.49	17.317
498.84	17.402
499.18	17.476
499.53	16.952
499.87	17.055
500.22	16.675
500.56	17.573
500.91	17.019
501.26	16.596
501.60	17.181
501.95	17.049
502.29	17.666
502.64	16.434
502.98	16.503
503.33	16.179
503.67	16.520
504.02	16.604
504.36	16.752
504.71	16.268
505.06	16.916
505.40	16.578
505.75	16.056
506.09	15.986
506.44	16.034
506.78	16.756
507.13	15.952
507.47	16.616
507.82	17.021
508.16	16.059
508.51	16.286
508.85	16.087
509.19	16.378
509.54	15.816
509.88	16.692
510.23	16.350
510.57	17.286
510.92	16.106
511.26	16.547
511.61	16.027
511.95	15.397
512.30	15.695
512.64	16.013
512.98	16.345
513.33	15.953
513.67	15.688
514.02	15.584
514.36	16.166
514.70	16.547
515.05	15.505
515.39	16.040
515.74	15.203
516.08	16.713
516.42	16.482
516.77	16.054
517.11	14.983
517.46	15.632
517.80	16.144
518.14	15.171
518.49	15.344
518.83	16.080
519.17	16.051
519.52	15.450
519.86	15.973
520.20	16.763
520.55	15.081
520.89	15.511
521.23	15.923
521.58	15.366
521.92	16.534
522.26	15.558
522.61	15.514
522.95	15.961
523.29	15.155
523.64	15.854
523.98	15.280
524.32	16.466
524.66	15.695
525.01	15.502
525.35	15.489
525.69	15.209
526.04	15.576
526.38	16.168
526.72	15.583
527.06	15.254
527.41	14.047
527.75	16.013
528.09	16.506
528.43	14.659
528.78	15.980
529.12	14.121
529.46	15.615
529.80	15.285
530.15	15.389
530.49	14.708
530.83	15.506
531.17	15.666
531.51	15.888
531.86	15.484
532.20	15.319
532.54	16.015
532.88	15.918
533.22	14.241
533.57	15.123
533.91	15.111
534.25	14.945
534.59	14.460
534.93	15.229
535.27	15.389
535.62	14.713
535.96	14.752
536.30	14.304
536.64	15.132
536.98	15.528
537.32	13.891
537.66	14.400
538.01	15.142
538.35	15.320
538.69	14.997
539.03	14.620
539.37	13.930
539.71	14.128
540.05	14.771
540.39	14.419
540.73	15.136
541.07	14.731
541.42	14.351
541.76	14.516
542.10	14.230
542.44	14.040
542.78	14.822
543.12	14.139
543.46	14.623
543.80	14.769
544.14	13.800
544.48	14.921
544.82	14.047
545.16	14.249
545.50	14.524
545.84	13.844
546.18	14.074
546.52	14.453
546.86	14.639
547.20	14.295
547.54	14.496
547.88	14.286
548.22	14.570
548.56	13.899
548.90	13.956
549.24	13.468
549.58	14.598
549.92	14.354
550.26	13.636
550.60	14.108
550.94	14.296
551.28	12.217
551.62	14.234
551.96	13.684
552.30	14.608
552.64	14.943
552.98	13.559
553.32	13.014
553.66	15.065
554.00	14.413
554.34	12.698
554.68	15.021
555.02	14.669
555.36	14.335
555.69	13.261
556.03	14.199
556.37	13.029
556.71	12.960
557.05	13.585
557.39	13.576
557.73	14.255
558.07	14.648
558.41	13.603
558.75	13.740
559.08	13.870
559.42	14.437
559.76	14.779
560.10	12.206
560.44	13.068
560.78	13.506
561.12	13.259
561.45	13.429
561.79	13.184
562.13	13.548
562.47	13.934
562.81	14.365
563.15	12.776
563.48	12.931
563.82	12.981
564.16	12.623
564.50	12.044
564.84	12.642
565.17	12.291
565.51	12.907
565.85	13.325
566.19	13.087
566.52	12.793
566.86	13.080
567.20	13.090
567.54	12.215
567.88	11.896
568.21	12.857
568.55	12.032
568.89	11.430
569.23	11.898
569.56	11.619
569.90	11.623
570.24	11.410
570.57	11.085
570.91	11.183
571.25	10.964
571.59	11.075
571.92	10.772
572.26	11.121
572.60	10.871
572.93	10.645
573.27	11.298
573.61	10.916
573.95	10.594
574.28	10.930
574.62	10.228
574.96	10.514
575.29	10.427
575.63	10.442
575.97	10.804
576.30	10.754
576.64	10.589
576.98	10.428
577.31	10.074
577.65	10.423
577.98	9.992
578.32	10.008
578.66	10.503
578.99	10.021
579.33	10.046
579.67	9.827
580.00	10.237
580.34	9.991
580.67	10.045
581.01	10.367
581.35	10.186
581.68	10.136
582.02	9.778
582.35	9.892
582.69	10.063
583.02	10.190
583.36	10.099
583.70	10.440
584.03	10.345
584.37	10.567
584.70	10.110
585.04	10.127
585.37	10.508
585.71	10.667
586.04	10.099
586.38	10.162
586.72	10.909
587.05	10.541
587.39	10.185
587.72	10.461
588.06	10.566
588.39	10.782
588.73	10.854
589.06	10.813
589.40	10.842
589.73	11.052
590.07	10.890
590.40	10.778
590.73	10.578
591.07	11.559
591.40	11.809
591.74	11.732
592.07	10.908
592.41	10.996
592.74	10.599
593.08	10.759
593.41	10.218
593.75	10.337
594.08	10.627
594.41	10.357
594.75	9.834
595.08	11.059
595.42	10.543
595.75	10.684
596.09	11.228
596.42	11.159
596.75	10.933
597.09	10.563
597.42	11.088
597.75	10.953
598.09	11.087
598.42	10.653
598.76	10.539
599.09	10.148
599.42	10.480
599.76	10.322
600.09	10.674
600.42	10.263
600.76	10.429
601.09	10.565
601.42	10.731
601.76	11.082
602.09	11.107
602.42	10.709
602.76	11.165
603.09	11.054
603.42	10.816
603.76	10.213
604.09	10.198
604.42	10.518
604.76	11.177
605.09	10.747
605.42	10.389
605.75	10.596
606.09	10.248
606.42	10.462
606.75	10.950
607.09	10.883
607.42	10.227
607.75	10.084
608.08	10.725
608.42	11.026
608.75	10.640
609.08	10.546
609.41	10.947
609.75	11.148
610.08	11.122
610.41	10.428
610.74	10.501
611.07	10.771
611.41	10.500
611.74	11.413
612.07	11.491
612.40	11.280
612.73	10.947
613.07	11.692
613.40	11.374
613.73	11.169
614.06	11.022
614.39	11.379
614.72	11.263
615.06	12.027
615.39	10.722
615.72	10.787
616.05	11.164
616.38	11.562
616.71	11.045
617.05	11.425
617.38	11.666
617.71	11.231
618.04	11.719
618.37	11.827
618.70	11.574
619.03	11.974
619.36	11.677
619.69	11.831
620.03	11.126
620.36	12.233
620.69	12.055
621.02	12.758
621.35	12.451
621.68	11.449
622.01	12.384
622.34	11.876
622.67	12.471
623.00	11.959
623.33	11.437
623.66	12.080
623.99	11.487
624.32	11.983
624.65	11.441
624.99	11.402
625.32	11.296
625.65	12.246
625.98	12.145
626.31	12.442
626.64	11.837
626.97	12.053
627.30	11.970
627.63	13.043
627.96	13.036
628.29	12.511
628.62	13.175
628.95	13.491
629.28	13.321
629.61	13.199
629.94	13.238
630.26	12.393
630.59	13.346
630.92	13.506
631.25	12.142
631.58	13.413
631.91	11.765
632.24	11.392
632.57	13.221
632.90	13.158
633.23	14.206
633.56	14.576
633.89	13.703
634.22	15.437
634.55	14.083
634.88	13.413
635.20	13.740
635.53	13.253
635.86	13.366
636.19	12.588
636.52	14.072
636.85	13.288
637.18	12.327
637.51	14.184
637.83	13.687
638.16	16.368
638.49	15.365
638.82	14.412
639.15	14.500
639.48	13.591
639.81	15.952
640.13	15.755
640.46	13.960
640.79	17.041
641.12	12.792
641.45	13.408
641.77	16.053
642.10	14.327
642.43	13.664
642.76	15.480
643.09	15.491
643.41	15.326
643.74	16.512
644.07	15.854
644.40	16.258
644.73	16.220
645.05	16.957
645.38	14.692
645.71	16.586
646.04	14.784
646.36	17.696
646.69	19.565
647.02	16.497
647.35	18.041
647.67	17.699
648.00	16.748
648.33	14.521
648.66	14.848
648.98	16.942
649.31	14.350
649.64	14.798
649.96	16.095
650.29	14.850
650.62	14.078
650.94	17.342
651.27	15.034
651.60	16.639
651.92	16.134
652.25	13.518
652.58	17.445
652.90	16.272
653.23	14.484
653.56	15.118
653.88	15.214
654.21	17.220
654.54	14.026
654.86	14.486
655.19	14.459
655.52	8.488
655.84	6.860
656.17	8.652
656.49	11.566
656.82	12.001
657.15	8.938
657.47	6.840
657.80	5.302
658.13	5.465
658.45	8.055
658.78	8.588
659.10	9.197
659.43	9.190
659.75	10.317
660.08	10.443
660.41	14.246
660.73	15.121
661.06	16.083
661.38	16.727
661.71	19.615
662.03	17.357
662.36	17.694
662.68	17.269
663.01	16.768
663.33	18.047
663.66	18.487
663.98	18.575
664.31	17.227
664.63	15.587
664.96	16.700
665.28	18.238
665.61	18.129
665.93	12.475
666.26	16.633
666.58	18.410
666.91	19.662
667.23	18.652
667.56	15.983
667.88	19.017
668.21	15.991
668.53	18.221
668.86	15.801
669.18	18.763
669.50	21.522
669.83	20.261
670.15	19.333
670.48	17.211
670.80	20.690
671.13	20.170
671.45	17.872
671.77	20.163
672.10	18.299
672.42	15.548
672.75	15.920
673.07	15.317
673.39	15.190
673.72	16.406
674.04	15.098
674.37	16.117
674.69	17.382
675.01	16.318
675.34	19.507
675.66	20.000
675.98	17.719
676.31	17.647
676.63	18.896
676.95	18.449
677.28	16.121
677.60	18.681
677.92	21.308
678.25	18.070
678.57	16.135
678.89	16.232
679.22	16.699
679.54	16.985
679.86	18.899
680.18	15.385
680.51	17.199
680.83	16.548
681.15	16.981
681.48	17.391
681.80	17.988
682.12	16.284
682.44	13.346
682.77	18.330
683.09	19.099
683.41	15.965
683.73	16.556
684.06	19.215
684.38	17.808
684.70	18.411
685.02	17.824
685.34	16.850
685.67	14.860
685.99	14.605
686.31	15.188
686.63	14.841
686.96	14.286
687.28	16.968
687.60	14.855
687.92	17.916
688.24	14.829
688.56	18.273
688.89	17.012
689.21	17.904
689.53	18.372
689.85	18.625
690.17	16.356
690.49	19.321
690.82	19.159
691.14	17.857
691.46	17.722
691.78	17.671
692.10	17.769
692.42	17.365
692.74	16.183
693.06	18.085
693.39	18.686
693.71	16.157
694.03	17.684
694.35	17.749
694.67	16.705
694.99	19.512
695.31	15.686
695.63	21.053
695.95	20.049
696.27	18.528
696.59	18.394
696.91	18.135
697.23	18.075
697.56	20.896
697.88	15.951
698.20	18.750
698.52	18.065
698.84	17.372
699.16	19.585
699.48	18.527
699.80	19.082
700.12	20.000
700.44	23.342
700.76	21.823
701.08	21.552
701.40	21.788
701.72	23.324
702.04	25.568
702.36	18.980
702.68	20.963
703.00	20.222
703.32	20.745
703.64	19.571
703.96	20.891
704.28	22.965
704.60	21.994
704.91	24.926
705.23	21.701
705.55	23.256
705.87	25.914
706.19	24.382
706.51	21.495
706.83	22.727
707.15	20.728
707.47	18.434
707.79	20.147
708.11	18.721
708.43	19.286
708.74	17.857
709.06	21.039
709.38	22.572
709.70	22.093
710.02	22.255
710.34	19.394
710.66	22.388
710.98	23.011
711.29	22.093
711.61	25.959
711.93	20.833
712.25	22.186
712.57	24.632
712.89	23.875
713.20	24.316
713.52	24.342
713.84	24.051
714.16	21.646
714.48	21.264
714.80	22.796
715.11	21.326
715.43	23.442
715.75	21.449
716.07	24.601
716.39	21.630
716.70	22.591
717.02	28.058
717.34	24.735
717.66	27.612
717.97	29.084
718.29	27.037
718.61	28.102
718.93	25.368
719.24	22.491
719.56	22.034
719.88	23.051
720.20	27.027
720.51	26.829
720.83	24.164
721.15	23.507
721.46	27.305
721.78	26.523
722.10	28.302
722.42	27.068
722.73	27.341
723.05	26.230
723.37	25.101
723.68	27.799
724.00	24.390
724.32	28.629
724.63	26.016
724.95	24.268
725.27	30.769
725.58	26.562
725.90	25.182
726.22	26.792
726.53	23.611
726.85	22.867
727.16	27.402
727.48	22.695
727.80	24.242
728.11	22.464
728.43	25.000
728.74	27.957
729.06	28.102
729.38	30.515
729.69	27.046
730.01	23.208
730.32	21.181
730.64	23.746
730.96	21.122
731.27	28.808
731.59	23.853
731.90	22.741
732.22	20.497
732.53	22.601
732.85	24.359
733.16	22.186
733.48	26.578
733.80	21.753
734.11	28.344
734.43	21.598
734.74	20.857
735.06	18.625
735.37	24.566
735.69	21.019
736.00	26.471
736.32	24.299
736.63	21.725
736.95	24.601
737.26	20.068
737.58	22.258
737.89	23.746
738.21	22.526
738.52	21.429
738.83	21.509
739.15	23.077
739.46	27.372
739.78	24.653
740.09	22.154
740.41	25.484
740.72	24.739
741.04	24.444
741.35	26.250
741.66	32.000
741.98	28.302
742.29	34.928
742.61	32.328
742.92	29.864
743.23	34.188
743.55	30.000
743.86	28.070
744.18	33.186
744.49	29.187
744.80	30.516
745.12	34.545
745.43	34.802
745.74	33.333
746.06	31.193
746.37	33.632
746.68	27.149
747.00	31.481
747.31	31.429
747.62	27.876
747.94	25.991
748.25	28.085
748.56	30.396
748.88	35.149
749.19	34.500
749.50	31.628
749.82	26.423
750.13	24.898
750.44	23.358
750.75	26.316
751.07	25.723
751.38	26.481
751.69	23.466
752.01	24.060
752.32	24.188
752.63	28.369
752.94	26.639
753.26	30.000
753.57	24.390
753.88	25.781
754.19	24.643
754.51	28.125
754.82	26.715
755.13	26.792
755.44	25.564
755.75	22.993
756.07	25.177
756.38	20.803
756.69	22.819
757.00	22.455
757.31	24.332
757.63	21.930
757.94	19.839
758.25	21.324
758.56	20.741
758.87	18.280
759.18	20.909
759.50	20.063
759.81	21.184
760.12	17.500
760.43	24.642
760.74	19.565
761.05	20.904
761.36	20.588
761.67	25.568
761.99	22.050
762.30	26.736
762.61	25.573
762.92	26.562
763.23	27.311
763.54	28.800
763.85	25.391
764.16	32.308
764.47	26.616
764.78	23.675
765.10	20.886
765.41	22.714
765.72	22.156
766.03	23.197
766.34	21.333
766.65	26.383
766.96	31.624
767.27	30.964
767.58	34.375
767.89	36.316
768.20	35.632
768.51	36.041
768.82	30.734
769.13	24.390
769.44	28.340
769.75	28.326
770.06	20.642
770.37	30.769
770.68	32.870
770.99	26.667
771.30	25.820
771.61	26.906
771.92	32.377
772.23	31.933
772.54	26.154
772.85	37.696
773.16	33.511
773.47	38.587
773.78	40.102
774.09	35.714
774.39	38.596
774.70	40.123
775.01	39.855
775.32	45.098
775.63	44.079
775.94	33.813
776.25	50.394
776.56	47.015
776.87	45.902
777.18	48.437
777.48	51.908
777.79	43.939
778.10	43.704
778.41	46.429
778.72	45.255
779.03	45.638
779.34	40.268
779.65	38.514
779.95	42.331
780.26	46.405
780.57	47.586
780.88	54.688
781.19	42.105
781.50	39.189
781.80	38.994
782.11	35.593
782.42	38.608
782.73	38.037
783.04	45.946
783.34	38.732
783.65	56.164
783.96	44.776
784.27	41.259
784.57	43.165
784.88	47.222
785.19	53.175
785.50	56.604
785.81	54.478
786.11	50.820
786.42	51.163
786.73	42.478
787.04	52.830
787.34	58.036
787.65	66.000
787.96	49.550
788.26	45.455
788.57	58.475
788.88	48.760
789.19	48.611
789.49	56.818
789.80	44.275
790.11	55.238
790.41	61.386
790.72	63.855
791.03	59.783
791.33	58.140
791.64	54.639
791.95	61.386
792.25	56.667
792.56	72.727
792.87	73.077
793.17	68.354
793.48	72.414
793.79	74.713
794.09	68.182
794.40	56.303
794.70	54.412
795.01	42.963
795.32	46.043
795.62	42.520
795.93	53.448
796.23	53.982
796.54	57.647
796.85	68.919
797.15	80.282
797.46	68.182
797.76	74.699
798.07	75.949
798.37	81.538
798.68	68.182
798.99	77.465
799.29	80.519
799.60	63.636
799.90	87.671
800.21	83.582
800.51	81.034
800.82	110.526
801.12	80.328
801.43	86.364
801.73	72.973
802.04	73.016
802.34	76.543
802.65	76.563
802.95	108.475
803.26	96.875
803.56	61.429
803.87	90.769
804.17	98.529
804.48	112.963
804.78	89.655
805.09	82.353
805.39	109.615
805.70	85.714
806.00	96.721
806.30	68.182
806.61	87.805
806.91	67.089
807.22	67.105
807.52	50.746
807.83	88.732
808.13	100.000
808.43	78.333
808.74	63.158
809.04	75.362
809.35	77.612
809.65	85.526
809.95	98.387
810.26	81.356
810.56	92.063
810.86	129.545
811.17	130.952
811.47	105.000
811.77	111.111
812.08	105.455
812.38	128.000
812.69	144.444
812.99	131.818
813.29	114.286
813.59	130.952
813.90	112.245
814.20	109.091
814.50	93.846
814.81	98.529
815.11	104.082
815.41	108.197
815.72	152.381
816.02	120.000
816.32	121.429
816.62	122.500
816.93	124.390
817.23	119.048
817.53	129.545
817.84	181.818
818.14	130.435
818.44	115.556
818.74	155.882
819.04	152.500
819.35	142.857
819.65	158.824
819.95	157.143
820.25	240.000
820.56	151.282
820.86	129.545
821.16	148.837
821.46	141.026
821.76	114.000
822.07	160.000
822.37	130.000
822.67	157.576
822.97	109.804
823.27	178.571
823.57	159.459
823.88	132.500
824.18	206.667
824.48	157.143
824.78	160.000
825.08	158.333
825.38	121.622
825.69	143.902
825.99	229.167
826.29	148.276
826.59	155.263
826.89	155.263
827.19	152.941
827.49	180.645
827.79	145.455
828.09	111.364
828.39	110.638
828.70	116.327
829.00	140.741
829.30	154.839
829.60	145.000
829.90	313.333
830.20	203.571
830.50	221.739
830.80	208.696
831.10	200.000
831.40	176.667
831.70	200.000
832.00	211.538
832.30	237.037
832.60	331.250
832.90	200.000
833.20	378.571
833.50	190.323
833.80	210.345
834.10	178.125
834.40	219.231
834.70	288.889
835.00	280.952
835.30	165.714
835.60	261.538
835.90	196.552
836.20	407.143
836.50	182.759
836.80	140.000
837.10	188.889
837.40	300.000
837.70	305.882
838.00	237.037
838.30	238.095
838.60	300.000
838.90	207.692
839.19	305.000
839.49	392.857
839.79	310.000
840.09	215.000
840.39	233.333
840.69	265.217
840.99	322.222
841.29	490.000
841.59	391.667
841.88	343.750
842.18	165.517
842.48	285.714
842.78	193.333
843.08	282.609
843.38	196.875
843.68	966.667
843.97	207.692
844.27	224.138
844.57	290.476
844.87	368.750
845.17	229.630
845.47	1633.333
845.76	488.889
846.06	347.059
846.36	587.500
846.66	378.571
846.96	287.500
847.25	409.091
847.55	445.455
847.85	265.217
848.15	450.000
848.44	328.571
848.74	288.889
849.04	335.294
849.34	540.000
849.63	263.158
849.93	481.818
850.23	960.000
850.53	421.429
850.82	1700.000
851.12	-4500.000
851.42	4500.000
851.71	335.000
852.01	-1433.333
852.31	262.500
852.61	1633.333
852.90	285.714
853.20	248.000
853.50	317.647
853.79	242.857
854.09	237.500
854.39	287.500
854.68	178.378
854.98	183.871
855.28	183.333
855.57	217.241
855.87	207.407
856.17	263.158
856.46	226.667
856.76	294.118
857.05	200.000
857.35	216.667
857.65	326.667
857.94	256.522
858.24	230.769
858.53	310.000
858.83	177.273
859.13	393.333
859.42	0.000
859.72	677.778
860.01	436.364
860.31	272.727
860.60	326.316
860.90	221.739
861.20	466.667
861.49	500.000
861.79	-4900.000
862.08	600.000
862.38	285.714
862.67	353.846
862.97	364.706
863.26	633.333
863.56	283.333
863.85	375.000
864.15	550.000
864.44	326.667
864.74	716.667
865.03	675.000
865.33	352.632
865.62	545.455
865.92	500.000
866.21	350.000
866.51	0.000
866.80	472.727
867.10	1200.000
867.39	500.000
867.69	481.818
867.98	331.579
868.27	481.818
868.57	305.263
868.86	-4800.000
869.16	350.000
869.45	2700.000
869.75	-4700.000
870.04	441.667
870.33	585.714
870.63	1400.000
870.92	2500.000
871.22	671.429
871.51	364.706
871.80	185.714
872.10	392.857
>>>>>End Processed Spectral Data<<<<<
