SpectraSuite Data File
++++++++++++++++++++++++++++++++++++
Date: Wed May 13 19:15:26 PDT 2015
User: schluterlab
Dark Spectrum Present: Yes
Reference Spectrum Present: Yes
Number of Sampled Component Spectra: 1
Spectrometers: USB2E3373
Integration Time (usec): 3000 (USB2E3373)
Spectra Averaged: 3 (USB2E3373)
Boxcar Smoothing: 0 (USB2E3373)
Correct for Electrical Dark: No (USB2E3373)
Strobe/Lamp Enabled: No (USB2E3373)
Correct for Detector Non-linearity: No (USB2E3373)
Correct for Stray Light: No (USB2E3373)
Number of Pixels in Processed Spectrum: 2048
>>>>>Begin Processed Spectral Data<<<<<
178.53	0.000
178.91	-1450.000
179.29	-1625.000
179.67	-305.556
180.04	-1400.000
180.42	2700.000
180.80	1120.000
181.18	-1300.000
181.56	785.714
181.94	0.000
182.31	-757.143
182.69	2433.333
183.07	-650.000
183.45	-588.889
183.83	581.818
184.20	-500.000
184.58	2550.000
184.96	5900.000
185.34	-920.000
185.72	-687.500
186.09	-2100.000
186.47	2950.000
186.85	2450.000
187.23	5200.000
187.61	-2133.333
187.98	1575.000
188.36	545.455
188.74	581.818
189.12	-1040.000
189.49	570.000
189.87	-5800.000
190.25	-1375.000
190.63	414.286
191.00	492.308
191.38	950.000
191.76	-1325.000
192.14	1450.000
192.51	625.000
192.89	1183.333
193.27	575.000
193.65	-1250.000
194.02	610.000
194.40	1040.000
194.78	590.000
195.15	608.333
195.53	680.000
195.91	-2300.000
196.29	343.750
196.66	363.158
197.04	-480.000
197.42	0.000
197.79	750.000
198.17	-6000.000
198.55	728.571
198.92	800.000
199.30	980.000
199.68	0.000
200.05	355.556
200.43	871.429
200.81	5400.000
201.18	2033.333
201.56	-2033.333
201.94	466.667
202.31	733.333
202.69	466.667
203.07	570.000
203.44	0.000
203.82	1400.000
204.19	885.714
204.57	485.714
204.95	737.500
205.32	1966.667
205.70	563.636
206.08	478.571
206.45	2550.000
206.83	387.500
207.20	866.667
207.58	940.000
207.96	361.111
208.33	862.500
208.71	-1000.000
209.08	914.286
209.46	622.222
209.84	536.364
210.21	-2100.000
210.59	1550.000
210.96	-587.500
211.34	3000.000
211.71	690.000
212.09	900.000
212.46	0.000
212.84	1866.667
213.22	1325.000
213.59	-4800.000
213.97	833.333
214.34	842.857
214.72	590.909
215.09	1320.000
215.47	-2450.000
215.84	-2950.000
216.22	2000.000
216.59	421.429
216.97	1375.000
217.34	509.091
217.72	-783.333
218.09	0.000
218.47	-5600.000
218.84	633.333
219.22	800.000
219.59	2233.333
219.97	-728.571
220.34	1240.000
220.72	-1933.333
221.09	385.714
221.47	1475.000
221.84	-1116.667
222.22	0.000
222.59	1375.000
222.97	-2600.000
223.34	1260.000
223.72	476.923
224.09	1240.000
224.46	3000.000
224.84	-6200.000
225.21	-1120.000
225.59	-5200.000
225.96	690.000
226.34	350.000
226.71	3150.000
227.08	700.000
227.46	590.000
227.83	-1175.000
228.21	-2750.000
228.58	633.333
228.95	-2350.000
229.33	-2850.000
229.70	2000.000
230.08	842.857
230.45	-980.000
230.82	433.333
231.20	1033.333
231.57	728.571
231.95	558.333
232.32	327.273
232.69	463.636
233.07	785.714
233.44	461.538
233.81	-2000.000
234.19	368.421
234.56	516.667
234.93	525.000
235.31	627.273
235.68	461.538
236.05	428.571
236.43	221.212
236.80	305.263
237.17	6600.000
237.55	290.476
237.92	221.429
238.29	357.143
238.67	238.710
239.04	289.655
239.41	183.333
239.79	169.565
240.16	200.000
240.53	175.000
240.91	135.294
241.28	144.000
241.65	146.000
242.02	127.536
242.40	135.484
242.77	133.333
243.14	107.527
243.51	111.236
243.89	112.941
244.26	105.556
244.63	105.376
245.00	98.936
245.38	100.000
245.75	88.785
246.12	91.743
246.49	95.620
246.87	98.400
247.24	90.000
247.61	80.000
247.98	82.353
248.36	75.676
248.73	79.618
249.10	80.892
249.47	70.621
249.84	73.797
250.22	71.123
250.59	79.882
250.96	79.293
251.33	67.773
251.70	78.713
252.08	72.381
252.45	67.265
252.82	62.609
253.19	71.064
253.56	68.627
253.94	71.784
254.31	67.188
254.68	70.769
255.05	63.469
255.42	68.699
255.79	65.809
256.16	67.148
256.54	61.131
256.91	67.972
257.28	62.230
257.65	62.376
258.02	59.627
258.39	61.830
258.76	63.545
259.14	59.524
259.51	61.094
259.88	63.665
260.25	64.653
260.62	60.694
260.99	60.559
261.36	61.261
261.73	63.037
262.10	58.140
262.47	62.535
262.85	56.267
263.22	56.980
263.59	59.259
263.96	59.890
264.33	58.486
264.70	59.474
265.07	58.056
265.44	60.101
265.81	55.231
266.18	56.533
266.55	58.049
266.92	60.688
267.29	57.870
267.66	54.587
268.03	54.318
268.40	55.607
268.77	54.177
269.14	56.081
269.51	56.885
269.88	57.809
270.25	57.111
270.62	57.303
270.99	54.839
271.36	54.506
271.73	57.477
272.10	53.043
272.47	57.634
272.84	54.113
273.21	54.927
273.58	52.838
273.95	50.105
274.32	54.752
274.69	55.246
275.06	55.315
275.43	54.255
275.80	51.904
276.17	52.546
276.54	52.391
276.91	54.150
277.28	52.344
277.65	51.451
278.02	55.072
278.39	52.344
278.76	51.455
279.13	53.585
279.50	49.534
279.87	52.191
280.23	51.896
280.60	51.644
280.97	51.756
281.34	53.097
281.71	50.364
282.08	52.591
282.45	50.182
282.82	50.977
283.19	50.089
283.56	50.351
283.92	49.408
284.29	50.617
284.66	50.635
285.03	46.835
285.40	48.239
285.77	48.485
286.14	48.532
286.51	49.000
286.87	47.521
287.24	48.697
287.61	47.833
287.98	48.539
288.35	45.325
288.72	45.483
289.08	45.070
289.45	45.964
289.82	44.715
290.19	45.683
290.56	43.185
290.93	44.109
291.29	43.558
291.66	41.740
292.03	44.767
292.40	45.081
292.77	41.272
293.13	44.478
293.50	43.440
293.87	41.630
294.24	41.926
294.60	41.339
294.97	40.698
295.34	40.621
295.71	41.335
296.08	40.313
296.44	41.541
296.81	36.724
297.18	41.192
297.55	37.071
297.91	37.863
298.28	40.830
298.65	39.817
299.02	40.975
299.38	39.973
299.75	35.849
300.12	35.888
300.48	37.375
300.85	36.128
301.22	37.707
301.59	36.364
301.95	36.524
302.32	35.302
302.69	36.320
303.05	36.848
303.42	36.790
303.79	34.881
304.15	35.781
304.52	36.037
304.89	35.656
305.25	34.223
305.62	35.108
305.99	35.301
306.35	34.899
306.72	35.874
307.09	35.183
307.45	37.162
307.82	33.036
308.19	33.885
308.55	35.707
308.92	34.801
309.29	34.319
309.65	34.146
310.02	33.932
310.38	34.086
310.75	34.530
311.12	34.596
311.48	34.483
311.85	33.543
312.22	33.507
312.58	35.239
312.95	34.319
313.31	34.175
313.68	35.655
314.05	36.489
314.41	34.573
314.78	35.650
315.14	35.253
315.51	36.148
315.87	33.465
316.24	34.062
316.61	34.503
316.97	36.301
317.34	34.638
317.70	36.520
318.07	35.419
318.43	36.497
318.80	36.364
319.16	36.535
319.53	34.053
319.89	36.381
320.26	37.700
320.62	36.508
320.99	37.475
321.35	37.172
321.72	37.269
322.08	38.105
322.45	39.602
322.81	40.019
323.18	38.536
323.54	39.610
323.91	39.057
324.27	39.101
324.64	38.024
325.00	38.233
325.37	39.672
325.73	39.677
326.10	39.100
326.46	40.412
326.83	40.121
327.19	40.137
327.56	40.767
327.92	41.732
328.29	42.147
328.65	40.516
329.01	41.968
329.38	41.073
329.74	41.828
330.11	42.601
330.47	42.608
330.84	42.371
331.20	41.621
331.56	42.385
331.93	43.796
332.29	41.260
332.66	43.717
333.02	42.048
333.38	41.915
333.75	42.335
334.11	42.171
334.48	42.236
334.84	43.658
335.20	42.818
335.57	43.064
335.93	41.607
336.29	43.315
336.66	44.094
337.02	42.715
337.38	43.333
337.75	43.405
338.11	42.883
338.47	43.738
338.84	43.721
339.20	41.193
339.56	44.069
339.93	43.545
340.29	42.301
340.65	41.533
341.02	43.106
341.38	43.149
341.74	42.719
342.11	40.873
342.47	42.115
342.83	42.551
343.20	42.771
343.56	40.607
343.92	42.719
344.28	42.007
344.65	42.304
345.01	41.919
345.37	41.424
345.73	41.455
346.10	42.370
346.46	41.356
346.82	41.433
347.19	42.022
347.55	42.118
347.91	41.019
348.27	43.303
348.63	43.060
349.00	41.181
349.36	41.133
349.72	40.978
350.08	40.843
350.45	41.660
350.81	40.374
351.17	41.248
351.53	40.049
351.89	40.099
352.26	41.910
352.62	41.379
352.98	41.248
353.34	41.413
353.70	40.098
354.07	40.887
354.43	38.810
354.79	39.019
355.15	40.942
355.51	41.247
355.87	41.551
356.24	40.879
356.60	39.695
356.96	42.076
357.32	41.537
357.68	40.472
358.04	41.647
358.40	39.747
358.77	40.767
359.13	39.227
359.49	40.471
359.85	40.476
360.21	39.394
360.57	41.790
360.93	40.385
361.29	39.909
361.66	39.551
362.02	40.896
362.38	40.456
362.74	40.179
363.10	40.933
363.46	40.205
363.82	42.177
364.18	40.015
364.54	40.490
364.90	40.297
365.26	39.779
365.62	41.417
365.98	40.175
366.35	40.688
366.71	39.696
367.07	40.277
367.43	40.639
367.79	41.113
368.15	40.517
368.51	39.608
368.87	41.328
369.23	39.795
369.59	40.912
369.95	40.809
370.31	40.456
370.67	39.928
371.03	41.273
371.39	41.108
371.75	40.662
372.11	39.616
372.47	42.155
372.83	41.499
373.19	40.535
373.55	41.168
373.91	42.047
374.27	40.756
374.63	40.655
374.99	41.525
375.35	39.846
375.71	40.713
376.07	41.152
376.42	40.646
376.78	42.478
377.14	40.841
377.50	41.987
377.86	41.090
378.22	41.972
378.58	40.602
378.94	41.420
379.30	40.712
379.66	41.942
380.02	41.769
380.38	41.651
380.74	41.116
381.09	41.748
381.45	41.856
381.81	42.506
382.17	41.911
382.53	40.818
382.89	41.790
383.25	43.089
383.61	42.627
383.97	41.526
384.32	41.235
384.68	41.822
385.04	41.364
385.40	42.167
385.76	42.199
386.12	42.552
386.48	42.480
386.83	44.067
387.19	44.156
387.55	43.352
387.91	42.624
388.27	43.041
388.62	41.242
388.98	43.120
389.34	42.240
389.70	42.918
390.06	43.980
390.42	43.450
390.77	43.448
391.13	44.097
391.49	44.543
391.85	43.221
392.20	43.849
392.56	44.444
392.92	44.261
393.28	42.249
393.64	43.825
393.99	44.411
394.35	43.672
394.71	43.287
395.07	42.928
395.42	44.190
395.78	44.529
396.14	44.258
396.50	43.985
396.85	45.200
397.21	44.020
397.57	44.327
397.92	44.952
398.28	43.554
398.64	43.429
399.00	44.992
399.35	43.542
399.71	43.981
400.07	44.766
400.42	44.908
400.78	44.753
401.14	45.671
401.49	45.373
401.85	44.767
402.21	43.713
402.57	44.294
402.92	45.586
403.28	44.909
403.63	45.111
403.99	46.497
404.35	44.485
404.70	45.983
405.06	44.321
405.42	45.914
405.77	45.486
406.13	44.413
406.49	47.014
406.84	45.954
407.20	45.272
407.55	47.224
407.91	46.467
408.27	46.713
408.62	46.297
408.98	46.324
409.34	46.187
409.69	46.645
410.05	46.778
410.40	46.483
410.76	47.013
411.11	46.743
411.47	47.220
411.83	46.854
412.18	46.382
412.54	47.260
412.89	45.904
413.25	47.285
413.60	48.178
413.96	46.509
414.31	46.902
414.67	47.592
415.03	47.881
415.38	47.938
415.74	47.524
416.09	49.118
416.45	48.126
416.80	48.909
417.16	48.928
417.51	49.303
417.87	48.105
418.22	48.707
418.58	48.547
418.93	49.570
419.29	47.549
419.64	50.000
420.00	49.024
420.35	48.174
420.71	50.329
421.06	47.613
421.42	48.304
421.77	48.935
422.12	48.344
422.48	48.516
422.83	49.971
423.19	49.006
423.54	50.029
423.90	49.043
424.25	49.414
424.61	49.048
424.96	50.204
425.31	49.114
425.67	49.101
426.02	48.914
426.38	50.366
426.73	50.322
427.09	49.483
427.44	49.914
427.79	50.546
428.15	49.702
428.50	49.503
428.85	50.834
429.21	50.028
429.56	50.078
429.92	49.925
430.27	49.454
430.62	48.848
430.98	49.403
431.33	50.000
431.68	51.309
432.04	50.586
432.39	50.771
432.74	50.928
433.10	51.669
433.45	51.429
433.80	51.386
434.16	50.160
434.51	49.579
434.86	52.338
435.22	50.584
435.57	52.219
435.92	50.088
436.28	52.135
436.63	51.104
436.98	50.944
437.34	50.805
437.69	52.042
438.04	52.389
438.39	51.164
438.75	52.586
439.10	52.011
439.45	51.181
439.81	52.145
440.16	52.456
440.51	53.076
440.86	52.229
441.22	53.226
441.57	52.229
441.92	51.740
442.27	51.884
442.63	52.027
442.98	54.423
443.33	52.283
443.68	53.330
444.03	52.416
444.39	52.045
444.74	51.786
445.09	52.399
445.44	52.105
445.79	52.152
446.15	52.303
446.50	52.450
446.85	53.649
447.20	52.473
447.55	53.546
447.91	52.565
448.26	53.701
448.61	53.872
448.96	54.928
449.31	53.206
449.66	52.786
450.02	53.538
450.37	52.834
450.72	52.453
451.07	52.712
451.42	52.219
451.77	52.907
452.12	53.522
452.47	53.358
452.83	53.497
453.18	53.606
453.53	53.309
453.88	54.460
454.23	52.062
454.58	54.270
454.93	54.355
455.28	51.995
455.63	53.823
455.98	54.583
456.34	51.947
456.69	52.786
457.04	52.941
457.39	53.185
457.74	53.511
458.09	52.444
458.44	53.022
458.79	51.356
459.14	53.781
459.49	54.699
459.84	52.521
460.19	52.917
460.54	52.025
460.89	53.099
461.24	53.188
461.59	53.922
461.94	52.836
462.29	53.769
462.64	53.159
462.99	53.221
463.34	53.267
463.69	53.846
464.04	54.261
464.39	53.043
464.74	53.714
465.09	53.076
465.44	52.576
465.79	53.132
466.14	52.107
466.49	52.113
466.84	53.940
467.19	53.470
467.54	53.625
467.89	53.601
468.24	52.356
468.59	54.151
468.94	52.352
469.29	55.527
469.64	54.752
469.99	53.518
470.34	52.576
470.68	54.382
471.03	53.401
471.38	54.413
471.73	55.430
472.08	54.605
472.43	53.706
472.78	54.049
473.13	53.209
473.48	53.870
473.83	54.390
474.17	53.454
474.52	55.273
474.87	53.999
475.22	53.337
475.57	52.391
475.92	52.947
476.27	53.551
476.61	53.337
476.96	53.216
477.31	53.428
477.66	54.267
478.01	52.640
478.36	53.940
478.70	54.050
479.05	52.503
479.40	53.480
479.75	53.330
480.10	53.131
480.45	52.213
480.79	52.652
481.14	53.376
481.49	52.966
481.84	52.583
482.19	53.430
482.53	53.716
482.88	53.094
483.23	53.318
483.58	53.139
483.92	53.749
484.27	51.198
484.62	52.198
484.97	51.163
485.31	52.568
485.66	51.696
486.01	50.184
486.36	49.243
486.70	48.353
487.05	48.737
487.40	50.460
487.75	51.670
488.09	52.442
488.44	52.101
488.79	53.779
489.13	52.827
489.48	52.692
489.83	51.791
490.17	52.828
490.52	51.196
490.87	52.284
491.22	52.160
491.56	51.162
491.91	52.257
492.26	51.814
492.60	50.922
492.95	51.497
493.30	50.607
493.64	52.217
493.99	51.021
494.34	51.434
494.68	52.381
495.03	51.034
495.37	51.047
495.72	52.339
496.07	52.761
496.41	50.265
496.76	51.231
497.11	51.013
497.45	51.747
497.80	51.679
498.14	51.932
498.49	52.195
498.84	51.582
499.18	51.952
499.53	50.902
499.87	51.957
500.22	51.154
500.56	52.087
500.91	51.587
501.26	52.015
501.60	53.204
501.95	51.650
502.29	51.874
502.64	52.467
502.98	52.174
503.33	51.051
503.67	51.879
504.02	53.274
504.36	51.848
504.71	52.467
505.06	52.819
505.40	52.504
505.75	51.929
506.09	52.527
506.44	52.935
506.78	52.265
507.13	53.660
507.47	52.323
507.82	53.242
508.16	53.546
508.51	54.186
508.85	51.887
509.19	53.418
509.54	52.857
509.88	53.529
510.23	55.476
510.57	54.489
510.92	55.256
511.26	53.135
511.61	53.683
511.95	53.497
512.30	54.242
512.64	54.272
512.98	54.234
513.33	54.283
513.67	53.735
514.02	53.842
514.36	55.598
514.70	55.672
515.05	54.378
515.39	55.300
515.74	54.842
516.08	55.729
516.42	55.549
516.77	55.797
517.11	54.939
517.46	55.079
517.80	56.330
518.14	55.588
518.49	55.951
518.83	55.057
519.17	55.543
519.52	55.348
519.86	55.961
520.20	57.052
520.55	57.391
520.89	57.056
521.23	58.384
521.58	57.083
521.92	56.583
522.26	54.790
522.61	57.259
522.95	55.985
523.29	55.691
523.64	57.195
523.98	57.979
524.32	56.514
524.66	57.186
525.01	57.904
525.35	56.691
525.69	56.589
526.04	57.072
526.38	58.328
526.72	56.810
527.06	59.134
527.41	55.260
527.75	58.392
528.09	58.960
528.43	56.533
528.78	57.468
529.12	58.424
529.46	57.869
529.80	58.478
530.15	58.318
530.49	56.985
530.83	57.848
531.17	58.747
531.51	59.209
531.86	58.516
532.20	58.801
532.54	57.207
532.88	59.564
533.22	56.964
533.57	58.086
533.91	57.194
534.25	58.141
534.59	57.474
534.93	57.823
535.27	58.057
535.62	58.120
535.96	58.632
536.30	58.423
536.64	58.467
536.98	58.859
537.32	57.999
537.66	58.667
538.01	58.789
538.35	58.048
538.69	59.860
539.03	58.350
539.37	59.042
539.71	55.930
540.05	59.804
540.39	59.203
540.73	56.662
541.07	58.793
541.42	58.904
541.76	58.968
542.10	58.021
542.44	59.470
542.78	59.486
543.12	58.157
543.46	57.508
543.80	58.556
544.14	57.831
544.48	58.730
544.82	58.627
545.16	58.295
545.50	58.098
545.84	57.997
546.18	58.990
546.52	58.775
546.86	58.557
547.20	57.721
547.54	57.047
547.88	58.801
548.22	57.472
548.56	57.987
548.90	57.042
549.24	58.721
549.58	59.550
549.92	57.692
550.26	60.369
550.60	58.230
550.94	58.099
551.28	56.986
551.62	58.303
551.96	57.754
552.30	58.908
552.64	58.621
552.98	57.627
553.32	57.788
553.66	58.214
554.00	58.476
554.34	57.488
554.68	59.084
555.02	57.969
555.36	58.594
555.69	58.254
556.03	58.883
556.37	58.390
556.71	57.435
557.05	57.353
557.39	58.572
557.73	58.080
558.07	58.883
558.41	58.611
558.75	58.486
559.08	57.793
559.42	59.864
559.76	57.868
560.10	57.173
560.44	57.372
560.78	56.154
561.12	57.784
561.45	57.040
561.79	58.339
562.13	57.679
562.47	58.402
562.81	57.601
563.15	56.722
563.48	57.493
563.82	57.208
564.16	57.750
564.50	56.901
564.84	56.005
565.17	57.529
565.51	57.444
565.85	56.726
566.19	56.168
566.52	58.581
566.86	55.877
567.20	57.901
567.54	57.477
567.88	55.676
568.21	56.667
568.55	56.218
568.89	56.955
569.23	56.729
569.56	55.830
569.90	56.038
570.24	55.364
570.57	54.573
570.91	54.460
571.25	54.787
571.59	54.050
571.92	54.724
572.26	55.633
572.60	55.135
572.93	53.943
573.27	55.457
573.61	54.634
573.95	55.375
574.28	54.296
574.62	54.397
574.96	54.456
575.29	54.462
575.63	54.548
575.97	55.715
576.30	54.514
576.64	54.738
576.98	54.327
577.31	54.436
577.65	54.875
577.98	53.961
578.32	53.594
578.66	54.507
578.99	54.805
579.33	54.708
579.67	54.196
580.00	54.471
580.34	55.695
580.67	54.502
581.01	55.003
581.35	54.796
581.68	54.082
582.02	53.490
582.35	53.978
582.69	53.951
583.02	54.154
583.36	54.877
583.70	55.495
584.03	55.042
584.37	56.574
584.70	56.165
585.04	55.235
585.37	54.823
585.71	54.182
586.04	54.554
586.38	55.617
586.72	54.736
587.05	54.876
587.39	54.380
587.72	54.883
588.06	55.149
588.39	54.787
588.73	55.119
589.06	56.466
589.40	56.027
589.73	56.318
590.07	55.338
590.40	55.133
590.73	55.933
591.07	57.387
591.40	55.968
591.74	56.104
592.07	56.632
592.41	55.105
592.74	54.232
593.08	54.264
593.41	54.255
593.75	53.217
594.08	53.973
594.41	54.330
594.75	55.009
595.08	54.438
595.42	54.466
595.75	55.021
596.09	54.713
596.42	55.049
596.75	55.678
597.09	55.671
597.42	55.354
597.75	55.757
598.09	55.130
598.42	53.995
598.76	54.844
599.09	54.276
599.42	54.731
599.76	54.575
600.09	54.244
600.42	54.054
600.76	53.179
601.09	53.661
601.42	54.528
601.76	53.776
602.09	54.111
602.42	54.260
602.76	54.534
603.09	54.367
603.42	55.486
603.76	54.535
604.09	53.509
604.42	54.749
604.76	54.618
605.09	54.784
605.42	54.681
605.75	54.719
606.09	54.331
606.42	54.516
606.75	53.754
607.09	53.956
607.42	54.942
607.75	53.460
608.08	54.538
608.42	54.056
608.75	53.652
609.08	54.024
609.41	53.070
609.75	54.455
610.08	54.336
610.41	53.864
610.74	54.636
611.07	54.891
611.41	53.827
611.74	55.103
612.07	53.623
612.40	54.932
612.73	53.579
613.07	55.226
613.40	54.976
613.73	53.540
614.06	54.624
614.39	53.120
614.72	53.158
615.06	53.729
615.39	53.875
615.72	53.221
616.05	53.589
616.38	54.086
616.71	54.988
617.05	55.065
617.38	54.901
617.71	55.556
618.04	54.688
618.37	54.760
618.70	54.449
619.03	55.592
619.36	54.650
619.69	53.239
620.03	54.533
620.36	54.545
620.69	55.205
621.02	54.794
621.35	54.738
621.68	54.829
622.01	55.573
622.34	55.068
622.67	55.589
623.00	53.999
623.33	53.538
623.66	55.182
623.99	55.744
624.32	54.779
624.65	53.814
624.99	53.895
625.32	53.440
625.65	54.020
625.98	56.188
626.31	54.355
626.64	55.755
626.97	57.024
627.30	55.029
627.63	53.404
627.96	55.425
628.29	55.556
628.62	55.718
628.95	56.604
629.28	54.562
629.61	55.637
629.94	57.524
630.26	56.816
630.59	55.195
630.92	54.789
631.25	56.367
631.58	54.555
631.91	54.665
632.24	55.907
632.57	54.984
632.90	55.482
633.23	55.928
633.56	55.141
633.89	54.926
634.22	53.121
634.55	56.923
634.88	56.886
635.20	59.140
635.53	57.349
635.86	56.683
636.19	55.294
636.52	55.825
636.85	54.410
637.18	54.378
637.51	56.856
637.83	53.268
638.16	56.138
638.49	55.668
638.82	55.879
639.15	56.375
639.48	54.738
639.81	56.971
640.13	56.641
640.46	56.376
640.79	54.029
641.12	53.645
641.45	56.006
641.77	57.290
642.10	56.579
642.43	55.856
642.76	58.204
643.09	57.055
643.41	55.842
643.74	58.025
644.07	55.640
644.40	55.675
644.73	57.008
645.05	59.271
645.38	54.186
645.71	56.683
646.04	59.302
646.36	57.930
646.69	58.027
647.02	55.952
647.35	57.732
647.67	57.522
648.00	55.447
648.33	55.776
648.66	54.697
648.98	57.121
649.31	55.306
649.64	56.801
649.96	54.844
650.29	55.134
650.62	55.825
650.94	56.564
651.27	55.912
651.60	55.075
651.92	56.230
652.25	54.560
652.58	56.698
652.90	57.188
653.23	53.775
653.56	54.488
653.88	57.528
654.21	56.556
654.54	60.231
654.86	57.788
655.19	52.297
655.52	42.379
655.84	41.225
656.17	54.445
656.49	74.060
656.82	76.727
657.15	58.786
657.47	43.983
657.80	34.150
658.13	35.816
658.45	54.008
658.78	54.272
659.10	56.712
659.43	59.735
659.75	61.769
660.08	65.316
660.41	67.877
660.73	66.582
661.06	62.261
661.38	62.909
661.71	62.115
662.03	60.552
662.36	55.467
662.68	56.225
663.01	58.182
663.33	57.325
663.66	58.613
663.98	61.123
664.31	58.824
664.63	54.656
664.96	55.936
665.28	57.787
665.61	56.920
665.93	57.344
666.26	54.767
666.58	59.414
666.91	56.025
667.23	64.270
667.56	59.611
667.88	58.547
668.21	57.143
668.53	56.399
668.86	58.874
669.18	58.209
669.50	56.304
669.83	58.824
670.15	57.111
670.48	58.606
670.80	55.819
671.13	56.900
671.45	54.681
671.77	60.692
672.10	54.159
672.42	53.180
672.75	54.063
673.07	57.042
673.39	56.781
673.72	57.227
674.04	58.431
674.37	55.728
674.69	57.873
675.01	57.741
675.34	57.290
675.66	57.895
675.98	54.175
676.31	54.202
676.63	56.688
676.95	53.669
677.28	57.243
677.60	55.385
677.92	58.861
678.25	56.468
678.57	54.980
678.89	58.517
679.22	54.420
679.54	55.344
679.86	54.312
680.18	53.846
680.51	56.383
680.83	57.295
681.15	55.472
681.48	56.522
681.80	56.093
682.12	54.981
682.44	53.965
682.77	61.100
683.09	59.442
683.41	58.093
683.73	58.057
684.06	57.438
684.38	53.816
684.70	55.233
685.02	54.597
685.34	55.128
685.67	51.573
685.99	54.811
686.31	54.096
686.63	52.473
686.96	55.893
687.28	58.303
687.60	53.261
687.92	55.393
688.24	55.133
688.56	57.229
688.89	58.921
689.21	58.734
689.53	56.576
689.85	57.428
690.17	51.760
690.49	56.263
690.82	56.308
691.14	58.259
691.46	52.954
691.78	52.811
692.10	54.339
692.42	54.890
692.74	56.224
693.06	54.043
693.39	56.879
693.71	57.424
694.03	54.105
694.35	55.628
694.67	54.691
694.99	59.268
695.31	56.127
695.63	56.220
695.95	55.990
696.27	59.391
696.59	59.326
696.91	58.549
697.23	55.634
697.56	55.650
697.88	50.716
698.20	52.083
698.52	54.839
698.84	55.234
699.16	56.221
699.48	58.670
699.80	56.280
700.12	60.519
700.44	58.886
700.76	56.354
701.08	61.207
701.40	60.335
701.72	60.058
702.04	61.648
702.36	55.524
702.68	60.340
703.00	59.557
703.32	55.319
703.64	53.619
703.96	58.217
704.28	59.884
704.60	59.824
704.91	61.721
705.23	59.824
705.55	62.458
705.87	63.455
706.19	60.424
706.51	59.502
706.83	56.364
707.15	57.703
707.47	56.818
707.79	57.494
708.11	55.936
708.43	58.095
708.74	56.888
709.06	58.442
709.38	55.906
709.70	62.791
710.02	60.534
710.34	58.788
710.66	57.612
710.98	54.545
711.29	58.140
711.61	61.062
711.93	59.295
712.25	61.415
712.57	61.765
712.89	62.976
713.20	58.967
713.52	61.842
713.84	58.861
714.16	57.317
714.48	55.747
714.80	62.006
715.11	57.349
715.43	59.644
715.75	57.101
716.07	59.425
716.39	62.069
716.70	56.146
717.02	63.309
717.34	56.184
717.66	67.537
717.97	66.534
718.29	62.963
718.61	60.219
718.93	64.338
719.24	61.592
719.56	55.593
719.88	61.695
720.20	59.797
720.51	59.233
720.83	61.338
721.15	58.582
721.46	57.447
721.78	62.366
722.10	65.660
722.42	65.789
722.73	65.169
723.05	64.754
723.37	59.919
723.68	59.073
724.00	62.195
724.32	63.710
724.63	61.789
724.95	59.414
725.27	59.109
725.58	62.500
725.90	61.314
726.22	64.151
726.53	60.764
726.85	61.433
727.16	59.431
727.48	59.574
727.80	62.500
728.11	63.768
728.43	63.846
728.74	59.498
729.06	65.328
729.38	62.868
729.69	65.125
730.01	54.949
730.32	61.806
730.64	58.194
730.96	56.436
731.27	61.921
731.59	58.716
731.90	55.977
732.22	58.075
732.53	55.418
732.85	57.051
733.16	55.305
733.48	56.478
733.80	61.364
734.11	58.599
734.43	53.846
734.74	54.571
735.06	53.582
735.37	60.694
735.69	57.325
736.00	59.804
736.32	61.682
736.63	57.827
736.95	55.911
737.26	57.143
737.58	53.226
737.89	57.860
738.21	61.433
738.52	62.500
738.83	54.340
739.15	61.538
739.46	57.664
739.78	63.542
740.09	59.077
740.41	59.677
740.72	57.840
741.04	62.222
741.35	64.167
741.66	63.556
741.98	64.623
742.29	63.158
742.61	64.224
742.92	66.063
743.23	61.966
743.55	60.400
743.86	60.526
744.18	65.044
744.49	66.986
744.80	61.972
745.12	65.455
745.43	61.674
745.74	63.964
746.06	66.514
746.37	64.126
746.68	67.873
747.00	63.889
747.31	63.810
747.62	58.850
747.94	63.877
748.25	62.979
748.56	62.996
748.88	69.307
749.19	66.500
749.50	63.721
749.82	63.008
750.13	59.592
750.44	56.934
750.75	58.947
751.07	57.878
751.38	62.021
751.69	60.650
752.01	63.534
752.32	57.040
752.63	57.092
752.94	67.213
753.26	68.400
753.57	56.504
753.88	65.234
754.19	57.143
754.51	60.417
754.82	58.484
755.13	58.868
755.44	64.662
755.75	56.569
756.07	52.837
756.38	53.285
756.69	59.732
757.00	56.587
757.31	52.819
757.63	51.170
757.94	52.279
758.25	52.451
758.56	52.099
758.87	53.226
759.18	54.848
759.50	55.172
759.81	53.894
760.12	52.187
760.43	55.301
760.74	51.902
761.05	54.802
761.36	53.209
761.67	58.807
761.99	50.932
762.30	61.458
762.61	63.359
762.92	59.375
763.23	59.664
763.54	65.200
763.85	51.172
764.16	62.692
764.47	59.316
764.78	55.477
765.10	55.380
765.41	56.637
765.72	53.293
766.03	57.367
766.34	52.333
766.65	68.085
766.96	63.248
767.27	70.051
767.58	76.042
767.89	65.789
768.20	74.138
768.51	62.437
768.82	61.468
769.13	58.943
769.44	59.514
769.75	64.378
770.06	66.972
770.37	66.516
770.68	57.407
770.99	59.111
771.30	54.918
771.61	68.161
771.92	61.475
772.23	64.286
772.54	67.179
772.85	68.586
773.16	71.809
773.47	64.674
773.78	70.051
774.09	69.048
774.39	69.591
774.70	62.963
775.01	83.333
775.32	75.817
775.63	69.079
775.94	72.662
776.25	92.126
776.56	76.866
776.87	86.066
777.18	78.906
777.48	80.916
777.79	86.364
778.10	75.556
778.41	93.750
778.72	74.453
779.03	69.799
779.34	74.497
779.65	70.270
779.95	73.006
780.26	77.778
780.57	70.345
780.88	87.500
781.19	72.180
781.50	72.297
781.80	71.698
782.11	69.492
782.42	66.456
782.73	63.804
783.04	77.703
783.34	82.394
783.65	78.767
783.96	73.134
784.27	72.028
784.57	75.540
784.88	75.000
785.19	87.302
785.50	87.736
785.81	78.358
786.11	89.344
786.42	78.295
786.73	76.106
787.04	95.283
787.34	81.250
787.65	94.000
787.96	94.595
788.26	79.339
788.57	94.068
788.88	88.430
789.19	79.167
789.49	81.061
789.80	84.733
790.11	101.905
790.41	85.149
790.72	113.253
791.03	95.652
791.33	93.023
791.64	92.784
791.95	98.020
792.25	111.111
792.56	102.597
792.87	108.974
793.17	127.848
793.48	97.701
793.79	102.299
794.09	103.409
794.40	78.151
794.70	86.029
795.01	68.889
795.32	73.381
795.62	80.315
795.93	80.172
796.23	79.646
796.54	104.706
796.85	102.703
797.15	130.986
797.46	101.515
797.76	109.639
798.07	101.266
798.37	106.154
798.68	119.697
798.99	102.817
799.29	111.688
799.60	94.318
799.90	127.397
800.21	135.821
800.51	127.586
800.82	140.351
801.12	126.230
801.43	130.303
801.73	114.865
802.04	123.810
802.34	92.593
802.65	110.938
802.95	132.203
803.26	125.000
803.56	105.714
803.87	116.923
804.17	94.118
804.48	133.333
804.78	118.966
805.09	111.765
805.39	142.308
805.70	117.857
806.00	142.623
806.30	116.667
806.61	104.878
806.91	89.873
807.22	110.526
807.52	105.970
807.83	118.310
808.13	112.500
808.43	126.667
808.74	84.211
809.04	124.638
809.35	98.507
809.65	102.632
809.95	129.032
810.26	128.814
810.56	114.286
810.86	175.000
811.17	166.667
811.47	143.333
811.77	138.889
812.08	134.545
812.38	140.000
812.69	180.556
812.99	184.091
813.29	132.653
813.59	135.714
813.90	159.184
814.20	150.909
814.50	98.462
814.81	132.353
815.11	138.776
815.41	127.869
815.72	159.524
816.02	145.455
816.32	180.952
816.62	167.500
816.93	170.732
817.23	188.095
817.53	168.182
817.84	196.970
818.14	165.217
818.44	135.556
818.74	200.000
819.04	197.500
819.35	202.857
819.65	223.529
819.95	239.286
820.25	285.000
820.56	200.000
820.86	168.182
821.16	151.163
821.46	174.359
821.76	164.000
822.07	194.286
822.37	175.000
822.67	212.121
822.97	133.333
823.27	260.714
823.57	156.757
823.88	175.000
824.18	243.333
824.48	161.905
824.78	232.000
825.08	283.333
825.38	186.486
825.69	153.659
825.99	275.000
826.29	196.552
826.59	186.842
826.89	176.316
827.19	202.941
827.49	209.677
827.79	154.545
828.09	147.727
828.39	144.681
828.70	151.020
829.00	211.111
829.30	235.484
829.60	162.500
829.90	400.000
830.20	264.286
830.50	230.435
830.80	260.870
831.10	236.667
831.40	196.667
831.70	256.522
832.00	219.231
832.30	240.741
832.60	356.250
832.90	236.667
833.20	442.857
833.50	209.677
833.80	231.034
834.10	225.000
834.40	276.923
834.70	300.000
835.00	323.810
835.30	217.143
835.60	361.538
835.90	196.552
836.20	328.571
836.50	220.690
836.80	208.000
837.10	219.444
837.40	266.667
837.70	364.706
838.00	225.926
838.30	276.190
838.60	285.714
838.90	253.846
839.19	280.000
839.49	392.857
839.79	345.000
840.09	345.000
840.39	328.571
840.69	300.000
840.99	311.111
841.29	500.000
841.59	408.333
841.88	387.500
842.18	203.448
842.48	376.190
842.78	220.000
843.08	304.348
843.38	215.625
843.68	900.000
843.97	230.769
844.27	241.379
844.57	338.095
844.87	331.250
845.17	277.778
845.47	1733.333
845.76	522.222
846.06	329.412
846.36	562.500
846.66	428.571
846.96	343.750
847.25	409.091
847.55	536.364
847.85	300.000
848.15	590.000
848.44	457.143
848.74	338.889
849.04	405.882
849.34	580.000
849.63	263.158
849.93	536.364
850.23	1140.000
850.53	457.143
850.82	2700.000
851.12	-5300.000
851.42	6000.000
851.71	290.000
852.01	-1566.667
852.31	258.333
852.61	1866.667
852.90	338.095
853.20	268.000
853.50	329.412
853.79	300.000
854.09	300.000
854.39	375.000
854.68	202.703
854.98	241.935
855.28	193.333
855.57	244.828
855.87	274.074
856.17	257.895
856.46	266.667
856.76	270.588
857.05	210.345
857.35	283.333
857.65	340.000
857.94	239.130
858.24	242.308
858.53	335.000
858.83	290.909
859.13	380.000
859.42	0.000
859.72	677.778
860.01	518.182
860.31	272.727
860.60	305.263
860.90	273.913
861.20	588.889
861.49	533.333
861.79	-5300.000
862.08	737.500
862.38	300.000
862.67	346.154
862.97	358.824
863.26	688.889
863.56	311.111
863.85	441.667
864.15	625.000
864.44	453.333
864.74	1100.000
865.03	725.000
865.33	342.105
865.62	590.909
865.92	476.923
866.21	491.667
866.51	0.000
866.80	509.091
867.10	1200.000
867.39	453.846
867.69	554.545
867.98	310.526
868.27	554.545
868.57	278.947
868.86	-4800.000
869.16	418.750
869.45	2600.000
869.75	-4900.000
870.04	450.000
870.33	828.571
870.63	1150.000
870.92	2650.000
871.22	928.571
871.51	441.176
871.80	266.667
872.10	421.429
>>>>>End Processed Spectral Data<<<<<
