SpectraSuite Data File
++++++++++++++++++++++++++++++++++++
Date: Wed May 13 19:34:09 PDT 2015
User: schluterlab
Dark Spectrum Present: Yes
Reference Spectrum Present: Yes
Number of Sampled Component Spectra: 1
Spectrometers: USB2E3373
Integration Time (usec): 3000 (USB2E3373)
Spectra Averaged: 3 (USB2E3373)
Boxcar Smoothing: 0 (USB2E3373)
Correct for Electrical Dark: No (USB2E3373)
Strobe/Lamp Enabled: No (USB2E3373)
Correct for Detector Non-linearity: No (USB2E3373)
Correct for Stray Light: No (USB2E3373)
Number of Pixels in Processed Spectrum: 2048
>>>>>Begin Processed Spectral Data<<<<<
178.53	0.000
178.91	-1250.000
179.29	-1325.000
179.67	-255.556
180.04	-1350.000
180.42	3200.000
180.80	1080.000
181.18	-1300.000
181.56	728.571
181.94	0.000
182.31	-714.286
182.69	1900.000
183.07	-575.000
183.45	-566.667
183.83	572.727
184.20	-500.000
184.58	2450.000
184.96	5600.000
185.34	-1000.000
185.72	-600.000
186.09	-2450.000
186.47	2850.000
186.85	3100.000
187.23	5600.000
187.61	-2000.000
187.98	1300.000
188.36	609.091
188.74	572.727
189.12	-1240.000
189.49	590.000
189.87	-5400.000
190.25	-1475.000
190.63	385.714
191.00	507.692
191.38	1033.333
191.76	-1300.000
192.14	1475.000
192.51	812.500
192.89	1116.667
193.27	737.500
193.65	-1250.000
194.02	620.000
194.40	1000.000
194.78	620.000
195.15	575.000
195.53	670.000
195.91	-2350.000
196.29	412.500
196.66	305.263
197.04	-390.000
197.42	0.000
197.79	680.000
198.17	-5400.000
198.55	857.143
198.92	750.000
199.30	1100.000
199.68	0.000
200.05	366.667
200.43	828.571
200.81	4600.000
201.18	1566.667
201.56	-1866.667
201.94	677.778
202.31	500.000
202.69	500.000
203.07	570.000
203.44	0.000
203.82	1275.000
204.19	614.286
204.57	428.571
204.95	637.500
205.32	1366.667
205.70	600.000
206.08	357.143
206.45	2800.000
206.83	393.750
207.20	1033.333
207.58	1000.000
207.96	355.556
208.33	737.500
208.71	-983.333
209.08	871.429
209.46	766.667
209.84	536.364
210.21	-1566.667
210.59	1600.000
210.96	-525.000
211.34	2800.000
211.71	620.000
212.09	866.667
212.46	0.000
212.84	1733.333
213.22	1325.000
213.59	-4900.000
213.97	883.333
214.34	814.286
214.72	654.545
215.09	1140.000
215.47	-2950.000
215.84	-2500.000
216.22	2033.333
216.59	400.000
216.97	1450.000
217.34	463.636
217.72	-700.000
218.09	0.000
218.47	-5300.000
218.84	588.889
219.22	1000.000
219.59	1700.000
219.97	-657.143
220.34	1240.000
220.72	-1966.667
221.09	457.143
221.47	1550.000
221.84	-833.333
222.22	0.000
222.59	1225.000
222.97	-2900.000
223.34	1000.000
223.72	484.615
224.09	1040.000
224.46	2300.000
224.84	-4600.000
225.21	-980.000
225.59	-6000.000
225.96	700.000
226.34	365.000
226.71	2850.000
227.08	762.500
227.46	670.000
227.83	-1275.000
228.21	-2500.000
228.58	566.667
228.95	-3050.000
229.33	-2650.000
229.70	1800.000
230.08	857.143
230.45	-960.000
230.82	516.667
231.20	883.333
231.57	771.429
231.95	500.000
232.32	245.455
232.69	427.273
233.07	842.857
233.44	461.538
233.81	-1633.333
234.19	336.842
234.56	491.667
234.93	383.333
235.31	454.545
235.68	415.385
236.05	428.571
236.43	145.455
236.80	278.947
237.17	4300.000
237.55	233.333
237.92	196.429
238.29	233.333
238.67	190.323
239.04	196.552
239.41	133.333
239.79	113.043
240.16	140.476
240.53	131.818
240.91	88.235
241.28	106.000
241.65	84.000
242.02	85.507
242.40	83.871
242.77	86.667
243.14	64.516
243.51	68.539
243.89	62.353
244.26	56.667
244.63	56.989
245.00	52.128
245.38	59.406
245.75	36.449
246.12	35.780
246.49	46.715
246.87	54.400
247.24	50.000
247.61	45.000
247.98	37.255
248.36	31.081
248.73	37.580
249.10	35.032
249.47	29.379
249.84	36.898
250.22	35.294
250.59	37.278
250.96	34.848
251.33	27.014
251.70	31.683
252.08	29.524
252.45	29.596
252.82	26.087
253.19	27.660
253.56	21.176
253.94	25.311
254.31	23.828
254.68	27.308
255.05	25.461
255.42	22.764
255.79	20.221
256.16	24.188
256.54	22.261
256.91	24.199
257.28	20.504
257.65	23.432
258.02	24.224
258.39	20.189
258.76	19.732
259.14	20.238
259.51	16.413
259.88	16.149
260.25	22.054
260.62	20.520
260.99	17.702
261.36	18.619
261.73	16.332
262.10	19.186
262.47	19.155
262.85	16.435
263.22	14.815
263.59	18.519
263.96	15.934
264.33	17.755
264.70	16.053
265.07	15.345
265.44	16.414
265.81	14.599
266.18	16.080
266.55	16.341
266.92	14.251
267.29	15.278
267.66	15.138
268.03	13.636
268.40	16.589
268.77	13.365
269.14	13.514
269.51	13.770
269.88	12.354
270.25	13.995
270.62	17.303
270.99	15.484
271.36	15.880
271.73	12.150
272.10	13.696
272.47	15.484
272.84	10.823
273.21	16.352
273.58	11.790
273.95	12.369
274.32	10.950
274.69	12.634
275.06	11.417
275.43	14.255
275.80	14.228
276.17	13.442
276.54	13.514
276.91	13.636
277.28	12.695
277.65	11.992
278.02	11.801
278.39	15.234
278.76	14.545
279.13	13.396
279.50	15.084
279.87	13.546
280.23	12.974
280.60	11.605
280.97	11.645
281.34	12.566
281.71	13.455
282.08	13.052
282.45	11.455
282.82	11.368
283.19	11.052
283.56	13.509
283.92	11.675
284.29	10.406
284.66	11.434
285.03	11.392
285.40	10.387
285.77	11.111
286.14	11.744
286.51	12.167
286.87	12.991
287.24	12.541
287.61	10.273
287.98	12.175
288.35	10.777
288.72	11.215
289.08	10.172
289.45	10.214
289.82	11.545
290.19	9.262
290.56	10.873
290.93	8.006
291.29	11.043
291.66	9.440
292.03	11.337
292.40	11.747
292.77	11.391
293.13	9.403
293.50	10.787
293.87	10.815
294.24	7.852
294.60	8.588
294.97	9.448
295.34	9.450
295.71	9.091
296.08	7.977
296.44	9.354
296.81	9.115
297.18	9.485
297.55	6.860
297.91	7.520
298.28	10.174
298.65	11.227
299.02	10.804
299.38	8.765
299.75	7.008
300.12	7.280
300.48	9.500
300.85	9.248
301.22	8.917
301.59	8.712
301.95	7.683
302.32	8.858
302.69	7.527
303.05	7.515
303.42	7.901
303.79	8.607
304.15	7.459
304.52	7.532
304.89	6.736
305.25	7.773
305.62	8.494
305.99	8.973
306.35	7.159
306.72	6.726
307.09	9.434
307.45	9.122
307.82	6.250
308.19	8.720
308.55	8.414
308.92	7.734
309.29	7.497
309.65	6.469
310.02	7.928
310.38	6.774
310.75	7.286
311.12	8.802
311.48	7.941
311.85	8.386
312.22	8.012
312.58	7.692
312.95	8.237
313.31	6.990
313.68	8.732
314.05	9.961
314.41	9.447
314.78	8.359
315.14	8.838
315.51	8.239
315.87	8.515
316.24	8.937
316.61	8.285
316.97	7.339
317.34	9.100
317.70	9.369
318.07	8.470
318.43	8.708
318.80	10.122
319.16	10.734
319.53	9.662
319.89	10.286
320.26	11.500
320.62	10.813
320.99	12.525
321.35	11.212
321.72	12.320
322.08	12.340
322.45	12.239
322.81	12.984
323.18	12.620
323.54	12.152
323.91	14.340
324.27	12.524
324.64	11.650
325.00	11.903
325.37	13.922
325.73	14.991
326.10	14.122
326.46	13.620
326.83	14.840
327.19	14.518
327.56	15.070
327.92	14.698
328.29	15.528
328.65	16.851
329.01	15.794
329.38	16.004
329.74	15.974
330.11	16.117
330.47	17.264
330.84	17.371
331.20	17.031
331.56	17.156
331.93	16.296
332.29	16.859
332.66	17.434
333.02	17.367
333.38	18.790
333.75	17.469
334.11	17.527
334.48	18.190
334.84	19.485
335.20	18.182
335.57	17.951
335.93	16.696
336.29	17.766
336.66	17.674
337.02	17.195
337.38	18.148
337.75	18.806
338.11	17.726
338.47	19.521
338.84	18.882
339.20	17.706
339.56	17.792
339.93	19.000
340.29	19.565
340.65	18.271
341.02	19.634
341.38	18.861
341.74	18.246
342.11	19.389
342.47	19.824
342.83	18.065
343.20	19.307
343.56	17.607
343.92	19.561
344.28	19.388
344.65	19.003
345.01	19.697
345.37	17.324
345.73	18.443
346.10	19.352
346.46	19.831
346.82	19.522
347.19	20.050
347.55	19.458
347.91	20.712
348.27	19.721
348.63	19.482
349.00	19.094
349.36	20.361
349.72	21.251
350.08	19.368
350.45	19.609
350.81	20.552
351.17	20.989
351.53	20.639
351.89	19.472
352.26	21.310
352.62	20.529
352.98	20.259
353.34	21.364
353.70	19.640
354.07	20.403
354.43	21.032
354.79	21.158
355.15	20.112
355.51	21.902
355.87	20.653
356.24	21.091
356.60	20.529
356.96	20.756
357.32	21.750
357.68	20.472
358.04	20.903
358.40	22.090
358.77	20.892
359.13	20.284
359.49	21.725
359.85	21.270
360.21	20.415
360.57	22.023
360.93	22.231
361.29	22.449
361.66	21.672
362.02	22.313
362.38	21.445
362.74	22.024
363.10	21.392
363.46	21.277
363.82	21.769
364.18	22.761
364.54	22.734
364.90	22.946
365.26	22.574
365.62	22.644
365.98	22.498
366.35	22.923
366.71	21.837
367.07	22.578
367.43	23.004
367.79	24.197
368.15	23.994
368.51	22.529
368.87	23.340
369.23	22.677
369.59	23.461
369.95	22.647
370.31	23.291
370.67	22.826
371.03	24.494
371.39	23.615
371.75	23.235
372.11	22.831
372.47	24.267
372.83	24.207
373.19	22.616
373.55	24.021
373.91	24.521
374.27	24.605
374.63	24.582
374.99	23.941
375.35	21.982
375.71	23.441
376.07	24.486
376.42	25.034
376.78	24.983
377.14	23.609
377.50	23.974
377.86	24.069
378.22	24.463
378.58	23.434
378.94	24.450
379.30	24.682
379.66	24.810
380.02	24.201
380.38	24.408
380.74	25.090
381.09	25.733
381.45	25.814
381.81	25.430
382.17	25.032
382.53	25.157
382.89	25.432
383.25	26.391
383.61	25.651
383.97	25.829
384.32	25.827
384.68	25.774
385.04	25.937
385.40	25.449
385.76	25.860
386.12	26.166
386.48	26.117
386.83	25.786
387.19	26.469
387.55	26.098
387.91	25.756
388.27	26.548
388.62	27.351
388.98	26.229
389.34	26.971
389.70	25.874
390.06	26.806
390.42	27.237
390.77	26.527
391.13	27.377
391.49	27.094
391.85	26.926
392.20	26.814
392.56	27.588
392.92	26.427
393.28	25.740
393.64	27.458
393.99	26.023
394.35	26.737
394.71	26.474
395.07	27.165
395.42	26.267
395.78	26.908
396.14	27.871
396.50	27.820
396.85	27.527
397.21	26.819
397.57	27.216
397.92	27.043
398.28	26.682
398.64	26.762
399.00	26.413
399.35	27.016
399.71	26.563
400.07	27.676
400.42	27.117
400.78	28.046
401.14	26.890
401.49	26.806
401.85	25.953
402.21	26.168
402.57	27.267
402.92	27.743
403.28	27.545
403.63	27.228
403.99	26.178
404.35	26.667
404.70	26.978
405.06	26.966
405.42	26.949
405.77	25.657
406.13	26.749
406.49	26.316
406.84	27.171
407.20	26.241
407.55	26.292
407.91	27.200
408.27	27.824
408.62	26.972
408.98	27.757
409.34	27.737
409.69	27.806
410.05	26.456
410.40	27.095
410.76	25.926
411.11	27.322
411.47	27.412
411.83	27.489
412.18	26.469
412.54	27.522
412.89	26.145
413.25	26.860
413.60	27.610
413.96	25.804
414.31	26.731
414.67	26.806
415.03	27.285
415.38	26.160
415.74	26.881
416.09	27.368
416.45	26.238
416.80	26.570
417.16	26.206
417.51	25.946
417.87	26.397
418.22	26.940
418.58	26.791
418.93	27.211
419.29	26.034
419.64	26.574
420.00	26.463
420.35	25.739
420.71	26.898
421.06	25.537
421.42	26.257
421.77	25.617
422.12	25.211
422.48	25.958
422.83	26.034
423.19	26.409
423.54	26.001
423.90	26.493
424.25	25.684
424.61	25.119
424.96	25.948
425.31	25.194
425.67	25.506
426.02	24.971
426.38	26.374
426.73	24.634
427.09	25.167
427.44	25.762
427.79	25.417
428.15	26.488
428.50	25.746
428.85	25.983
429.21	25.014
429.56	24.780
429.92	24.862
430.27	24.677
430.62	23.707
430.98	24.390
431.33	24.278
431.68	24.869
432.04	23.908
432.39	24.843
432.74	24.177
433.10	24.222
433.45	24.198
433.80	24.667
434.16	24.519
434.51	23.737
434.86	24.572
435.22	24.180
435.57	25.046
435.92	24.693
436.28	24.318
436.63	25.221
436.98	23.526
437.34	24.747
437.69	24.504
438.04	23.440
438.39	24.000
438.75	24.404
439.10	23.575
439.45	23.849
439.81	23.565
440.16	23.038
440.51	24.136
440.86	23.104
441.22	23.582
441.57	23.355
441.92	23.849
442.27	23.197
442.63	22.854
442.98	23.944
443.33	23.587
443.68	23.645
444.03	23.036
444.39	22.639
444.74	23.485
445.09	23.181
445.44	23.346
445.79	22.860
446.15	22.975
446.50	22.294
446.85	22.559
447.20	22.438
447.55	22.948
447.91	22.228
448.26	22.705
448.61	23.120
448.96	22.702
449.31	21.879
449.66	22.228
450.02	22.284
450.37	22.846
450.72	22.786
451.07	22.303
451.42	21.945
451.77	22.666
452.12	21.940
452.47	21.953
452.83	21.678
453.18	22.433
453.53	22.387
453.88	20.910
454.23	21.399
454.58	21.805
454.93	22.759
455.28	22.257
455.63	21.723
455.98	21.964
456.34	21.671
456.69	21.791
457.04	22.229
457.39	21.099
457.74	21.590
458.09	21.507
458.44	21.095
458.79	19.360
459.14	21.219
459.49	21.191
459.84	20.111
460.19	19.682
460.54	19.792
460.89	20.735
461.24	20.704
461.59	20.221
461.94	20.654
462.29	20.356
462.64	20.230
462.99	20.299
463.34	20.400
463.69	19.950
464.04	19.420
464.39	20.000
464.74	19.608
465.09	19.602
465.44	19.280
465.79	20.078
466.14	18.610
466.49	18.854
466.84	19.264
467.19	19.372
467.54	19.625
467.89	19.508
468.24	19.197
468.59	19.536
468.94	17.960
469.29	19.409
469.64	20.214
469.99	18.809
470.34	18.494
470.68	19.756
471.03	18.776
471.38	19.249
471.73	18.521
472.08	19.079
472.43	18.090
472.78	17.841
473.13	17.972
473.48	17.478
473.83	18.537
474.17	17.610
474.52	17.804
474.87	18.564
475.22	17.237
475.57	16.873
475.92	17.207
476.27	17.024
476.61	17.319
476.96	16.438
477.31	16.170
477.66	16.740
478.01	16.362
478.36	16.816
478.70	15.472
479.05	16.880
479.40	16.121
479.75	16.573
480.10	16.402
480.45	15.802
480.79	15.050
481.14	15.509
481.49	15.662
481.84	15.866
482.19	16.220
482.53	15.550
482.88	15.589
483.23	15.093
483.58	15.469
483.92	15.183
484.27	14.423
484.62	14.569
484.97	14.545
485.31	14.315
485.66	13.446
486.01	12.970
486.36	12.407
486.70	12.445
487.05	12.765
487.40	13.202
487.75	13.582
488.09	13.709
488.44	13.175
488.79	14.033
489.13	14.057
489.48	13.418
489.83	14.243
490.17	14.117
490.52	14.172
490.87	14.473
491.22	13.597
491.56	13.394
491.91	13.495
492.26	13.321
492.60	13.502
492.95	13.471
493.30	14.299
493.64	13.859
493.99	13.092
494.34	13.830
494.68	13.782
495.03	13.863
495.37	13.867
495.72	14.133
496.07	13.550
496.41	13.407
496.76	13.105
497.11	12.877
497.45	13.647
497.80	13.100
498.14	13.043
498.49	13.317
498.84	13.758
499.18	12.905
499.53	12.678
499.87	12.721
500.22	13.000
500.56	13.107
500.91	12.308
501.26	13.229
501.60	13.431
501.95	12.328
502.29	13.027
502.64	12.477
502.98	12.576
503.33	12.477
503.67	12.111
504.02	12.862
504.36	13.196
504.71	12.408
505.06	13.060
505.40	12.834
505.75	12.681
506.09	12.196
506.44	12.679
506.78	12.421
507.13	12.367
507.47	13.081
507.82	13.222
508.16	12.361
508.51	12.532
508.85	11.917
509.19	12.704
509.54	12.551
509.88	11.695
510.23	12.288
510.57	13.467
510.92	12.947
511.26	11.973
511.61	12.915
511.95	12.317
512.30	11.400
512.64	12.037
512.98	12.272
513.33	13.116
513.67	12.433
514.02	11.688
514.36	12.234
514.70	12.894
515.05	12.103
515.39	12.339
515.74	12.387
516.08	12.689
516.42	12.986
516.77	12.988
517.11	12.098
517.46	12.528
517.80	12.253
518.14	11.639
518.49	12.602
518.83	12.727
519.17	12.529
519.52	12.054
519.86	12.379
520.20	12.601
520.55	11.849
520.89	12.895
521.23	12.364
521.58	13.085
521.92	13.227
522.26	11.531
522.61	11.776
522.95	11.848
523.29	11.808
523.64	12.317
523.98	12.323
524.32	12.183
524.66	13.109
525.01	12.194
525.35	12.268
525.69	12.746
526.04	12.773
526.38	12.325
526.72	12.577
527.06	13.057
527.41	10.458
527.75	12.283
528.09	12.909
528.43	12.110
528.78	12.354
529.12	11.758
529.46	11.819
529.80	11.881
530.15	12.960
530.49	11.815
530.83	12.342
531.17	12.467
531.51	13.424
531.86	11.484
532.20	12.256
532.54	13.069
532.88	12.259
533.22	12.367
533.57	12.037
533.91	11.921
534.25	11.786
534.59	11.836
534.93	11.243
535.27	12.674
535.62	11.416
535.96	12.492
536.30	10.680
536.64	12.556
536.98	12.342
537.32	11.784
537.66	12.200
538.01	12.179
538.35	11.829
538.69	12.508
539.03	11.761
539.37	11.246
539.71	10.758
540.05	11.634
540.39	12.093
540.73	11.837
541.07	12.914
541.42	12.459
541.76	12.258
542.10	12.484
542.44	11.788
542.78	12.516
543.12	11.068
543.46	11.738
543.80	12.167
544.14	10.719
544.48	12.190
544.82	11.482
545.16	11.451
545.50	10.733
545.84	11.761
546.18	12.189
546.52	11.562
546.86	11.478
547.20	11.531
547.54	11.690
547.88	12.883
548.22	11.582
548.56	10.943
548.90	10.371
549.24	10.774
549.58	12.688
549.92	10.920
550.26	11.932
550.60	11.272
550.94	11.408
551.28	10.973
551.62	11.646
551.96	11.719
552.30	12.014
552.64	11.494
552.98	11.051
553.32	10.789
553.66	12.202
554.00	11.736
554.34	11.870
554.68	12.589
555.02	11.354
555.36	11.830
555.69	10.961
556.03	11.104
556.37	11.119
556.71	10.573
557.05	11.064
557.39	11.477
557.73	11.362
558.07	11.530
558.41	10.492
558.75	11.683
559.08	11.260
559.42	11.338
559.76	11.544
560.10	11.706
560.44	10.622
560.78	10.579
561.12	11.016
561.45	11.017
561.79	10.745
562.13	10.463
562.47	11.749
562.81	11.785
563.15	11.371
563.48	11.141
563.82	11.220
564.16	11.315
564.50	9.310
564.84	11.125
565.17	10.940
565.51	11.310
565.85	10.089
566.19	9.518
566.52	10.956
566.86	10.066
567.20	10.849
567.54	9.874
567.88	10.103
568.21	10.423
568.55	10.162
568.89	9.582
569.23	9.180
569.56	8.826
569.90	8.943
570.24	8.863
570.57	9.045
570.91	8.403
571.25	8.555
571.59	8.542
571.92	8.612
572.26	8.319
572.60	8.378
572.93	8.276
573.27	8.489
573.61	8.654
573.95	8.450
574.28	8.216
574.62	8.455
574.96	8.244
575.29	8.050
575.63	8.460
575.97	8.253
576.30	8.763
576.64	8.314
576.98	8.119
577.31	7.648
577.65	7.709
577.98	7.901
578.32	7.685
578.66	8.092
578.99	8.103
579.33	8.206
579.67	7.760
580.00	7.984
580.34	8.116
580.67	8.225
581.01	8.410
581.35	8.059
581.68	7.867
582.02	7.696
582.35	7.505
582.69	7.921
583.02	8.056
583.36	8.093
583.70	8.217
584.03	8.203
584.37	8.248
584.70	8.229
585.04	8.146
585.37	8.271
585.71	7.965
586.04	8.360
586.38	8.229
586.72	8.727
587.05	8.422
587.39	8.179
587.72	8.374
588.06	8.378
588.39	8.230
588.73	8.126
589.06	8.788
589.40	8.990
589.73	9.011
590.07	8.826
590.40	8.257
590.73	8.314
591.07	9.117
591.40	9.152
591.74	9.740
592.07	9.162
592.41	9.219
592.74	8.727
593.08	8.661
593.41	8.542
593.75	8.307
594.08	8.615
594.41	8.554
594.75	8.872
595.08	8.447
595.42	8.581
595.75	8.440
596.09	9.350
596.42	9.194
596.75	9.540
597.09	9.481
597.42	8.853
597.75	9.401
598.09	9.043
598.42	8.892
598.76	8.634
599.09	8.666
599.42	8.552
599.76	8.821
600.09	8.852
600.42	8.729
600.76	8.179
601.09	8.816
601.42	8.676
601.76	8.539
602.09	8.538
602.42	9.037
602.76	9.190
603.09	8.537
603.42	8.942
603.76	8.651
604.09	8.724
604.42	8.683
604.76	9.321
605.09	9.174
605.42	8.679
605.75	8.940
606.09	8.296
606.42	8.950
606.75	8.876
607.09	9.083
607.42	8.558
607.75	8.650
608.08	8.901
608.42	9.637
608.75	9.107
609.08	9.112
609.41	9.567
609.75	9.004
610.08	9.614
610.41	8.473
610.74	8.893
611.07	9.437
611.41	9.225
611.74	10.055
612.07	10.041
612.40	10.021
612.73	9.789
613.07	9.914
613.40	10.058
613.73	9.544
614.06	9.462
614.39	9.386
614.72	10.000
615.06	10.032
615.39	9.713
615.72	9.407
616.05	8.878
616.38	9.283
616.71	10.154
617.05	10.071
617.38	9.621
617.71	10.090
618.04	10.276
618.37	9.580
618.70	9.770
619.03	10.921
619.36	10.387
619.69	10.775
620.03	11.058
620.36	10.829
620.69	10.616
621.02	9.808
621.35	10.415
621.68	10.358
622.01	10.681
622.34	12.330
622.67	10.646
623.00	9.978
623.33	10.222
623.66	10.936
623.99	11.340
624.32	10.128
624.65	10.311
624.99	9.703
625.32	10.210
625.65	11.044
625.98	11.222
626.31	10.809
626.64	11.510
626.97	11.222
627.30	11.222
627.63	11.895
627.96	11.690
628.29	11.899
628.62	11.528
628.95	13.113
629.28	11.314
629.61	12.924
629.94	11.714
630.26	11.916
630.59	11.916
630.92	11.686
631.25	12.438
631.58	12.212
631.91	11.968
632.24	11.498
632.57	12.487
632.90	11.404
633.23	12.864
633.56	14.350
633.89	13.364
634.22	13.621
634.55	14.320
634.88	12.455
635.20	12.425
635.53	13.133
635.86	13.243
636.19	12.706
636.52	12.687
636.85	12.715
637.18	13.594
637.51	14.303
637.83	11.837
638.16	11.637
638.49	13.980
638.82	13.906
639.15	13.000
639.48	13.217
639.81	13.137
640.13	15.104
640.46	11.678
640.79	13.474
641.12	13.755
641.45	13.687
641.77	14.580
642.10	14.327
642.43	15.315
642.76	13.467
643.09	14.877
643.41	15.630
643.74	15.278
644.07	15.396
644.40	16.564
644.73	15.118
645.05	16.957
645.38	14.376
645.71	16.425
646.04	16.113
646.36	17.696
646.69	14.883
647.02	15.986
647.35	15.464
647.67	14.867
648.00	17.398
648.33	13.531
648.66	14.394
648.98	15.142
649.31	14.200
649.64	15.396
649.96	14.158
650.29	15.324
650.62	13.754
650.94	15.721
651.27	15.372
651.60	15.973
651.92	14.856
652.25	14.495
652.58	15.576
652.90	16.114
653.23	15.871
653.56	14.016
653.88	14.580
654.21	16.272
654.54	15.512
654.86	13.707
655.19	13.514
655.52	7.950
655.84	5.455
656.17	7.090
656.49	9.470
656.82	9.863
657.15	7.683
657.47	5.728
657.80	4.682
658.13	4.656
658.45	7.105
658.78	7.402
659.10	8.034
659.43	8.543
659.75	9.335
660.08	10.190
660.41	12.570
660.73	16.010
661.06	15.446
661.38	16.909
661.71	17.692
662.03	17.554
662.36	16.700
662.68	18.675
663.01	18.384
663.33	17.834
663.66	18.697
663.98	19.006
664.31	15.756
664.63	16.397
664.96	14.889
665.28	18.443
665.61	17.349
665.93	15.694
666.26	16.430
666.58	16.946
666.91	18.182
667.23	19.551
667.56	18.359
667.88	18.162
668.21	17.697
668.53	16.920
668.86	19.481
669.18	21.109
669.50	17.609
669.83	19.172
670.15	18.444
670.48	19.172
670.80	17.888
671.13	18.047
671.45	16.596
671.77	16.904
672.10	18.854
672.42	17.138
672.75	17.081
673.07	14.261
673.39	13.924
673.72	15.430
674.04	17.843
674.37	18.058
674.69	17.996
675.01	14.644
675.34	17.659
675.66	17.895
675.98	17.515
676.31	18.908
676.63	17.197
676.95	18.029
677.28	16.822
677.60	16.923
677.92	20.464
678.25	17.659
678.57	17.530
678.89	15.631
679.22	17.289
679.54	16.794
679.86	15.963
680.18	15.921
680.51	16.667
680.83	16.370
681.15	18.679
681.48	17.580
681.80	15.087
682.12	16.858
682.44	16.441
682.77	17.719
683.09	20.815
683.41	16.408
683.73	17.660
684.06	18.802
684.38	16.634
684.70	16.279
685.02	18.199
685.34	15.018
685.67	13.986
685.99	14.605
686.31	13.993
686.63	14.488
686.96	15.714
687.28	15.523
687.60	13.587
687.92	16.636
688.24	14.639
688.56	18.273
688.89	17.427
689.21	17.467
689.53	16.910
689.85	17.738
690.17	17.184
690.49	19.108
690.82	18.925
691.14	16.518
691.46	15.823
691.78	17.871
692.10	16.942
692.42	17.166
692.74	15.560
693.06	14.043
693.39	18.686
693.71	15.284
694.03	19.158
694.35	18.831
694.67	16.705
694.99	19.024
695.31	19.608
695.63	20.574
695.95	19.804
696.27	20.305
696.59	19.171
696.91	19.689
697.23	15.962
697.56	17.697
697.88	15.542
698.20	17.083
698.52	19.140
698.84	19.154
699.16	16.590
699.48	20.903
699.80	19.082
700.12	21.818
700.44	22.016
700.76	23.481
701.08	20.977
701.40	21.229
701.72	23.907
702.04	27.273
702.36	19.263
702.68	19.830
703.00	22.438
703.32	19.415
703.64	19.035
703.96	23.398
704.28	20.640
704.60	21.408
704.91	19.288
705.23	25.513
705.55	27.243
705.87	28.904
706.19	24.028
706.51	21.495
706.83	26.667
707.15	24.370
707.47	18.182
707.79	21.130
708.11	19.178
708.43	18.095
708.74	18.367
709.06	23.117
709.38	22.047
709.70	24.419
710.02	18.991
710.34	19.697
710.66	21.791
710.98	24.716
711.29	21.512
711.61	23.304
711.93	22.756
712.25	27.974
712.57	26.838
712.89	23.529
713.20	23.404
713.52	25.987
713.84	21.519
714.16	25.000
714.48	22.414
714.80	25.532
715.11	20.173
715.43	19.881
715.75	22.319
716.07	18.211
716.39	21.630
716.70	28.571
717.02	25.180
717.34	24.028
717.66	26.866
717.97	29.482
718.29	25.185
718.61	29.197
718.93	25.368
719.24	24.567
719.56	22.373
719.88	25.424
720.20	28.378
720.51	27.526
720.83	28.253
721.15	22.015
721.46	23.759
721.78	26.882
722.10	27.547
722.42	24.060
722.73	27.341
723.05	26.230
723.37	29.150
723.68	30.116
724.00	25.203
724.32	29.435
724.63	29.268
724.95	25.941
725.27	25.911
725.58	29.297
725.90	26.642
726.22	25.283
726.53	20.833
726.85	26.621
727.16	22.776
727.48	24.468
727.80	25.758
728.11	26.449
728.43	24.231
728.74	25.806
729.06	29.197
729.38	27.206
729.69	27.402
730.01	22.184
730.32	25.000
730.64	22.742
730.96	23.432
731.27	23.510
731.59	18.654
731.90	22.449
732.22	21.739
732.53	20.124
732.85	22.756
733.16	24.759
733.48	24.585
733.80	25.974
734.11	23.248
734.43	22.189
734.74	20.857
735.06	22.350
735.37	26.301
735.69	22.930
736.00	26.471
736.32	24.922
736.63	25.240
736.95	25.240
737.26	21.429
737.58	20.645
737.89	25.084
738.21	24.232
738.52	25.357
738.83	26.038
739.15	25.385
739.46	28.102
739.78	23.611
740.09	24.615
740.41	22.903
740.72	22.648
741.04	25.926
741.35	25.417
741.66	29.778
741.98	26.887
742.29	33.493
742.61	31.466
742.92	28.959
743.23	28.632
743.55	30.800
743.86	32.456
744.18	30.088
744.49	29.665
744.80	32.394
745.12	33.182
745.43	31.278
745.74	32.432
746.06	29.817
746.37	32.287
746.68	31.674
747.00	31.481
747.31	31.905
747.62	26.106
747.94	32.159
748.25	28.085
748.56	32.159
748.88	31.683
749.19	32.500
749.50	33.488
749.82	25.203
750.13	28.980
750.44	32.117
750.75	25.263
751.07	31.833
751.38	29.617
751.69	24.910
752.01	28.947
752.32	24.549
752.63	28.014
752.94	28.279
753.26	30.400
753.57	23.984
753.88	26.953
754.19	27.857
754.51	30.208
754.82	25.271
755.13	27.925
755.44	24.812
755.75	24.088
756.07	24.823
756.38	24.088
756.69	24.497
757.00	22.754
757.31	21.365
757.63	19.591
757.94	21.180
758.25	21.324
758.56	17.037
758.87	20.968
759.18	22.727
759.50	25.078
759.81	22.118
760.12	18.437
760.43	21.490
760.74	18.478
761.05	21.186
761.36	20.053
761.67	25.000
761.99	20.186
762.30	22.917
762.61	23.664
762.92	29.687
763.23	29.412
763.54	30.000
763.85	25.391
764.16	32.308
764.47	27.376
764.78	24.028
765.10	18.987
765.41	24.484
765.72	23.653
766.03	25.392
766.34	24.667
766.65	31.489
766.96	27.778
767.27	37.056
767.58	33.854
767.89	36.316
768.20	41.379
768.51	29.442
768.82	33.945
769.13	28.455
769.44	27.126
769.75	30.043
770.06	28.899
770.37	28.959
770.68	32.870
770.99	28.000
771.30	26.230
771.61	26.457
771.92	34.836
772.23	37.395
772.54	36.410
772.85	36.649
773.16	38.298
773.47	35.870
773.78	40.609
774.09	37.500
774.39	35.088
774.70	41.975
775.01	43.478
775.32	45.752
775.63	43.421
775.94	41.727
776.25	53.543
776.56	44.030
776.87	44.262
777.18	53.125
777.48	51.145
777.79	55.303
778.10	51.852
778.41	49.107
778.72	45.985
779.03	40.940
779.34	42.282
779.65	46.622
779.95	41.104
780.26	47.059
780.57	42.759
780.88	56.250
781.19	48.872
781.50	45.946
781.80	40.881
782.11	38.418
782.42	41.772
782.73	34.969
783.04	45.946
783.34	44.366
783.65	52.055
783.96	47.015
784.27	44.755
784.57	44.604
784.88	49.074
785.19	58.730
785.50	54.717
785.81	53.731
786.11	54.918
786.42	59.690
786.73	52.212
787.04	54.717
787.34	60.714
787.65	53.000
787.96	54.054
788.26	46.281
788.57	59.322
788.88	59.504
789.19	54.167
789.49	54.545
789.80	51.145
790.11	63.810
790.41	58.416
790.72	67.470
791.03	58.696
791.33	65.116
791.64	69.072
791.95	70.297
792.25	80.000
792.56	70.130
792.87	85.897
793.17	89.873
793.48	71.264
793.79	75.862
794.09	62.500
794.40	55.462
794.70	56.618
795.01	48.148
795.32	51.079
795.62	52.756
795.93	62.931
796.23	41.593
796.54	68.235
796.85	82.432
797.15	84.507
797.46	72.727
797.76	83.133
798.07	84.810
798.37	69.231
798.68	92.424
798.99	76.056
799.29	75.325
799.60	61.364
799.90	68.493
800.21	98.507
800.51	101.724
800.82	87.719
801.12	106.557
801.43	101.515
801.73	66.216
802.04	114.286
802.34	83.951
802.65	104.688
802.95	113.559
803.26	96.875
803.56	70.000
803.87	73.846
804.17	95.588
804.48	100.000
804.78	91.379
805.09	102.941
805.39	109.615
805.70	116.071
806.00	96.721
806.30	95.455
806.61	68.293
806.91	74.684
807.22	80.263
807.52	82.090
807.83	100.000
808.13	96.875
808.43	90.000
808.74	73.684
809.04	82.609
809.35	100.000
809.65	86.842
809.95	129.032
810.26	96.610
810.56	95.238
810.86	115.909
811.17	154.762
811.47	135.000
811.77	114.815
812.08	120.000
812.38	114.000
812.69	141.667
812.99	152.273
813.29	134.694
813.59	104.762
813.90	138.776
814.20	94.545
814.50	80.000
814.81	100.000
815.11	118.367
815.41	104.918
815.72	154.762
816.02	141.818
816.32	123.810
816.62	127.500
816.93	124.390
817.23	150.000
817.53	131.818
817.84	166.667
818.14	113.043
818.44	133.333
818.74	188.235
819.04	152.500
819.35	171.429
819.65	200.000
819.95	182.143
820.25	260.000
820.56	158.974
820.86	136.364
821.16	137.209
821.46	141.026
821.76	124.000
822.07	177.143
822.37	130.000
822.67	190.909
822.97	109.804
823.27	196.429
823.57	151.351
823.88	187.500
824.18	193.333
824.48	161.905
824.78	228.000
825.08	183.333
825.38	156.757
825.69	146.341
825.99	229.167
826.29	137.931
826.59	155.263
826.89	131.579
827.19	173.529
827.49	216.129
827.79	120.455
828.09	156.818
828.39	117.021
828.70	151.020
829.00	148.148
829.30	151.613
829.60	145.000
829.90	313.333
830.20	182.143
830.50	239.130
830.80	221.739
831.10	183.333
831.40	166.667
831.70	217.391
832.00	215.385
832.30	233.333
832.60	387.500
832.90	246.667
833.20	407.143
833.50	154.839
833.80	220.690
834.10	215.625
834.40	257.692
834.70	333.333
835.00	309.524
835.30	165.714
835.60	353.846
835.90	241.379
836.20	285.714
836.50	206.897
836.80	196.000
837.10	200.000
837.40	276.190
837.70	305.882
838.00	218.519
838.30	266.667
838.60	276.190
838.90	234.615
839.19	265.000
839.49	428.571
839.79	280.000
840.09	260.000
840.39	266.667
840.69	265.217
840.99	327.778
841.29	500.000
841.59	316.667
841.88	368.750
842.18	234.483
842.48	276.190
842.78	233.333
843.08	226.087
843.38	187.500
843.68	816.667
843.97	242.308
844.27	189.655
844.57	304.762
844.87	387.500
845.17	207.407
845.47	1500.000
845.76	577.778
846.06	305.882
846.36	650.000
846.66	400.000
846.96	337.500
847.25	418.182
847.55	436.364
847.85	304.348
848.15	530.000
848.44	385.714
848.74	300.000
849.04	341.176
849.34	430.000
849.63	247.368
849.93	490.909
850.23	1080.000
850.53	457.143
850.82	2300.000
851.12	-4600.000
851.42	5100.000
851.71	385.000
852.01	-1333.333
852.31	270.833
852.61	1766.667
852.90	285.714
853.20	244.000
853.50	347.059
853.79	266.667
854.09	225.000
854.39	356.250
854.68	156.757
854.98	216.129
855.28	200.000
855.57	213.793
855.87	240.741
856.17	242.105
856.46	293.333
856.76	264.706
857.05	231.034
857.35	204.167
857.65	313.333
857.94	291.304
858.24	265.385
858.53	285.000
858.83	286.364
859.13	393.333
859.42	0.000
859.72	677.778
860.01	481.818
860.31	259.091
860.60	315.789
860.90	234.783
861.20	588.889
861.49	600.000
861.79	-4600.000
862.08	637.500
862.38	323.810
862.67	407.692
862.97	323.529
863.26	644.444
863.56	316.667
863.85	450.000
864.15	675.000
864.44	413.333
864.74	950.000
865.03	662.500
865.33	273.684
865.62	400.000
865.92	438.462
866.21	441.667
866.51	0.000
866.80	509.091
867.10	1120.000
867.39	484.615
867.69	472.727
867.98	289.474
868.27	545.455
868.57	363.158
868.86	-5600.000
869.16	418.750
869.45	2000.000
869.75	-4500.000
870.04	483.333
870.33	657.143
870.63	1250.000
870.92	2900.000
871.22	871.429
871.51	317.647
871.80	276.190
872.10	407.143
>>>>>End Processed Spectral Data<<<<<
