SpectraSuite Data File
++++++++++++++++++++++++++++++++++++
Date: Wed May 13 19:13:53 PDT 2015
User: schluterlab
Dark Spectrum Present: Yes
Reference Spectrum Present: Yes
Number of Sampled Component Spectra: 1
Spectrometers: USB2E3373
Integration Time (usec): 3000 (USB2E3373)
Spectra Averaged: 3 (USB2E3373)
Boxcar Smoothing: 0 (USB2E3373)
Correct for Electrical Dark: No (USB2E3373)
Strobe/Lamp Enabled: No (USB2E3373)
Correct for Detector Non-linearity: No (USB2E3373)
Correct for Stray Light: No (USB2E3373)
Number of Pixels in Processed Spectrum: 2048
>>>>>Begin Processed Spectral Data<<<<<
178.53	0.000
178.91	-1350.000
179.29	-1625.000
179.67	-255.556
180.04	-1425.000
180.42	2750.000
180.80	1280.000
181.18	-1150.000
181.56	828.571
181.94	0.000
182.31	-785.714
182.69	1866.667
183.07	-662.500
183.45	-677.778
183.83	527.273
184.20	-550.000
184.58	2450.000
184.96	5800.000
185.34	-1080.000
185.72	-612.500
186.09	-2900.000
186.47	2800.000
186.85	3050.000
187.23	5400.000
187.61	-2100.000
187.98	1550.000
188.36	600.000
188.74	572.727
189.12	-880.000
189.49	610.000
189.87	-5400.000
190.25	-1175.000
190.63	492.857
191.00	484.615
191.38	983.333
191.76	-1450.000
192.14	1500.000
192.51	637.500
192.89	1016.667
193.27	675.000
193.65	-1550.000
194.02	530.000
194.40	1080.000
194.78	630.000
195.15	583.333
195.53	640.000
195.91	-2150.000
196.29	393.750
196.66	363.158
197.04	-510.000
197.42	0.000
197.79	640.000
198.17	-5000.000
198.55	700.000
198.92	775.000
199.30	860.000
199.68	0.000
200.05	333.333
200.43	914.286
200.81	5800.000
201.18	2033.333
201.56	-1533.333
201.94	622.222
202.31	666.667
202.69	575.000
203.07	640.000
203.44	0.000
203.82	1225.000
204.19	771.429
204.57	457.143
204.95	737.500
205.32	1600.000
205.70	645.455
206.08	357.143
206.45	3000.000
206.83	418.750
207.20	850.000
207.58	1020.000
207.96	344.444
208.33	650.000
208.71	-950.000
209.08	957.143
209.46	666.667
209.84	590.909
210.21	-1500.000
210.59	1425.000
210.96	-662.500
211.34	3150.000
211.71	660.000
212.09	1016.667
212.46	0.000
212.84	2166.667
213.22	1625.000
213.59	-4300.000
213.97	783.333
214.34	828.571
214.72	609.091
215.09	1080.000
215.47	-2700.000
215.84	-2800.000
216.22	1833.333
216.59	442.857
216.97	1375.000
217.34	518.182
217.72	-683.333
218.09	0.000
218.47	-5400.000
218.84	755.556
219.22	871.429
219.59	2000.000
219.97	-657.143
220.34	1060.000
220.72	-1900.000
221.09	428.571
221.47	1550.000
221.84	-950.000
222.22	0.000
222.59	1450.000
222.97	-2900.000
223.34	1120.000
223.72	469.231
224.09	1120.000
224.46	3150.000
224.84	-5500.000
225.21	-1080.000
225.59	-4900.000
225.96	660.000
226.34	290.000
226.71	3400.000
227.08	675.000
227.46	700.000
227.83	-1325.000
228.21	-2650.000
228.58	722.222
228.95	-3200.000
229.33	-2600.000
229.70	1700.000
230.08	728.571
230.45	-860.000
230.82	491.667
231.20	866.667
231.57	814.286
231.95	525.000
232.32	236.364
232.69	454.545
233.07	728.571
233.44	400.000
233.81	-2000.000
234.19	357.895
234.56	566.667
234.93	533.333
235.31	627.273
235.68	384.615
236.05	364.286
236.43	236.364
236.80	252.632
237.17	4800.000
237.55	295.238
237.92	250.000
238.29	209.524
238.67	180.645
239.04	210.345
239.41	183.333
239.79	130.435
240.16	161.905
240.53	143.182
240.91	131.373
241.28	104.000
241.65	114.000
242.02	101.449
242.40	109.677
242.77	106.667
243.14	96.774
243.51	92.135
243.89	78.824
244.26	77.778
244.63	76.344
245.00	81.915
245.38	67.327
245.75	75.701
246.12	60.550
246.49	75.182
246.87	73.600
247.24	73.846
247.61	65.000
247.98	58.170
248.36	58.108
248.73	62.420
249.10	54.140
249.47	56.497
249.84	54.545
250.22	49.733
250.59	56.805
250.96	46.970
251.33	52.133
251.70	54.455
252.08	50.476
252.45	44.395
252.82	50.435
253.19	52.766
253.56	47.843
253.94	51.452
254.31	48.438
254.68	45.000
255.05	42.804
255.42	44.715
255.79	44.485
256.16	48.375
256.54	43.110
256.91	46.263
257.28	42.806
257.65	39.274
258.02	38.820
258.39	40.379
258.76	42.140
259.14	44.940
259.51	40.426
259.88	40.683
260.25	38.973
260.62	39.595
260.99	40.373
261.36	40.240
261.73	39.542
262.10	38.081
262.47	40.282
262.85	38.719
263.22	37.892
263.59	39.886
263.96	40.659
264.33	38.120
264.70	36.579
265.07	38.363
265.44	37.374
265.81	36.496
266.18	34.673
266.55	38.049
266.92	36.609
267.29	35.880
267.66	35.321
268.03	35.455
268.40	36.916
268.77	34.368
269.14	34.910
269.51	36.795
269.88	36.364
270.25	35.666
270.62	37.303
270.99	35.699
271.36	33.906
271.73	33.879
272.10	36.739
272.47	35.484
272.84	35.498
273.21	36.059
273.58	34.061
273.95	30.818
274.32	33.264
274.69	34.261
275.06	32.480
275.43	34.255
275.80	35.070
276.17	31.568
276.54	36.383
276.91	33.004
277.28	33.789
277.65	31.528
278.02	33.747
278.39	35.352
278.76	31.273
279.13	33.396
279.50	31.844
279.87	33.665
280.23	33.333
280.60	31.335
280.97	31.423
281.34	33.805
281.71	31.091
282.08	35.893
282.45	29.818
282.82	32.504
283.19	31.016
283.56	31.579
283.92	32.657
284.29	30.688
284.66	30.490
285.03	31.284
285.40	32.218
285.77	30.471
286.14	31.261
286.51	31.167
286.87	31.111
287.24	30.130
287.61	32.745
287.98	30.682
288.35	28.526
288.72	28.193
289.08	30.516
289.45	29.819
289.82	29.919
290.19	26.688
290.56	28.943
290.93	26.435
291.29	29.294
291.66	27.581
292.03	28.488
292.40	28.488
292.77	28.107
293.13	27.313
293.50	26.822
293.87	25.481
294.24	25.630
294.60	24.454
294.97	26.163
295.34	28.773
295.71	28.125
296.08	25.499
296.44	25.447
296.81	25.363
297.18	25.068
297.55	21.504
297.91	23.219
298.28	25.301
298.65	24.935
299.02	24.638
299.38	24.170
299.75	21.024
300.12	23.883
300.48	23.625
300.85	23.551
301.22	23.694
301.59	22.980
301.95	23.929
302.32	24.775
302.69	21.744
303.05	22.545
303.42	21.235
303.79	22.650
304.15	21.445
304.52	21.900
304.89	22.648
305.25	21.346
305.62	22.197
305.99	23.022
306.35	22.371
306.72	22.085
307.09	22.309
307.45	22.185
307.82	21.652
308.19	21.965
308.55	21.683
308.92	22.879
309.29	20.803
309.65	19.830
310.02	21.142
310.38	21.398
310.75	20.697
311.12	21.801
311.48	21.212
311.85	22.642
312.22	21.332
312.58	20.166
312.95	20.697
313.31	20.388
313.68	21.102
314.05	23.077
314.41	21.307
314.78	21.551
315.14	21.351
315.51	21.215
315.87	20.297
316.24	20.655
316.61	21.637
316.97	20.939
317.34	20.059
317.70	20.746
318.07	22.040
318.43	19.765
318.80	22.680
319.16	21.186
319.53	21.482
319.89	22.667
320.26	21.300
320.62	22.421
320.99	21.818
321.35	21.717
321.72	21.663
322.08	23.001
322.45	23.881
322.81	24.322
323.18	24.277
323.54	23.748
323.91	25.094
324.27	24.570
324.64	23.113
325.00	22.904
325.37	23.476
325.73	24.237
326.10	23.654
326.46	23.835
326.83	25.280
327.19	25.705
327.56	25.523
327.92	25.634
328.29	26.442
328.65	26.888
329.01	25.812
329.38	25.902
329.74	26.593
330.11	25.919
330.47	26.538
330.84	27.022
331.20	25.137
331.56	27.248
331.93	26.019
332.29	26.264
332.66	26.283
333.02	27.879
333.38	28.184
333.75	27.540
334.11	27.758
334.48	27.773
334.84	27.482
335.20	27.727
335.57	26.201
335.93	27.500
336.29	27.656
336.66	27.051
337.02	26.878
337.38	28.426
337.75	26.649
338.11	26.858
338.47	27.164
338.84	27.589
339.20	25.780
339.56	28.102
339.93	26.909
340.29	26.812
340.65	27.362
341.02	28.796
341.38	27.758
341.74	27.368
342.11	28.035
342.47	27.137
342.83	28.682
343.20	27.965
343.56	27.380
343.92	27.719
344.28	27.211
344.65	27.859
345.01	27.104
345.37	26.930
345.73	27.665
346.10	27.280
346.46	27.881
346.82	28.501
347.19	27.235
347.55	26.519
347.91	27.589
348.27	27.691
348.63	27.508
349.00	26.699
349.36	27.833
349.72	27.827
350.08	28.039
350.45	28.478
350.81	26.889
351.17	26.823
351.53	27.355
351.89	27.228
352.26	26.835
352.62	27.426
352.98	27.066
353.34	27.527
353.70	25.368
354.07	28.548
354.43	27.222
354.79	26.951
355.15	26.895
355.51	28.217
355.87	28.082
356.24	27.850
356.60	26.864
356.96	27.675
357.32	27.473
357.68	26.850
358.04	27.633
358.40	27.712
358.77	27.934
359.13	27.782
359.49	27.843
359.85	26.587
360.21	27.193
360.57	27.160
360.93	28.615
361.29	27.060
361.66	27.322
362.02	27.687
362.38	27.757
362.74	27.604
363.10	26.795
363.46	26.266
363.82	27.438
364.18	28.047
364.54	27.786
364.90	27.620
365.26	28.088
365.62	28.269
365.98	26.954
366.35	27.937
366.71	27.477
367.07	28.332
367.43	28.447
367.79	28.123
368.15	28.161
368.51	27.326
368.87	27.552
369.23	27.213
369.59	28.458
369.95	27.574
370.31	28.134
370.67	26.739
371.03	29.438
371.39	27.478
371.75	29.265
372.11	27.525
372.47	28.226
372.83	28.746
373.19	27.312
373.55	28.751
373.91	28.571
374.27	27.148
374.63	27.636
374.99	28.672
375.35	27.983
375.71	28.170
376.07	29.081
376.42	29.367
376.78	28.628
377.14	29.376
377.50	28.940
377.86	27.460
378.22	28.635
378.58	28.321
378.94	27.718
379.30	27.799
379.66	28.744
380.02	27.641
380.38	28.901
380.74	28.091
381.09	28.362
381.45	29.748
381.81	29.238
382.17	30.318
382.53	28.365
382.89	29.136
383.25	29.706
383.61	28.810
383.97	28.518
384.32	30.069
384.68	29.430
385.04	29.748
385.40	29.536
385.76	30.344
386.12	29.987
386.48	30.334
386.83	30.148
387.19	30.798
387.55	30.179
387.91	30.109
388.27	30.104
388.62	30.363
388.98	29.607
389.34	30.538
389.70	30.411
390.06	31.179
390.42	30.739
390.77	31.489
391.13	31.398
391.49	31.662
391.85	30.490
392.20	30.473
392.56	31.061
392.92	31.136
393.28	29.586
393.64	31.055
393.99	32.193
394.35	30.645
394.71	30.427
395.07	31.713
395.42	31.644
395.78	31.870
396.14	31.595
396.50	32.456
396.85	32.676
397.21	31.196
397.57	31.804
397.92	32.031
398.28	30.998
398.64	31.840
399.00	31.729
399.35	32.657
399.71	32.755
400.07	33.235
400.42	33.497
400.78	32.871
401.14	33.232
401.49	32.358
401.85	33.212
402.21	32.814
402.57	33.004
402.92	33.544
403.28	33.979
403.63	33.416
403.99	33.694
404.35	33.333
404.70	34.053
405.06	32.906
405.42	33.500
405.77	33.257
406.13	33.578
406.49	34.122
406.84	33.550
407.20	32.920
407.55	35.354
407.91	34.933
408.27	34.461
408.62	34.196
408.98	34.130
409.34	34.994
409.69	35.613
410.05	34.944
410.40	34.557
410.76	35.245
411.11	35.223
411.47	34.377
411.83	35.980
412.18	33.704
412.54	36.239
412.89	35.120
413.25	34.711
413.60	35.763
413.96	34.548
414.31	34.690
414.67	37.452
415.03	35.828
415.38	37.049
415.74	36.463
416.09	37.492
416.45	36.747
416.80	37.277
417.16	36.997
417.51	37.160
417.87	36.866
418.22	36.719
418.58	37.831
418.93	37.162
419.29	36.792
419.64	36.524
420.00	36.707
420.35	37.101
420.71	37.358
421.06	36.993
421.42	37.368
421.77	36.827
422.12	37.844
422.48	36.481
422.83	37.391
423.19	37.790
423.54	38.363
423.90	38.203
424.25	38.191
424.61	38.095
424.96	38.542
425.31	38.649
425.67	38.371
426.02	37.657
426.38	39.560
426.73	38.502
427.09	38.237
427.44	38.528
427.79	38.758
428.15	38.512
428.50	39.029
428.85	39.333
429.21	38.597
429.56	38.828
429.92	37.846
430.27	38.083
430.62	38.402
430.98	38.194
431.33	38.557
431.68	38.534
432.04	38.924
432.39	40.034
432.74	39.378
433.10	39.728
433.45	39.825
433.80	40.576
434.16	39.103
434.51	38.368
434.86	39.966
435.22	40.356
435.57	39.878
435.92	40.257
436.28	40.036
436.63	39.845
436.98	40.355
437.34	40.966
437.69	41.307
438.04	40.360
438.39	41.493
438.75	40.906
439.10	40.168
439.45	41.322
439.81	41.088
440.16	40.542
440.51	42.238
440.86	41.170
441.22	40.768
441.57	40.817
441.92	41.300
442.27	41.012
442.63	40.548
442.98	40.958
443.33	40.652
443.68	40.991
444.03	40.898
444.39	40.360
444.74	41.126
445.09	40.377
445.44	41.389
445.79	41.168
446.15	41.398
446.50	41.357
446.85	41.675
447.20	42.019
447.55	41.932
447.91	40.596
448.26	41.959
448.61	41.323
448.96	43.522
449.31	41.676
449.66	41.531
450.02	41.448
450.37	41.440
450.72	42.188
451.07	40.951
451.42	40.122
451.77	42.513
452.12	40.935
452.47	41.978
452.83	42.483
453.18	42.054
453.53	43.847
453.88	42.233
454.23	41.961
454.58	42.277
454.93	44.310
455.28	41.646
455.63	42.718
455.98	43.036
456.34	41.646
456.69	42.142
457.04	42.786
457.39	42.022
457.74	42.368
458.09	42.783
458.44	42.075
458.79	41.161
459.14	42.381
459.49	42.615
459.84	42.105
460.19	41.485
460.54	40.336
460.89	42.074
461.24	42.684
461.59	43.696
461.94	42.232
462.29	43.086
462.64	42.438
462.99	42.355
463.34	43.267
463.69	41.401
464.04	42.957
464.39	42.029
464.74	42.959
465.09	42.220
465.44	41.219
465.79	41.499
466.14	40.558
466.49	40.768
466.84	42.032
467.19	41.460
467.54	42.875
467.89	40.756
468.24	42.176
468.59	42.491
468.94	42.883
469.29	42.159
469.64	42.704
469.99	42.084
470.34	42.734
470.68	43.678
471.03	42.857
471.38	43.433
471.73	42.239
472.08	43.882
472.43	41.897
472.78	42.133
473.13	41.528
473.48	42.322
473.83	42.561
474.17	42.626
474.52	42.556
474.87	43.024
475.22	42.310
475.57	41.214
475.92	42.061
476.27	42.108
476.61	41.975
476.96	42.001
477.31	41.863
477.66	42.287
478.01	40.983
478.36	41.883
478.70	41.018
479.05	42.705
479.40	41.095
479.75	42.552
480.10	41.203
480.45	40.457
480.79	40.755
481.14	41.536
481.49	41.955
481.84	40.786
482.19	42.390
482.53	41.193
482.88	41.368
483.23	41.542
483.58	41.401
483.92	41.050
484.27	40.566
484.62	40.733
484.97	39.693
485.31	40.651
485.66	37.635
486.01	36.201
486.36	35.546
486.70	36.109
487.05	36.942
487.40	37.947
487.75	39.567
488.09	40.734
488.44	40.761
488.79	41.844
489.13	42.246
489.48	41.966
489.83	41.562
490.17	40.684
490.52	41.541
490.87	40.479
491.22	40.700
491.56	39.863
491.91	41.926
492.26	41.341
492.60	41.475
492.95	40.645
493.30	40.888
493.64	40.131
493.99	40.297
494.34	40.934
494.68	40.980
495.03	41.259
495.37	41.089
495.72	41.813
496.07	41.346
496.41	39.823
496.76	40.633
497.11	40.973
497.45	41.034
497.80	41.123
498.14	41.401
498.49	41.220
498.84	41.707
499.18	40.476
499.53	40.646
499.87	40.308
500.22	40.603
500.56	40.485
500.91	40.096
501.26	40.635
501.60	41.386
501.95	40.422
502.29	41.050
502.64	41.155
502.98	41.094
503.33	40.174
503.67	40.928
504.02	40.786
504.36	40.524
504.71	41.426
505.06	41.157
505.40	40.642
505.75	40.598
506.09	40.136
506.44	41.737
506.78	40.867
507.13	41.898
507.47	42.121
507.82	41.337
508.16	41.996
508.51	42.466
508.85	40.516
509.19	41.429
509.54	41.582
509.88	41.319
510.23	41.594
510.57	42.724
510.92	42.258
511.26	41.007
511.61	42.012
511.95	41.232
512.30	40.880
512.64	42.665
512.98	42.551
513.33	42.612
513.67	41.889
514.02	41.504
514.36	42.654
514.70	41.505
515.05	42.331
515.39	43.466
515.74	42.286
516.08	41.476
516.42	42.786
516.77	42.252
517.11	41.731
517.46	42.438
517.80	43.728
518.14	42.791
518.49	43.524
518.83	43.068
519.17	43.360
519.52	41.992
519.86	43.468
520.20	43.006
520.55	44.105
520.89	42.944
521.23	44.150
521.58	43.818
521.92	44.213
522.26	42.892
522.61	43.988
522.95	42.971
523.29	44.005
523.64	43.354
523.98	44.362
524.32	44.089
524.66	42.393
525.01	43.873
525.35	44.796
525.69	42.734
526.04	43.302
526.38	43.319
526.72	42.393
527.06	44.319
527.41	43.069
527.75	44.437
528.09	44.380
528.43	44.041
528.78	44.376
529.12	42.970
529.46	42.560
529.80	44.245
530.15	43.863
530.49	43.262
530.83	43.671
531.17	46.018
531.51	45.201
531.86	44.258
532.20	44.329
532.54	44.395
532.88	45.250
533.22	43.223
533.57	43.395
533.91	43.528
534.25	42.284
534.59	42.831
534.93	42.058
535.27	43.693
535.62	42.735
535.96	43.942
536.30	44.120
536.64	44.108
536.98	44.658
537.32	44.898
537.66	42.533
538.01	44.569
538.35	43.180
538.69	44.608
539.03	42.820
539.37	42.045
539.71	42.191
540.05	43.856
540.39	42.924
540.73	43.855
541.07	43.284
541.42	44.945
541.76	44.645
542.10	43.920
542.44	44.901
542.78	44.862
543.12	42.546
543.46	42.689
543.80	44.502
544.14	44.223
544.48	43.556
544.82	43.361
545.16	42.941
545.50	43.509
545.84	43.884
546.18	43.367
546.52	43.496
546.86	45.223
547.20	43.291
547.54	44.021
547.88	43.304
548.22	43.462
548.56	41.572
548.90	42.574
549.24	44.040
549.58	44.134
549.92	43.956
550.26	44.318
550.60	42.254
550.94	44.366
551.28	43.819
551.62	43.997
551.96	43.088
552.30	43.823
552.64	43.137
552.98	43.458
553.32	44.100
553.66	43.899
554.00	44.132
554.34	43.202
554.68	43.205
555.02	44.288
555.36	42.589
555.69	41.881
556.03	43.069
556.37	42.633
556.71	40.723
557.05	42.997
557.39	42.967
557.73	44.390
558.07	43.655
558.41	43.415
558.75	44.085
559.08	44.817
559.42	45.276
559.76	44.265
560.10	42.398
560.44	43.746
560.78	41.583
561.12	41.887
561.45	42.634
561.79	42.320
562.13	41.918
562.47	42.213
562.81	43.515
563.15	41.538
563.48	42.308
563.82	42.335
564.16	41.988
564.50	41.732
564.84	41.530
565.17	40.669
565.51	42.300
565.85	42.386
566.19	41.202
566.52	42.242
566.86	40.808
567.20	41.156
567.54	40.011
567.88	39.924
568.21	39.894
568.55	39.130
568.89	38.521
569.23	37.433
569.56	37.287
569.90	36.453
570.24	36.634
570.57	35.906
570.91	35.423
571.25	35.145
571.59	35.346
571.92	35.052
572.26	35.413
572.60	35.826
572.93	35.802
573.27	35.966
573.61	35.650
573.95	34.832
574.28	34.322
574.62	33.941
574.96	34.050
575.29	34.675
575.63	34.400
575.97	34.965
576.30	34.387
576.64	35.052
576.98	34.200
577.31	33.803
577.65	33.659
577.98	33.193
578.32	33.141
578.66	33.585
578.99	34.056
579.33	35.125
579.67	34.031
580.00	33.853
580.34	34.836
580.67	34.200
581.01	34.113
581.35	33.361
581.68	33.085
582.02	32.395
582.35	32.839
582.69	33.087
583.02	33.815
583.36	34.309
583.70	35.115
584.03	34.822
584.37	35.336
584.70	34.822
585.04	34.711
585.37	34.157
585.71	34.258
586.04	33.945
586.38	34.352
586.72	34.852
587.05	34.447
587.39	34.011
587.72	34.295
588.06	34.258
588.39	34.650
588.73	35.084
589.06	34.840
589.40	35.657
589.73	35.973
590.07	35.943
590.40	35.440
590.73	36.417
591.07	36.752
591.40	36.736
591.74	37.359
592.07	37.086
592.41	36.296
592.74	34.869
593.08	34.044
593.41	34.293
593.75	33.542
594.08	34.194
594.41	34.677
594.75	35.638
595.08	34.825
595.42	35.166
595.75	35.292
596.09	36.237
596.42	36.071
596.75	35.922
597.09	36.667
597.42	35.371
597.75	36.136
598.09	35.348
598.42	35.352
598.76	34.982
599.09	34.132
599.42	34.098
599.76	34.517
600.09	34.026
600.42	33.711
600.76	33.750
601.09	33.953
601.42	35.236
601.76	34.991
602.09	35.692
602.42	34.594
602.76	36.356
603.09	34.264
603.42	35.103
603.76	34.489
604.09	34.548
604.42	34.407
604.76	35.934
605.09	35.037
605.42	34.716
605.75	34.230
606.09	34.160
606.42	34.655
606.75	34.716
607.09	35.329
607.42	34.874
607.75	34.430
608.08	34.260
608.42	34.693
608.75	35.167
609.08	33.904
609.41	35.364
609.75	35.493
610.08	35.250
610.41	34.404
610.74	35.572
611.07	35.672
611.41	35.182
611.74	35.948
612.07	35.455
612.40	36.884
612.73	35.263
613.07	35.938
613.40	35.914
613.73	35.553
614.06	36.667
614.39	34.714
614.72	35.526
615.06	35.924
615.39	34.926
615.72	35.123
616.05	35.247
616.38	37.021
616.71	36.817
617.05	36.101
617.38	36.440
617.71	36.036
618.04	36.538
618.37	35.896
618.70	36.279
619.03	38.224
619.36	37.678
619.69	37.394
620.03	37.775
620.36	36.832
620.69	36.986
621.02	37.832
621.35	38.528
621.68	37.072
622.01	38.158
622.34	38.124
622.67	38.099
623.00	36.390
623.33	35.954
623.66	36.383
623.99	36.672
624.32	36.448
624.65	36.299
624.99	35.836
625.32	37.292
625.65	37.340
625.98	37.740
626.31	38.258
626.64	37.714
626.97	38.404
627.30	38.238
627.63	38.556
627.96	38.604
628.29	38.933
628.62	40.805
628.95	41.887
629.28	40.420
629.61	40.055
629.94	40.381
630.26	39.943
630.59	39.276
630.92	38.602
631.25	38.993
631.58	40.140
631.91	39.655
632.24	40.401
632.57	39.769
632.90	40.461
633.23	41.051
633.56	42.599
633.89	40.544
634.22	43.133
634.55	43.077
634.88	40.599
635.20	42.533
635.53	41.687
635.86	42.698
636.19	40.941
636.52	41.061
636.85	41.810
637.18	39.747
637.51	40.780
637.83	38.841
638.16	42.072
638.49	42.191
638.82	43.236
639.15	41.500
639.48	43.017
639.81	42.493
640.13	42.578
640.46	43.221
640.79	45.310
641.12	39.752
641.45	42.737
641.77	45.214
642.10	44.591
642.43	42.943
642.76	45.511
643.09	43.098
643.41	43.551
643.74	46.914
644.07	44.360
644.40	47.546
644.73	44.724
645.05	46.910
645.38	42.812
645.71	42.512
646.04	48.671
646.36	47.078
646.69	45.987
647.02	43.367
647.35	44.845
647.67	48.319
648.00	42.927
648.33	43.729
648.66	41.667
648.98	41.379
649.31	42.302
649.64	41.405
649.96	44.113
650.29	44.234
650.62	43.528
650.94	44.246
651.27	44.764
651.60	45.092
651.92	42.652
652.25	40.717
652.58	43.925
652.90	43.760
653.23	41.448
653.56	42.205
653.88	43.582
654.21	42.970
654.54	44.719
654.86	43.302
655.19	38.514
655.52	25.762
655.84	20.503
656.17	27.214
656.49	36.954
656.82	39.985
657.15	31.716
657.47	24.117
657.80	18.950
658.13	20.241
658.45	30.851
658.78	32.594
659.10	33.959
659.43	36.317
659.75	38.142
660.08	41.266
660.41	44.227
660.73	47.268
661.06	45.223
661.38	46.727
661.71	47.308
662.03	47.732
662.36	44.334
662.68	44.779
663.01	47.071
663.33	47.346
663.66	46.218
663.98	44.924
664.31	46.429
664.63	45.951
664.96	44.266
665.28	48.361
665.61	44.250
665.93	42.656
666.26	47.059
666.58	46.444
666.91	47.357
667.23	48.539
667.56	47.084
667.88	45.299
668.21	49.680
668.53	45.553
668.86	48.052
669.18	45.842
669.50	48.043
669.83	44.880
670.15	46.889
670.48	44.662
670.80	46.552
671.13	48.832
671.45	45.319
671.77	45.418
672.10	40.665
672.42	41.696
672.75	40.299
673.07	42.430
673.39	43.219
673.72	43.359
674.04	44.314
674.37	40.777
674.69	46.012
675.01	47.071
675.34	46.407
675.66	46.526
675.98	45.010
676.31	44.538
676.63	44.586
676.95	46.960
677.28	46.262
677.60	46.813
677.92	46.203
678.25	43.737
678.57	44.024
678.89	41.082
679.22	40.079
679.54	43.130
679.86	43.303
680.18	39.177
680.51	40.780
680.83	41.281
681.15	42.642
681.48	44.991
681.80	42.360
682.12	42.337
682.44	39.652
682.77	43.992
683.09	43.991
683.41	45.676
683.73	47.241
684.06	44.628
684.38	43.053
684.70	41.860
685.02	39.400
685.34	42.491
685.67	36.538
685.99	39.175
686.31	39.420
686.63	40.283
686.96	40.536
687.28	41.877
687.60	39.674
687.92	41.499
688.24	40.875
688.56	43.976
688.89	45.436
689.21	44.978
689.53	43.633
689.85	44.346
690.17	39.959
690.49	45.223
690.82	45.327
691.14	39.062
691.46	42.616
691.78	40.964
692.10	42.975
692.42	40.918
692.74	42.116
693.06	42.553
693.39	42.300
693.71	43.450
694.03	42.526
694.35	41.342
694.67	44.394
694.99	47.561
695.31	42.892
695.63	46.411
695.95	45.232
696.27	45.178
696.59	47.668
696.91	46.632
697.23	38.967
697.56	42.004
697.88	38.241
698.20	40.417
698.52	40.000
698.84	44.543
699.16	43.088
699.48	44.181
699.80	45.894
700.12	50.909
700.44	44.562
700.76	46.409
701.08	49.138
701.40	45.531
701.72	48.980
702.04	52.273
702.36	44.476
702.68	45.609
703.00	45.152
703.32	43.085
703.64	43.700
703.96	44.847
704.28	50.291
704.60	47.214
704.91	47.774
705.23	47.507
705.55	50.498
705.87	56.146
706.19	51.237
706.51	49.221
706.83	46.364
707.15	46.499
707.47	43.434
707.79	43.735
708.11	42.466
708.43	43.095
708.74	41.837
709.06	45.974
709.38	45.407
709.70	47.093
710.02	46.884
710.34	46.364
710.66	49.851
710.98	45.455
711.29	45.930
711.61	46.903
711.93	47.115
712.25	46.945
712.57	51.471
712.89	45.329
713.20	44.681
713.52	50.000
713.84	45.570
714.16	46.646
714.48	40.230
714.80	48.632
715.11	43.228
715.43	46.588
715.75	45.217
716.07	45.687
716.39	46.395
716.70	54.485
717.02	52.518
717.34	49.470
717.66	53.731
717.97	56.972
718.29	49.259
718.61	49.270
718.93	52.574
719.24	51.557
719.56	49.831
719.88	48.814
720.20	47.635
720.51	49.129
720.83	49.071
721.15	47.015
721.46	46.809
721.78	50.179
722.10	49.057
722.42	50.752
722.73	49.813
723.05	55.328
723.37	52.227
723.68	49.807
724.00	50.813
724.32	54.032
724.63	52.439
724.95	51.883
725.27	50.607
725.58	52.734
725.90	50.000
726.22	49.057
726.53	48.611
726.85	48.464
727.16	49.466
727.48	48.582
727.80	48.864
728.11	50.000
728.43	46.538
728.74	48.029
729.06	51.825
729.38	50.735
729.69	48.754
730.01	46.416
730.32	45.833
730.64	45.151
730.96	38.614
731.27	43.046
731.59	44.954
731.90	41.691
732.22	45.652
732.53	41.176
732.85	46.154
733.16	46.624
733.48	47.176
733.80	42.208
734.11	47.771
734.43	42.604
734.74	39.429
735.06	41.834
735.37	46.532
735.69	44.586
736.00	43.464
736.32	49.533
736.63	41.534
736.95	45.687
737.26	41.156
737.58	42.903
737.89	47.492
738.21	42.321
738.52	43.571
738.83	41.887
739.15	45.000
739.46	47.080
739.78	45.486
740.09	41.538
740.41	42.903
740.72	43.554
741.04	51.111
741.35	47.500
741.66	52.444
741.98	49.528
742.29	55.024
742.61	55.172
742.92	51.584
743.23	48.291
743.55	48.000
743.86	50.000
744.18	57.965
744.49	53.110
744.80	57.277
745.12	57.727
745.43	49.339
745.74	50.450
746.06	57.339
746.37	50.673
746.68	51.584
747.00	52.315
747.31	56.667
747.62	45.575
747.94	49.339
748.25	48.936
748.56	57.709
748.88	52.970
749.19	50.500
749.50	55.814
749.82	48.374
750.13	46.531
750.44	47.080
750.75	44.912
751.07	48.875
751.38	46.341
751.69	46.209
752.01	45.865
752.32	46.209
752.63	44.681
752.94	48.770
753.26	50.800
753.57	45.122
753.88	53.906
754.19	47.857
754.51	48.611
754.82	46.209
755.13	49.057
755.44	45.113
755.75	43.796
756.07	43.617
756.38	40.511
756.69	42.617
757.00	43.413
757.31	39.763
757.63	40.936
757.94	43.164
758.25	36.520
758.56	36.543
758.87	38.441
759.18	41.818
759.50	39.498
759.81	39.564
760.12	37.187
760.43	41.261
760.74	38.859
761.05	38.136
761.36	35.829
761.67	40.909
761.99	41.615
762.30	44.444
762.61	46.565
762.92	46.484
763.23	46.639
763.54	51.600
763.85	39.844
764.16	46.923
764.47	48.669
764.78	41.343
765.10	40.506
765.41	37.758
765.72	40.419
766.03	40.125
766.34	39.333
766.65	51.915
766.96	47.436
767.27	54.315
767.58	50.000
767.89	55.789
768.20	55.172
768.51	57.360
768.82	51.376
769.13	45.528
769.44	46.559
769.75	50.215
770.06	41.284
770.37	53.394
770.68	50.463
770.99	46.222
771.30	43.033
771.61	45.740
771.92	47.951
772.23	57.563
772.54	58.974
772.85	52.880
773.16	54.255
773.47	53.804
773.78	58.883
774.09	54.762
774.39	58.480
774.70	56.173
775.01	61.594
775.32	65.359
775.63	57.895
775.94	64.029
776.25	68.504
776.56	68.657
776.87	67.213
777.18	80.469
777.48	73.282
777.79	69.697
778.10	68.148
778.41	76.786
778.72	63.504
779.03	60.403
779.34	63.087
779.65	58.784
779.95	57.669
780.26	64.706
780.57	73.103
780.88	73.437
781.19	64.662
781.50	60.135
781.80	57.862
782.11	61.017
782.42	60.127
782.73	58.896
783.04	60.135
783.34	63.380
783.65	69.863
783.96	71.642
784.27	51.049
784.57	56.835
784.88	58.333
785.19	69.841
785.50	71.698
785.81	70.896
786.11	71.311
786.42	67.442
786.73	77.876
787.04	76.415
787.34	73.214
787.65	79.000
787.96	77.477
788.26	66.942
788.57	78.814
788.88	68.595
789.19	61.806
789.49	70.455
789.80	71.756
790.11	75.238
790.41	86.139
790.72	80.723
791.03	81.522
791.33	89.535
791.64	84.536
791.95	78.218
792.25	97.778
792.56	103.896
792.87	102.564
793.17	87.342
793.48	105.747
793.79	93.103
794.09	87.500
794.40	74.790
794.70	69.118
795.01	61.481
795.32	58.273
795.62	70.079
795.93	82.759
796.23	70.796
796.54	77.647
796.85	85.135
797.15	114.085
797.46	98.485
797.76	95.181
798.07	97.468
798.37	106.154
798.68	98.485
798.99	95.775
799.29	107.792
799.60	81.818
799.90	116.438
800.21	117.910
800.51	115.517
800.82	131.579
801.12	106.557
801.43	119.697
801.73	100.000
802.04	115.873
802.34	92.593
802.65	100.000
802.95	128.814
803.26	121.875
803.56	98.571
803.87	113.846
804.17	104.412
804.48	137.037
804.78	120.690
805.09	107.353
805.39	121.154
805.70	112.500
806.00	119.672
806.30	110.606
806.61	87.805
806.91	86.076
807.22	89.474
807.52	91.045
807.83	97.183
808.13	107.812
808.43	133.333
808.74	78.947
809.04	101.449
809.35	98.507
809.65	94.737
809.95	127.419
810.26	101.695
810.56	115.873
810.86	152.273
811.17	164.286
811.47	118.333
811.77	127.778
812.08	116.364
812.38	148.000
812.69	161.111
812.99	156.818
813.29	140.816
813.59	135.714
813.90	146.939
814.20	123.636
814.50	121.538
814.81	119.118
815.11	140.816
815.41	134.426
815.72	161.905
816.02	138.182
816.32	140.476
816.62	160.000
816.93	156.098
817.23	171.429
817.53	120.455
817.84	224.242
818.14	167.391
818.44	122.222
818.74	200.000
819.04	172.500
819.35	194.286
819.65	200.000
819.95	175.000
820.25	230.000
820.56	158.974
820.86	172.727
821.16	169.767
821.46	151.282
821.76	156.000
822.07	191.429
822.37	190.000
822.67	196.970
822.97	125.490
823.27	235.714
823.57	200.000
823.88	167.500
824.18	230.000
824.48	178.571
824.78	240.000
825.08	225.000
825.38	181.081
825.69	173.171
825.99	245.833
826.29	175.862
826.59	184.211
826.89	168.421
827.19	208.824
827.49	235.484
827.79	172.727
828.09	156.818
828.39	146.809
828.70	157.143
829.00	196.296
829.30	174.194
829.60	157.500
829.90	346.667
830.20	225.000
830.50	230.435
830.80	273.913
831.10	223.333
831.40	180.000
831.70	230.435
832.00	215.385
832.30	222.222
832.60	387.500
832.90	246.667
833.20	378.571
833.50	229.032
833.80	231.034
834.10	231.250
834.40	280.769
834.70	366.667
835.00	333.333
835.30	188.571
835.60	400.000
835.90	217.241
836.20	378.571
836.50	203.448
836.80	244.000
837.10	200.000
837.40	233.333
837.70	352.941
838.00	255.556
838.30	285.714
838.60	333.333
838.90	250.000
839.19	280.000
839.49	371.429
839.79	380.000
840.09	315.000
840.39	300.000
840.69	278.261
840.99	311.111
841.29	570.000
841.59	350.000
841.88	356.250
842.18	182.759
842.48	323.810
842.78	220.000
843.08	308.696
843.38	203.125
843.68	916.667
843.97	284.615
844.27	241.379
844.57	342.857
844.87	412.500
845.17	218.519
845.47	1733.333
845.76	477.778
846.06	352.941
846.36	600.000
846.66	442.857
846.96	337.500
847.25	527.273
847.55	445.455
847.85	300.000
848.15	580.000
848.44	371.429
848.74	338.889
849.04	400.000
849.34	610.000
849.63	289.474
849.93	563.636
850.23	1180.000
850.53	471.429
850.82	2500.000
851.12	-5200.000
851.42	4300.000
851.71	250.000
852.01	-1666.667
852.31	275.000
852.61	2066.667
852.90	300.000
853.20	236.000
853.50	329.412
853.79	319.048
854.09	254.167
854.39	375.000
854.68	172.973
854.98	206.452
855.28	183.333
855.57	255.172
855.87	229.630
856.17	300.000
856.46	273.333
856.76	358.824
857.05	237.931
857.35	312.500
857.65	393.333
857.94	239.130
858.24	253.846
858.53	310.000
858.83	286.364
859.13	380.000
859.42	0.000
859.72	711.111
860.01	454.545
860.31	313.636
860.60	305.263
860.90	265.217
861.20	666.667
861.49	475.000
861.79	-5000.000
862.08	687.500
862.38	300.000
862.67	353.846
862.97	317.647
863.26	611.111
863.56	305.556
863.85	483.333
864.15	625.000
864.44	406.667
864.74	1016.667
865.03	800.000
865.33	315.789
865.62	490.909
865.92	507.692
866.21	433.333
866.51	0.000
866.80	481.818
867.10	1180.000
867.39	492.308
867.69	572.727
867.98	305.263
868.27	590.909
868.57	352.632
868.86	-5300.000
869.16	368.750
869.45	2600.000
869.75	-5100.000
870.04	466.667
870.33	900.000
870.63	1150.000
870.92	3150.000
871.22	757.143
871.51	358.824
871.80	290.476
872.10	464.286
>>>>>End Processed Spectral Data<<<<<
