SpectraSuite Data File
++++++++++++++++++++++++++++++++++++
Date: Wed May 13 19:49:48 PDT 2015
User: schluterlab
Dark Spectrum Present: Yes
Reference Spectrum Present: Yes
Number of Sampled Component Spectra: 1
Spectrometers: USB2E3373
Integration Time (usec): 3000 (USB2E3373)
Spectra Averaged: 3 (USB2E3373)
Boxcar Smoothing: 0 (USB2E3373)
Correct for Electrical Dark: No (USB2E3373)
Strobe/Lamp Enabled: No (USB2E3373)
Correct for Detector Non-linearity: No (USB2E3373)
Correct for Stray Light: No (USB2E3373)
Number of Pixels in Processed Spectrum: 2048
>>>>>Begin Processed Spectral Data<<<<<
178.53	0.000
178.91	-1450.000
179.29	-1350.000
179.67	-244.444
180.04	-1250.000
180.42	3100.000
180.80	1100.000
181.18	-1075.000
181.56	614.286
181.94	0.000
182.31	-785.714
182.69	1833.333
183.07	-587.500
183.45	-544.444
183.83	572.727
184.20	-410.000
184.58	2200.000
184.96	5500.000
185.34	-980.000
185.72	-650.000
186.09	-2500.000
186.47	2500.000
186.85	2900.000
187.23	5700.000
187.61	-1666.667
187.98	1400.000
188.36	590.909
188.74	554.545
189.12	-960.000
189.49	530.000
189.87	-4900.000
190.25	-1325.000
190.63	507.143
191.00	400.000
191.38	900.000
191.76	-1300.000
192.14	1575.000
192.51	775.000
192.89	950.000
193.27	612.500
193.65	-1225.000
194.02	540.000
194.40	1180.000
194.78	550.000
195.15	483.333
195.53	610.000
195.91	-2100.000
196.29	381.250
196.66	347.368
197.04	-260.000
197.42	0.000
197.79	640.000
198.17	-5300.000
198.55	714.286
198.92	725.000
199.30	820.000
199.68	0.000
200.05	338.889
200.43	800.000
200.81	4800.000
201.18	1833.333
201.56	-1800.000
201.94	600.000
202.31	566.667
202.69	508.333
203.07	550.000
203.44	0.000
203.82	1325.000
204.19	800.000
204.57	528.571
204.95	762.500
205.32	1933.333
205.70	572.727
206.08	364.286
206.45	2400.000
206.83	387.500
207.20	1033.333
207.58	700.000
207.96	327.778
208.33	750.000
208.71	-716.667
209.08	814.286
209.46	633.333
209.84	545.455
210.21	-1766.667
210.59	1500.000
210.96	-500.000
211.34	2450.000
211.71	630.000
212.09	883.333
212.46	0.000
212.84	1600.000
213.22	1375.000
213.59	-4500.000
213.97	1100.000
214.34	900.000
214.72	636.364
215.09	1540.000
215.47	-2450.000
215.84	-2200.000
216.22	1766.667
216.59	414.286
216.97	1400.000
217.34	554.545
217.72	-733.333
218.09	0.000
218.47	-5000.000
218.84	677.778
219.22	700.000
219.59	1833.333
219.97	-814.286
220.34	1080.000
220.72	-1866.667
221.09	414.286
221.47	1475.000
221.84	-850.000
222.22	0.000
222.59	1550.000
222.97	-2900.000
223.34	1200.000
223.72	469.231
224.09	1240.000
224.46	2400.000
224.84	-4900.000
225.21	-1040.000
225.59	-5400.000
225.96	550.000
226.34	310.000
226.71	3000.000
227.08	750.000
227.46	600.000
227.83	-1275.000
228.21	-2750.000
228.58	622.222
228.95	-2400.000
229.33	-2750.000
229.70	1833.333
230.08	785.714
230.45	-900.000
230.82	483.333
231.20	916.667
231.57	614.286
231.95	533.333
232.32	290.909
232.69	472.727
233.07	871.429
233.44	415.385
233.81	-2066.667
234.19	331.579
234.56	425.000
234.93	516.667
235.31	481.818
235.68	461.538
236.05	421.429
236.43	190.909
236.80	315.789
237.17	4900.000
237.55	242.857
237.92	225.000
238.29	314.286
238.67	229.032
239.04	227.586
239.41	172.222
239.79	178.261
240.16	166.667
240.53	172.727
240.91	125.490
241.28	140.000
241.65	128.000
242.02	123.188
242.40	95.161
242.77	118.333
243.14	87.097
243.51	102.247
243.89	94.118
244.26	82.222
244.63	93.548
245.00	91.489
245.38	99.010
245.75	86.916
246.12	86.239
246.49	75.912
246.87	84.000
247.24	76.923
247.61	64.286
247.98	74.510
248.36	64.865
248.73	62.420
249.10	68.153
249.47	69.492
249.84	71.123
250.22	63.636
250.59	69.822
250.96	68.182
251.33	62.559
251.70	65.347
252.08	61.429
252.45	56.951
252.82	53.913
253.19	57.447
253.56	58.039
253.94	60.166
254.31	59.375
254.68	58.077
255.05	57.565
255.42	57.724
255.79	59.191
256.16	50.542
256.54	53.357
256.91	55.160
257.28	52.158
257.65	52.145
258.02	49.379
258.39	50.158
258.76	48.495
259.14	47.619
259.51	50.456
259.88	48.758
260.25	51.057
260.62	50.578
260.99	52.795
261.36	50.751
261.73	48.711
262.10	47.384
262.47	50.704
262.85	47.075
263.22	49.288
263.59	50.712
263.96	47.802
264.33	46.736
264.70	49.737
265.07	49.872
265.44	51.263
265.81	48.418
266.18	52.764
266.55	48.537
266.92	45.946
267.29	48.380
267.66	46.101
268.03	47.955
268.40	47.196
268.77	45.585
269.14	45.270
269.51	47.404
269.88	50.816
270.25	47.630
270.62	46.966
270.99	47.957
271.36	46.567
271.73	48.832
272.10	44.783
272.47	47.312
272.84	42.208
273.21	46.122
273.58	45.852
273.95	43.396
274.32	43.388
274.69	44.968
275.06	41.535
275.43	47.447
275.80	43.086
276.17	43.992
276.54	48.025
276.91	44.466
277.28	43.555
277.65	44.487
278.02	44.720
278.39	46.094
278.76	43.455
279.13	44.340
279.50	43.575
279.87	45.020
280.23	41.916
280.60	46.228
280.97	42.884
281.34	43.186
281.71	43.273
282.08	43.570
282.45	42.727
282.82	44.760
283.19	40.642
283.56	40.000
283.92	44.670
284.29	40.741
284.66	41.742
285.03	43.580
285.40	41.373
285.77	41.414
286.14	41.623
286.51	41.500
286.87	41.538
287.24	39.902
287.61	41.091
287.98	39.935
288.35	40.887
288.72	40.031
289.08	39.124
289.45	39.209
289.82	40.000
290.19	37.363
290.56	37.519
290.93	38.671
291.29	36.350
291.66	35.546
292.03	38.372
292.40	37.445
292.77	35.503
293.13	35.522
293.50	33.965
293.87	34.074
294.24	35.556
294.60	35.808
294.97	35.320
295.34	35.120
295.71	37.358
296.08	34.615
296.44	33.287
296.81	34.082
297.18	34.282
297.55	31.398
297.91	33.113
298.28	33.066
298.65	34.073
299.02	33.729
299.38	32.935
299.75	30.593
300.12	32.056
300.48	31.625
300.85	33.292
301.22	32.229
301.59	32.576
301.95	32.368
302.32	31.322
302.69	32.139
303.05	30.909
303.42	31.235
303.79	30.238
304.15	29.837
304.52	31.634
304.89	30.430
305.25	30.858
305.62	30.917
305.99	32.349
306.35	30.313
306.72	31.054
307.09	31.853
307.45	31.869
307.82	29.129
308.19	30.132
308.55	33.010
308.92	32.009
309.29	28.722
309.65	30.859
310.02	30.867
310.38	31.290
310.75	31.362
311.12	31.525
311.48	31.452
311.85	31.027
312.22	32.466
312.58	30.457
312.95	30.940
313.31	29.126
313.68	32.952
314.05	32.249
314.41	31.759
314.78	31.319
315.14	31.678
315.51	33.265
315.87	33.069
316.24	33.664
316.61	33.333
316.97	32.681
317.34	31.605
317.70	34.990
318.07	33.590
318.43	35.323
318.80	34.021
319.16	34.840
319.53	33.490
319.89	36.000
320.26	36.600
320.62	36.706
320.99	36.263
321.35	36.768
321.72	37.577
322.08	37.611
322.45	39.900
322.81	39.438
323.18	38.536
323.54	39.981
323.91	39.906
324.27	40.631
324.64	39.981
325.00	39.585
325.37	41.856
325.73	42.190
326.10	42.807
326.46	41.577
326.83	44.262
327.19	44.321
327.56	45.470
327.92	45.319
328.29	45.697
328.65	45.580
329.01	45.397
329.38	46.531
329.74	48.015
330.11	47.502
330.47	47.383
330.84	46.599
331.20	47.268
331.56	46.881
331.93	48.056
332.29	46.673
332.66	47.788
333.02	47.075
333.38	47.967
333.75	48.307
334.11	48.754
334.48	48.004
334.84	48.529
335.20	49.364
335.57	49.773
335.93	48.839
336.29	48.352
336.66	49.234
337.02	47.783
337.38	48.889
337.75	49.822
338.11	48.254
338.47	48.343
338.84	48.671
339.20	46.881
339.56	50.182
339.93	48.636
340.29	48.641
340.65	49.198
341.02	48.691
341.38	48.577
341.74	48.684
342.11	49.083
342.47	49.163
342.83	48.887
343.20	49.004
343.56	48.778
343.92	48.509
344.28	48.384
344.65	49.871
345.01	47.896
345.37	47.341
345.73	47.293
346.10	47.570
346.46	47.797
346.82	49.671
347.19	48.872
347.55	46.798
347.91	48.948
348.27	47.987
348.63	47.910
349.00	47.573
349.36	48.440
349.72	48.115
350.08	47.650
350.45	48.739
350.81	47.197
351.17	47.650
351.53	48.731
351.89	47.690
352.26	46.961
352.62	48.356
352.98	47.893
353.34	47.412
353.70	47.054
354.07	47.419
354.43	47.222
354.79	46.742
355.15	47.885
355.51	48.681
355.87	48.653
356.24	48.290
356.60	48.115
356.96	47.949
357.32	48.651
357.68	47.874
358.04	47.268
358.40	47.348
358.77	48.435
359.13	46.882
359.49	45.333
359.85	46.905
360.21	46.332
360.57	47.938
360.93	49.308
361.29	47.543
361.66	47.910
362.02	46.269
362.38	47.452
362.74	47.917
363.10	46.780
363.46	47.322
363.82	47.846
364.18	46.990
364.54	48.143
364.90	47.592
365.26	48.456
365.62	47.407
365.98	48.430
366.35	45.702
366.71	47.216
367.07	48.580
367.43	48.766
367.79	48.394
368.15	47.989
368.51	46.657
368.87	47.823
369.23	46.891
369.59	47.864
369.95	47.353
370.31	47.721
370.67	46.522
371.03	48.240
371.39	47.230
371.75	47.574
372.11	46.017
372.47	48.387
372.83	49.063
373.19	47.182
373.55	48.633
373.91	48.527
374.27	48.110
374.63	48.073
374.99	47.458
375.35	47.104
375.71	47.019
376.07	47.394
376.42	46.492
376.78	47.250
377.14	47.422
377.50	47.020
377.86	47.540
378.22	47.598
378.58	46.992
378.94	47.392
379.30	46.883
379.66	49.302
380.02	47.482
380.38	47.055
380.74	47.419
381.09	47.249
381.45	48.310
381.81	48.034
382.17	46.178
382.53	47.862
382.89	48.333
383.25	46.904
383.61	47.274
383.97	48.155
384.32	47.037
384.68	46.592
385.04	46.773
385.40	46.687
385.76	47.113
386.12	46.891
386.48	46.633
386.83	48.557
387.19	48.299
387.55	47.928
387.91	47.279
388.27	46.597
388.62	47.511
388.98	46.437
389.34	46.871
389.70	46.536
390.06	48.352
390.42	47.990
390.77	47.646
391.13	47.990
391.49	47.843
391.85	47.295
392.20	47.382
392.56	47.412
392.92	46.792
393.28	46.568
393.64	47.122
393.99	46.793
394.35	46.712
394.71	47.051
395.07	45.358
395.42	47.528
395.78	46.120
396.14	46.741
396.50	47.556
396.85	47.807
397.21	46.178
397.57	47.117
397.92	47.476
398.28	46.525
398.64	45.938
399.00	47.398
399.35	45.234
399.71	46.296
400.07	47.368
400.42	46.933
400.78	46.683
401.14	46.280
401.49	47.224
401.85	45.796
402.21	46.287
402.57	46.329
402.92	47.163
403.28	47.408
403.63	47.339
403.99	46.051
404.35	47.636
404.70	46.463
405.06	45.836
405.42	46.538
405.77	45.714
406.13	45.372
406.49	46.541
406.84	45.659
407.20	46.040
407.55	47.096
407.91	46.533
408.27	46.458
408.62	45.756
408.98	45.833
409.34	43.973
409.69	47.355
410.05	46.468
410.40	46.972
410.76	44.803
411.11	45.115
411.47	46.198
411.83	45.449
412.18	45.516
412.54	45.455
412.89	45.964
413.25	45.455
413.60	45.769
413.96	45.234
414.31	45.322
414.67	46.134
415.03	45.629
415.38	45.683
415.74	44.952
416.09	46.832
416.45	45.181
416.80	45.803
417.16	46.381
417.51	46.450
417.87	46.179
418.22	45.489
418.58	45.836
418.93	46.192
419.29	45.576
419.64	46.474
420.00	45.549
420.35	44.754
420.71	45.726
421.06	45.406
421.42	45.263
421.77	45.404
422.12	44.919
422.48	44.522
422.83	44.729
423.19	43.978
423.54	46.140
423.90	45.507
424.25	44.779
424.61	46.012
424.96	45.306
425.31	45.238
425.67	43.820
426.02	45.086
426.38	46.703
426.73	45.816
427.09	46.869
427.44	45.888
427.79	45.141
428.15	45.417
428.50	44.763
428.85	45.948
429.21	45.500
429.56	45.308
429.92	44.187
430.27	43.843
430.62	44.035
430.98	44.629
431.33	44.381
431.68	44.346
432.04	44.249
432.39	45.117
432.74	45.542
433.10	44.992
433.45	45.073
433.80	44.789
434.16	44.712
434.51	44.632
434.86	44.356
435.22	44.969
435.57	45.471
435.92	44.587
436.28	45.136
436.63	45.033
436.98	44.533
437.34	45.558
437.69	45.624
438.04	45.531
438.39	45.791
438.75	45.613
439.10	45.196
439.45	44.687
439.81	44.713
440.16	44.438
440.51	44.815
440.86	44.933
441.22	44.494
441.57	45.011
441.92	45.752
442.27	44.510
442.63	43.339
442.98	44.676
443.33	44.837
443.68	44.399
444.03	44.119
444.39	43.476
444.74	45.671
445.09	44.367
445.44	46.036
445.79	44.730
446.15	44.203
446.50	44.103
446.85	45.581
447.20	44.416
447.55	45.784
447.91	44.236
448.26	45.242
448.61	44.206
448.96	45.017
449.31	45.501
449.66	43.838
450.02	44.234
450.37	43.367
450.72	45.460
451.07	43.815
451.42	44.620
451.77	45.214
452.12	43.591
452.47	44.776
452.83	44.988
453.18	45.293
453.53	45.145
453.88	43.650
454.23	44.591
454.58	45.245
454.93	46.217
455.28	44.389
455.63	44.235
455.98	45.298
456.34	45.540
456.69	44.208
457.04	45.325
457.39	45.003
457.74	44.573
458.09	44.221
458.44	44.356
458.79	42.625
459.14	44.187
459.49	44.016
459.84	44.488
460.19	43.960
460.54	44.039
460.89	44.432
461.24	44.627
461.59	45.206
461.94	44.266
462.29	44.570
462.64	44.863
462.99	43.787
463.34	46.000
463.69	45.028
464.04	44.348
464.39	44.000
464.74	42.662
465.09	43.667
465.44	42.548
465.79	43.568
466.14	43.788
466.49	42.881
466.84	43.549
467.19	43.754
467.54	44.187
467.89	43.277
468.24	43.106
468.59	44.933
468.94	43.005
469.29	45.308
469.64	44.913
469.99	45.264
470.34	43.263
470.68	45.043
471.03	44.422
471.38	45.865
471.73	44.370
472.08	44.737
472.43	43.405
472.78	42.923
473.13	44.352
473.48	44.569
473.83	44.817
474.17	43.124
474.52	44.045
474.87	44.425
475.22	44.573
475.57	42.773
475.92	43.070
476.27	43.348
476.61	43.574
476.96	41.891
477.31	43.119
477.66	43.545
478.01	42.603
478.36	42.729
478.70	42.212
479.05	43.078
479.40	43.040
479.75	43.264
480.10	42.495
480.45	41.599
480.79	42.236
481.14	42.319
481.49	43.237
481.84	41.701
482.19	43.208
482.53	42.018
482.88	43.322
483.23	41.822
483.58	41.856
483.92	42.362
484.27	40.741
484.62	42.371
484.97	40.796
485.31	41.062
485.66	39.012
486.01	38.136
486.36	36.771
486.70	37.317
487.05	38.295
487.40	39.326
487.75	40.252
488.09	41.796
488.44	41.694
488.79	43.255
489.13	42.475
489.48	42.129
489.83	42.167
490.17	41.648
490.52	41.054
490.87	42.560
491.22	42.065
491.56	41.048
491.91	41.554
492.26	40.974
492.60	41.567
492.95	41.347
493.30	40.748
493.64	41.391
493.99	40.622
494.34	41.443
494.68	41.987
495.03	41.541
495.37	40.670
495.72	41.374
496.07	41.810
496.41	39.867
496.76	40.853
497.11	41.378
497.45	41.127
497.80	42.083
498.14	40.821
498.49	41.902
498.84	41.850
499.18	41.714
499.53	41.263
499.87	41.286
500.22	40.980
500.56	42.282
500.91	41.875
501.26	40.872
501.60	41.054
501.95	40.330
502.29	40.534
502.64	41.061
502.98	41.000
503.33	40.265
503.67	40.510
504.02	40.131
504.36	39.729
504.71	41.329
505.06	41.446
505.40	40.447
505.75	40.405
506.09	39.650
506.44	40.010
506.78	41.452
507.13	40.787
507.47	41.313
507.82	41.540
508.16	41.641
508.51	40.538
508.85	41.013
509.19	40.867
509.54	40.663
509.88	40.185
510.23	41.080
510.57	41.538
510.92	41.481
511.26	40.493
511.61	41.286
511.95	39.979
512.30	40.827
512.64	41.376
512.98	41.372
513.33	40.471
513.67	40.021
514.02	40.314
514.36	40.360
514.70	40.122
515.05	41.104
515.39	40.998
515.74	41.498
516.08	40.525
516.42	40.899
516.77	41.527
517.11	39.789
517.46	40.971
517.80	40.476
518.14	40.764
518.49	41.890
518.83	39.659
519.17	40.358
519.52	39.785
519.86	40.274
520.20	40.867
520.55	40.934
520.89	41.849
521.23	41.737
521.58	40.636
521.92	41.702
522.26	39.902
522.61	40.312
522.95	41.068
523.29	40.353
523.64	41.280
523.98	40.850
524.32	40.229
524.66	40.649
525.01	40.931
525.35	39.591
525.69	41.256
526.04	39.315
526.38	39.841
526.72	39.448
527.06	40.678
527.41	39.047
527.75	40.322
528.09	41.040
528.43	40.472
528.78	39.951
529.12	40.364
529.46	40.600
529.80	39.728
530.15	39.439
530.49	38.954
530.83	39.177
531.17	40.470
531.51	40.986
531.86	40.581
532.20	38.657
532.54	41.192
532.88	39.859
533.22	39.163
533.57	39.383
533.91	38.832
534.25	38.275
534.59	39.475
534.93	38.073
535.27	38.926
535.62	39.194
535.96	38.732
536.30	39.479
536.64	40.116
536.98	39.217
537.32	40.026
537.66	40.200
538.01	39.434
538.35	39.043
538.69	38.609
539.03	38.467
539.37	38.466
539.71	37.200
540.05	38.954
540.39	39.668
540.73	37.581
541.07	39.714
541.42	38.813
541.76	39.677
542.10	38.810
542.44	38.742
542.78	39.262
543.12	37.620
543.46	40.000
543.80	38.972
544.14	37.997
544.48	39.556
544.82	37.011
545.16	39.362
545.50	37.082
545.84	39.583
546.18	38.721
546.52	38.472
546.86	38.144
547.20	38.301
547.54	37.408
547.88	38.648
548.22	36.986
548.56	37.925
548.90	36.684
549.24	37.845
549.58	37.381
549.92	38.393
550.26	38.352
550.60	37.552
550.94	38.662
551.28	38.771
551.62	39.324
551.96	37.333
552.30	37.270
552.64	38.337
552.98	37.898
553.32	37.761
553.66	36.401
554.00	37.886
554.34	37.060
554.68	38.913
555.02	38.223
555.36	37.439
555.69	37.145
556.03	37.820
556.37	37.790
556.71	37.108
557.05	37.395
557.39	36.949
557.73	37.544
558.07	37.563
558.41	37.844
558.75	37.032
559.08	39.448
559.42	38.398
559.76	36.912
560.10	36.759
560.44	36.478
560.78	36.128
561.12	36.148
561.45	36.310
561.79	37.113
562.13	36.553
562.47	36.339
562.81	36.471
563.15	37.258
563.48	36.074
563.82	36.530
564.16	35.252
564.50	35.482
564.84	36.220
565.17	35.779
565.51	36.230
565.85	36.104
566.19	35.942
566.52	36.225
566.86	35.865
567.20	35.495
567.54	35.674
567.88	34.927
568.21	35.926
568.55	35.035
568.89	34.339
569.23	33.512
569.56	32.591
569.90	32.415
570.24	32.867
570.57	32.472
570.91	31.092
571.25	31.933
571.59	31.900
571.92	31.192
572.26	31.802
572.60	31.832
572.93	32.024
573.27	31.795
573.61	31.965
573.95	31.835
574.28	30.930
574.62	30.539
574.96	30.346
575.29	30.941
575.63	30.818
575.97	31.164
576.30	31.625
576.64	31.160
576.98	30.846
577.31	30.938
577.65	30.988
577.98	30.559
578.32	29.825
578.66	30.692
578.99	31.271
579.33	31.203
579.67	30.941
580.00	31.240
580.34	31.300
580.67	31.080
581.01	30.942
581.35	30.886
581.68	29.905
582.02	29.648
582.35	30.217
582.69	30.263
583.02	30.467
583.36	31.058
583.70	31.269
584.03	31.923
584.37	32.279
584.70	31.531
585.04	30.969
585.37	31.034
585.71	30.569
586.04	30.539
586.38	30.982
586.72	31.179
587.05	30.399
587.39	30.607
587.72	30.430
588.06	30.790
588.39	30.864
588.73	30.859
589.06	31.723
589.40	32.256
589.73	31.679
590.07	31.815
590.40	31.494
590.73	32.201
591.07	32.438
591.40	31.927
591.74	33.203
592.07	32.068
592.41	31.790
592.74	31.536
593.08	30.280
593.41	30.465
593.75	29.419
594.08	30.406
594.41	31.813
594.75	30.684
595.08	30.744
595.42	31.594
595.75	31.232
596.09	31.431
596.42	31.945
596.75	31.279
597.09	31.299
597.42	31.071
597.75	32.514
598.09	31.565
598.42	31.658
598.76	30.361
599.09	30.597
599.42	30.349
599.76	30.637
600.09	30.237
600.42	29.547
600.76	30.357
601.09	29.945
601.42	30.213
601.76	31.157
602.09	31.146
602.42	31.568
602.76	31.802
603.09	30.803
603.42	31.004
603.76	29.954
604.09	30.671
604.42	30.860
604.76	30.915
605.09	31.586
605.42	30.483
605.75	30.877
606.09	30.663
606.42	31.140
606.75	30.817
607.09	31.059
607.42	31.108
607.75	29.916
608.08	30.004
608.42	30.659
608.75	30.478
609.08	30.620
609.41	31.223
609.75	31.301
610.08	31.433
610.41	30.028
610.74	30.842
611.07	31.374
611.41	31.796
611.74	32.780
612.07	32.143
612.40	31.742
612.73	31.105
613.07	31.358
613.40	32.017
613.73	31.044
614.06	31.935
614.39	30.781
614.72	30.947
615.06	32.090
615.39	31.051
615.72	31.084
616.05	30.409
616.38	31.518
616.71	31.651
617.05	31.979
617.38	31.209
617.71	31.832
618.04	32.512
618.37	31.283
618.70	32.110
619.03	32.500
619.36	32.519
619.69	32.394
620.03	31.868
620.36	32.152
620.69	32.877
621.02	33.923
621.35	32.733
621.68	32.710
622.01	32.817
622.34	32.753
622.67	33.232
623.00	32.208
623.33	31.451
623.66	32.380
623.99	32.474
624.32	31.954
624.65	32.556
624.99	30.737
625.32	31.427
625.65	32.682
625.98	32.667
626.31	32.815
626.64	34.122
626.97	31.505
627.30	32.668
627.63	32.814
627.96	33.053
628.29	35.083
628.62	34.126
628.95	35.377
629.28	32.299
629.61	33.364
629.94	33.524
630.26	33.460
630.59	33.556
630.92	33.525
631.25	31.984
631.58	32.533
631.91	34.077
632.24	33.544
632.57	34.523
632.90	33.662
633.23	35.235
633.56	33.220
633.89	34.655
634.22	34.393
634.55	35.385
634.88	35.928
635.20	34.886
635.53	35.301
635.86	33.292
636.19	34.471
636.52	34.602
636.85	33.333
637.18	33.525
637.51	34.043
637.83	34.032
638.16	35.038
638.49	34.257
638.82	34.893
639.15	33.625
639.48	35.661
639.81	35.255
640.13	35.937
640.46	36.107
640.79	35.403
641.12	33.287
641.45	34.218
641.77	37.113
642.10	35.965
642.43	33.483
642.76	38.235
643.09	36.503
643.41	35.508
643.74	37.191
644.07	35.518
644.40	37.577
644.73	35.118
645.05	36.926
645.38	36.019
645.71	34.622
646.04	38.538
646.36	37.730
646.69	39.298
647.02	37.075
647.35	36.770
647.67	37.345
648.00	38.049
648.33	36.634
648.66	35.455
648.98	38.081
649.31	36.472
649.64	36.472
649.96	32.787
650.29	36.809
650.62	33.657
650.94	35.494
651.27	38.682
651.60	36.106
651.92	35.144
652.25	35.179
652.58	34.891
652.90	38.073
653.23	35.747
653.56	34.488
653.88	36.609
654.21	36.809
654.54	36.964
654.86	35.514
655.19	34.324
655.52	23.790
655.84	20.748
656.17	26.883
656.49	37.437
656.82	39.255
657.15	30.648
657.47	22.938
657.80	17.949
658.13	19.207
658.45	28.932
658.78	30.376
659.10	32.373
659.43	33.833
659.75	35.552
660.08	38.481
660.41	39.385
660.73	38.755
661.06	38.535
661.38	40.000
661.71	38.846
662.03	40.631
662.36	37.575
662.68	37.550
663.01	37.980
663.33	36.943
663.66	37.605
663.98	37.797
664.31	38.866
664.63	35.223
664.96	34.004
665.28	37.295
665.61	37.232
665.93	32.998
666.26	40.365
666.58	36.611
666.91	38.055
667.23	41.124
667.56	37.581
667.88	38.462
668.21	39.446
668.53	37.093
668.86	36.580
669.18	37.953
669.50	39.348
669.83	40.087
670.15	40.889
670.48	35.730
670.80	38.578
671.13	38.641
671.45	36.383
671.77	39.104
672.10	33.826
672.42	34.806
672.75	35.489
673.07	35.035
673.39	36.166
673.72	35.547
674.04	36.078
674.37	35.340
674.69	34.356
675.01	35.565
675.34	38.604
675.66	39.158
675.98	34.827
676.31	36.975
676.63	36.943
676.95	34.591
677.28	37.617
677.60	37.363
677.92	37.975
678.25	36.345
678.57	38.645
678.89	37.275
679.22	37.132
679.54	35.115
679.86	35.780
680.18	33.631
680.51	36.879
680.83	37.011
681.15	36.981
681.48	36.106
681.80	35.783
682.12	35.057
682.44	32.882
682.77	37.067
683.09	39.056
683.41	40.133
683.73	35.762
684.06	35.124
684.38	35.812
684.70	36.628
685.02	33.021
685.34	32.784
685.67	31.643
685.99	33.333
686.31	34.471
686.63	34.452
686.96	32.500
687.28	34.657
687.60	32.246
687.92	35.283
688.24	35.551
688.56	36.345
688.89	36.722
689.21	37.991
689.53	35.908
689.85	35.477
690.17	32.091
690.49	36.306
690.82	40.421
691.14	34.375
691.46	35.021
691.78	34.337
692.10	33.884
692.42	35.329
692.74	33.610
693.06	39.362
693.39	35.318
693.71	37.555
694.03	34.737
694.35	33.333
694.67	36.613
694.99	40.244
695.31	39.461
695.63	38.517
695.95	35.697
696.27	36.294
696.59	37.824
696.91	38.342
697.23	33.333
697.56	35.608
697.88	33.333
698.20	35.833
698.52	35.914
698.84	35.189
699.16	34.101
699.48	35.867
699.80	37.440
700.12	41.299
700.44	40.318
700.76	38.398
701.08	38.506
701.40	39.106
701.72	42.274
702.04	44.034
702.36	35.977
702.68	42.493
703.00	38.227
703.32	35.904
703.64	41.287
703.96	37.047
704.28	34.593
704.60	40.176
704.91	37.982
705.23	38.710
705.55	40.864
705.87	43.854
706.19	39.929
706.51	41.121
706.83	40.303
707.15	38.375
707.47	35.859
707.79	35.872
708.11	33.562
708.43	34.286
708.74	35.714
709.06	41.558
709.38	38.845
709.70	40.698
710.02	39.466
710.34	36.061
710.66	37.612
710.98	37.500
711.29	40.698
711.61	42.183
711.93	38.782
712.25	43.730
712.57	39.706
712.89	40.830
713.20	40.426
713.52	42.434
713.84	40.506
714.16	39.939
714.48	37.931
714.80	44.985
715.11	35.447
715.43	38.279
715.75	39.710
716.07	40.256
716.39	38.558
716.70	45.183
717.02	39.209
717.34	39.223
717.66	39.925
717.97	45.020
718.29	40.000
718.61	43.796
718.93	44.118
719.24	39.446
719.56	37.288
719.88	41.695
720.20	43.243
720.51	43.902
720.83	43.494
721.15	42.164
721.46	41.135
721.78	44.803
722.10	46.415
722.42	40.977
722.73	45.693
723.05	40.164
723.37	42.915
723.68	42.857
724.00	45.122
724.32	39.113
724.63	42.276
724.95	43.096
725.27	45.344
725.58	46.875
725.90	40.146
726.22	44.528
726.53	35.764
726.85	45.051
727.16	44.840
727.48	41.844
727.80	40.909
728.11	38.768
728.43	39.615
728.74	37.993
729.06	44.891
729.38	44.853
729.69	44.484
730.01	36.860
730.32	37.847
730.64	38.796
730.96	36.634
731.27	44.702
731.59	38.838
731.90	39.650
732.22	38.509
732.53	36.223
732.85	35.897
733.16	41.158
733.48	41.860
733.80	41.883
734.11	39.809
734.43	38.462
734.74	37.143
735.06	35.530
735.37	41.329
735.69	38.217
736.00	37.582
736.32	40.498
736.63	40.575
736.95	36.422
737.26	31.973
737.58	37.097
737.89	37.124
738.21	45.734
738.52	45.357
738.83	36.226
739.15	40.769
739.46	43.431
739.78	40.625
740.09	38.462
740.41	41.290
740.72	36.585
741.04	43.704
741.35	37.917
741.66	48.000
741.98	43.396
742.29	47.368
742.61	43.966
742.92	41.629
743.23	44.444
743.55	39.200
743.86	45.175
744.18	49.115
744.49	49.282
744.80	47.887
745.12	46.818
745.43	43.612
745.74	48.198
746.06	38.073
746.37	47.534
746.68	45.249
747.00	51.389
747.31	50.476
747.62	40.708
747.94	46.256
748.25	40.426
748.56	46.696
748.88	41.089
749.19	50.500
749.50	47.442
749.82	43.496
750.13	40.816
750.44	39.781
750.75	41.053
751.07	37.621
751.38	41.463
751.69	41.877
752.01	42.481
752.32	38.628
752.63	42.553
752.94	43.033
753.26	45.600
753.57	45.122
753.88	44.922
754.19	39.286
754.51	46.181
754.82	40.794
755.13	45.283
755.44	40.977
755.75	36.496
756.07	36.879
756.38	37.226
756.69	39.262
757.00	37.425
757.31	37.685
757.63	34.503
757.94	33.244
758.25	30.882
758.56	34.321
758.87	35.753
759.18	36.061
759.50	38.558
759.81	38.318
760.12	32.500
760.43	38.395
760.74	33.967
761.05	37.571
761.36	37.166
761.67	37.784
761.99	40.062
762.30	40.972
762.61	38.168
762.92	40.234
763.23	43.697
763.54	43.600
763.85	33.984
764.16	43.077
764.47	43.346
764.78	37.809
765.10	33.861
765.41	38.348
765.72	38.024
766.03	40.125
766.34	36.000
766.65	42.553
766.96	46.581
767.27	50.761
767.58	54.167
767.89	53.684
768.20	52.299
768.51	51.269
768.82	44.495
769.13	41.870
769.44	40.891
769.75	43.348
770.06	38.532
770.37	47.059
770.68	50.000
770.99	42.667
771.30	43.443
771.61	41.256
771.92	44.672
772.23	49.580
772.54	44.103
772.85	47.120
773.16	51.596
773.47	47.826
773.78	53.299
774.09	36.905
774.39	52.047
774.70	49.383
775.01	55.797
775.32	53.595
775.63	57.895
775.94	54.676
776.25	64.567
776.56	58.955
776.87	66.393
777.18	60.156
777.48	68.702
777.79	68.182
778.10	57.037
778.41	61.607
778.72	53.285
779.03	57.047
779.34	53.020
779.65	53.378
779.95	59.509
780.26	58.170
780.57	61.379
780.88	67.969
781.19	62.406
781.50	58.108
781.80	49.686
782.11	45.763
782.42	48.734
782.73	49.693
783.04	60.135
783.34	51.408
783.65	66.438
783.96	57.463
784.27	50.350
784.57	56.115
784.88	58.333
785.19	68.254
785.50	67.925
785.81	63.433
786.11	68.852
786.42	63.566
786.73	73.451
787.04	79.245
787.34	60.714
787.65	72.000
787.96	58.559
788.26	60.331
788.57	70.339
788.88	64.463
789.19	63.194
789.49	64.394
789.80	59.542
790.11	81.905
790.41	77.228
790.72	78.313
791.03	70.652
791.33	81.395
791.64	77.320
791.95	70.297
792.25	77.778
792.56	81.818
792.87	94.872
793.17	91.139
793.48	77.011
793.79	93.103
794.09	64.773
794.40	58.824
794.70	66.176
795.01	54.074
795.32	56.835
795.62	59.055
795.93	69.828
796.23	61.947
796.54	69.412
796.85	82.432
797.15	97.183
797.46	90.909
797.76	95.181
798.07	82.278
798.37	93.846
798.68	86.364
798.99	85.915
799.29	83.117
799.60	82.955
799.90	94.521
800.21	91.045
800.51	93.103
800.82	122.807
801.12	108.197
801.43	109.091
801.73	81.081
802.04	101.587
802.34	82.716
802.65	104.688
802.95	133.898
803.26	121.875
803.56	90.000
803.87	96.923
804.17	101.471
804.48	135.185
804.78	98.276
805.09	104.412
805.39	128.846
805.70	123.214
806.00	103.279
806.30	95.455
806.61	75.610
806.91	81.013
807.22	77.632
807.52	85.075
807.83	98.592
808.13	117.187
808.43	101.667
808.74	78.947
809.04	100.000
809.35	101.493
809.65	96.053
809.95	111.290
810.26	111.864
810.56	101.587
810.86	134.091
811.17	173.810
811.47	115.000
811.77	114.815
812.08	118.182
812.38	116.000
812.69	138.889
812.99	156.818
813.29	100.000
813.59	114.286
813.90	142.857
814.20	114.545
814.50	87.692
814.81	105.882
815.11	118.367
815.41	108.197
815.72	157.143
816.02	110.909
816.32	126.190
816.62	142.500
816.93	139.024
817.23	138.095
817.53	122.727
817.84	163.636
818.14	147.826
818.44	133.333
818.74	173.529
819.04	140.000
819.35	160.000
819.65	179.412
819.95	182.143
820.25	220.000
820.56	148.718
820.86	129.545
821.16	167.442
821.46	164.103
821.76	144.000
822.07	174.286
822.37	160.000
822.67	148.485
822.97	135.294
823.27	210.714
823.57	154.054
823.88	170.000
824.18	180.000
824.48	142.857
824.78	180.000
825.08	195.833
825.38	145.946
825.69	119.512
825.99	229.167
826.29	172.414
826.59	165.789
826.89	157.895
827.19	173.529
827.49	206.452
827.79	161.364
828.09	152.273
828.39	146.809
828.70	124.490
829.00	196.296
829.30	180.645
829.60	167.500
829.90	353.333
830.20	196.429
830.50	252.174
830.80	195.652
831.10	196.667
831.40	193.333
831.70	243.478
832.00	265.385
832.30	225.926
832.60	368.750
832.90	186.667
833.20	378.571
833.50	212.903
833.80	168.966
834.10	218.750
834.40	226.923
834.70	327.778
835.00	300.000
835.30	165.714
835.60	338.462
835.90	224.138
836.20	357.143
836.50	200.000
836.80	244.000
837.10	191.667
837.40	252.381
837.70	352.941
838.00	233.333
838.30	280.952
838.60	300.000
838.90	207.692
839.19	225.000
839.49	414.286
839.79	350.000
840.09	275.000
840.39	261.905
840.69	230.435
840.99	333.333
841.29	490.000
841.59	308.333
841.88	356.250
842.18	186.207
842.48	266.667
842.78	203.333
843.08	269.565
843.38	181.250
843.68	1016.667
843.97	265.385
844.27	220.690
844.57	280.952
844.87	456.250
845.17	222.222
845.47	1766.667
845.76	555.556
846.06	388.235
846.36	637.500
846.66	400.000
846.96	325.000
847.25	318.182
847.55	472.727
847.85	291.304
848.15	530.000
848.44	357.143
848.74	288.889
849.04	329.412
849.34	660.000
849.63	252.632
849.93	454.545
850.23	980.000
850.53	471.429
850.82	2400.000
851.12	-5300.000
851.42	4700.000
851.71	295.000
852.01	-1400.000
852.31	229.167
852.61	2033.333
852.90	280.952
853.20	248.000
853.50	441.176
853.79	328.571
854.09	229.167
854.39	387.500
854.68	186.486
854.98	206.452
855.28	166.667
855.57	241.379
855.87	207.407
856.17	268.421
856.46	280.000
856.76	317.647
857.05	193.103
857.35	266.667
857.65	360.000
857.94	243.478
858.24	207.692
858.53	310.000
858.83	281.818
859.13	420.000
859.42	0.000
859.72	577.778
860.01	527.273
860.31	277.273
860.60	321.053
860.90	265.217
861.20	555.556
861.49	475.000
861.79	-5000.000
862.08	700.000
862.38	276.190
862.67	361.538
862.97	394.118
863.26	455.556
863.56	322.222
863.85	483.333
864.15	625.000
864.44	440.000
864.74	833.333
865.03	575.000
865.33	278.947
865.62	518.182
865.92	415.385
866.21	483.333
866.51	0.000
866.80	463.636
867.10	1060.000
867.39	515.385
867.69	472.727
867.98	252.632
868.27	554.545
868.57	305.263
868.86	-4600.000
869.16	375.000
869.45	2100.000
869.75	-4600.000
870.04	425.000
870.33	685.714
870.63	1000.000
870.92	2550.000
871.22	728.571
871.51	347.059
871.80	190.476
872.10	428.571
>>>>>End Processed Spectral Data<<<<<
