SpectraSuite Data File
++++++++++++++++++++++++++++++++++++
Date: Wed May 13 19:47:39 PDT 2015
User: schluterlab
Dark Spectrum Present: Yes
Reference Spectrum Present: Yes
Number of Sampled Component Spectra: 1
Spectrometers: USB2E3373
Integration Time (usec): 3000 (USB2E3373)
Spectra Averaged: 3 (USB2E3373)
Boxcar Smoothing: 0 (USB2E3373)
Correct for Electrical Dark: No (USB2E3373)
Strobe/Lamp Enabled: No (USB2E3373)
Correct for Detector Non-linearity: No (USB2E3373)
Correct for Stray Light: No (USB2E3373)
Number of Pixels in Processed Spectrum: 2048
>>>>>Begin Processed Spectral Data<<<<<
178.53	0.000
178.91	-1600.000
179.29	-1275.000
179.67	-277.778
180.04	-1300.000
180.42	2950.000
180.80	1060.000
181.18	-1175.000
181.56	814.286
181.94	0.000
182.31	-685.714
182.69	1733.333
183.07	-587.500
183.45	-611.111
183.83	554.545
184.20	-450.000
184.58	2350.000
184.96	5100.000
185.34	-800.000
185.72	-675.000
186.09	-2600.000
186.47	2200.000
186.85	2300.000
187.23	5800.000
187.61	-1500.000
187.98	1325.000
188.36	600.000
188.74	509.091
189.12	-740.000
189.49	520.000
189.87	-4900.000
190.25	-1250.000
190.63	428.571
191.00	430.769
191.38	833.333
191.76	-1150.000
192.14	1100.000
192.51	650.000
192.89	966.667
193.27	662.500
193.65	-1250.000
194.02	460.000
194.40	1040.000
194.78	620.000
195.15	491.667
195.53	720.000
195.91	-2350.000
196.29	318.750
196.66	294.737
197.04	-360.000
197.42	0.000
197.79	580.000
198.17	-4800.000
198.55	728.571
198.92	587.500
199.30	860.000
199.68	0.000
200.05	355.556
200.43	685.714
200.81	5100.000
201.18	1433.333
201.56	-1300.000
201.94	544.444
202.31	588.889
202.69	508.333
203.07	530.000
203.44	0.000
203.82	1025.000
204.19	885.714
204.57	528.571
204.95	637.500
205.32	1366.667
205.70	490.909
206.08	307.143
206.45	2650.000
206.83	400.000
207.20	916.667
207.58	800.000
207.96	327.778
208.33	750.000
208.71	-866.667
209.08	742.857
209.46	566.667
209.84	472.727
210.21	-1800.000
210.59	1075.000
210.96	-525.000
211.34	2800.000
211.71	550.000
212.09	750.000
212.46	0.000
212.84	1600.000
213.22	1525.000
213.59	-4100.000
213.97	950.000
214.34	828.571
214.72	590.909
215.09	1100.000
215.47	-2550.000
215.84	-2450.000
216.22	2033.333
216.59	400.000
216.97	1175.000
217.34	545.455
217.72	-633.333
218.09	0.000
218.47	-5400.000
218.84	566.667
219.22	700.000
219.59	1700.000
219.97	-642.857
220.34	900.000
220.72	-1333.333
221.09	435.714
221.47	1300.000
221.84	-883.333
222.22	0.000
222.59	1350.000
222.97	-2350.000
223.34	1380.000
223.72	453.846
224.09	1040.000
224.46	2800.000
224.84	-5700.000
225.21	-920.000
225.59	-4200.000
225.96	580.000
226.34	330.000
226.71	2500.000
227.08	662.500
227.46	620.000
227.83	-1175.000
228.21	-2700.000
228.58	655.556
228.95	-3000.000
229.33	-2400.000
229.70	1633.333
230.08	800.000
230.45	-960.000
230.82	483.333
231.20	966.667
231.57	771.429
231.95	533.333
232.32	250.000
232.69	436.364
233.07	771.429
233.44	338.462
233.81	-1733.333
234.19	331.579
234.56	508.333
234.93	425.000
235.31	554.545
235.68	315.385
236.05	385.714
236.43	193.939
236.80	310.526
237.17	4500.000
237.55	219.048
237.92	200.000
238.29	257.143
238.67	187.097
239.04	162.069
239.41	163.889
239.79	123.913
240.16	140.476
240.53	150.000
240.91	105.882
241.28	122.000
241.65	102.000
242.02	98.551
242.40	98.387
242.77	128.333
243.14	78.495
243.51	95.506
243.89	84.706
244.26	78.889
244.63	74.194
245.00	81.915
245.38	83.168
245.75	67.290
246.12	68.807
246.49	67.883
246.87	74.400
247.24	73.846
247.61	65.714
247.98	60.131
248.36	62.162
248.73	53.503
249.10	59.873
249.47	54.237
249.84	55.615
250.22	54.011
250.59	53.846
250.96	55.051
251.33	58.294
251.70	52.970
252.08	53.333
252.45	49.776
252.82	46.087
253.19	54.043
253.56	43.922
253.94	53.112
254.31	47.656
254.68	47.692
255.05	43.911
255.42	45.935
255.79	47.794
256.16	45.848
256.54	38.516
256.91	41.637
257.28	39.209
257.65	45.875
258.02	43.789
258.39	41.009
258.76	43.144
259.14	41.964
259.51	36.170
259.88	40.062
260.25	40.483
260.62	39.884
260.99	39.130
261.36	41.141
261.73	40.115
262.10	38.663
262.47	41.972
262.85	38.440
263.22	33.903
263.59	38.746
263.96	38.187
264.33	40.992
264.70	37.895
265.07	39.642
265.44	39.646
265.81	37.226
266.18	37.186
266.55	38.049
266.92	35.872
267.29	37.963
267.66	34.862
268.03	35.682
268.40	36.682
268.77	37.947
269.14	34.685
269.51	37.698
269.88	40.793
270.25	35.214
270.62	36.854
270.99	38.065
271.36	36.481
271.73	35.748
272.10	37.826
272.47	38.065
272.84	35.065
273.21	34.801
273.58	32.751
273.95	35.430
274.32	34.711
274.69	36.188
275.06	31.496
275.43	37.234
275.80	35.671
276.17	34.420
276.54	35.343
276.91	35.968
277.28	32.812
277.65	34.429
278.02	33.126
278.39	35.937
278.76	34.000
279.13	34.717
279.50	35.196
279.87	36.056
280.23	33.333
280.60	34.816
280.97	32.163
281.34	33.982
281.71	33.273
282.08	35.701
282.45	32.182
282.82	33.037
283.19	31.194
283.56	31.754
283.92	32.826
284.29	34.215
284.66	31.216
285.03	31.103
285.40	30.458
285.77	31.481
286.14	31.434
286.51	32.500
286.87	32.650
287.24	32.410
287.61	30.498
287.98	31.494
288.35	30.586
288.72	30.530
289.08	30.516
289.45	29.654
289.82	29.431
290.19	29.356
290.56	28.790
290.93	28.097
291.29	28.834
291.66	28.171
292.03	29.942
292.40	30.396
292.77	28.107
293.13	27.313
293.50	29.009
293.87	26.963
294.24	27.852
294.60	25.036
294.97	27.180
295.34	25.811
295.71	26.278
296.08	25.926
296.44	25.860
296.81	26.816
297.18	26.965
297.55	24.670
297.91	25.989
298.28	26.238
298.65	25.979
299.02	25.823
299.38	25.896
299.75	24.528
300.12	24.266
300.48	24.875
300.85	25.401
301.22	23.822
301.59	22.727
301.95	24.937
302.32	24.904
302.69	24.014
303.05	25.091
303.42	22.840
303.79	23.556
304.15	22.611
304.52	22.596
304.89	24.274
305.25	22.158
305.62	23.330
305.99	22.904
306.35	23.154
306.72	21.973
307.09	23.307
307.45	24.437
307.82	21.540
308.19	22.185
308.55	24.272
308.92	23.093
309.29	22.175
309.65	22.587
310.02	22.727
310.38	22.473
310.75	22.175
311.12	23.030
311.48	23.197
311.85	23.061
312.22	22.789
312.58	21.414
312.95	22.492
313.31	22.136
313.68	21.310
314.05	23.373
314.41	21.809
314.78	21.249
315.14	22.344
315.51	21.730
315.87	22.574
316.24	20.556
316.61	20.760
316.97	21.135
317.34	19.961
317.70	21.893
318.07	20.982
318.43	21.233
318.80	22.024
319.16	20.433
319.53	19.981
319.89	21.238
320.26	22.100
320.62	21.032
320.99	21.818
321.35	21.111
321.72	20.842
322.08	20.632
322.45	21.592
322.81	21.124
323.18	21.676
323.54	20.037
323.91	21.415
324.27	20.937
324.64	20.969
325.00	19.477
325.37	20.928
325.73	22.442
326.10	20.918
326.46	20.161
326.83	21.570
327.19	20.325
327.56	21.341
327.92	20.910
328.29	20.586
328.65	21.639
329.01	21.570
329.38	20.352
329.74	20.591
330.11	19.981
330.47	20.661
330.84	22.151
331.20	20.310
331.56	21.193
331.93	19.444
332.29	19.698
332.66	20.354
333.02	20.475
333.38	20.235
333.75	21.301
334.11	21.085
334.48	20.586
334.84	20.404
335.20	20.273
335.57	19.946
335.93	19.196
336.29	20.055
336.66	21.551
337.02	19.276
337.38	20.463
337.75	18.806
338.11	19.338
338.47	20.442
338.84	18.698
339.20	18.991
339.56	21.168
339.93	18.545
340.29	18.750
340.65	19.340
341.02	20.942
341.38	19.751
341.74	18.772
342.11	19.563
342.47	19.912
342.83	19.178
343.20	21.039
343.56	19.040
343.92	20.526
344.28	19.473
344.65	20.120
345.01	19.024
345.37	18.611
345.73	18.782
346.10	19.096
346.46	20.763
346.82	18.699
347.19	18.713
347.55	18.966
347.91	19.094
348.27	19.803
348.63	18.645
349.00	17.638
349.36	18.883
349.72	19.567
350.08	18.639
350.45	18.714
350.81	18.440
351.17	18.801
351.53	18.919
351.89	16.667
352.26	18.942
352.62	19.647
352.98	18.314
353.34	18.242
353.70	17.758
354.07	18.629
354.43	17.857
354.79	18.423
355.15	17.318
355.51	18.305
355.87	18.694
356.24	18.078
356.60	17.883
356.96	19.308
357.32	17.661
357.68	19.449
358.04	18.290
358.40	17.736
358.77	18.466
359.13	17.680
359.49	17.882
359.85	17.063
360.21	17.464
360.57	18.677
360.93	18.308
361.29	18.292
361.66	17.337
362.02	17.761
362.38	18.327
362.74	17.411
363.10	17.987
363.46	17.828
363.82	17.007
364.18	17.768
364.54	18.425
364.90	17.351
365.26	17.426
365.62	17.531
365.98	16.654
366.35	17.479
366.71	17.932
367.07	16.970
367.43	17.199
367.79	17.059
368.15	17.601
368.51	17.587
368.87	16.488
369.23	17.118
369.59	17.813
369.95	17.279
370.31	17.806
370.67	16.957
371.03	17.753
371.39	17.274
371.75	17.574
372.11	17.496
372.47	18.622
372.83	17.435
373.19	17.486
373.55	17.517
373.91	17.820
374.27	17.251
374.63	16.291
374.99	17.867
375.35	17.237
375.71	15.833
376.07	17.284
376.42	16.919
376.78	17.362
377.14	16.621
377.50	16.821
377.86	15.559
378.22	17.193
378.58	15.852
378.94	16.342
379.30	16.858
379.66	16.624
380.02	16.646
380.38	16.029
380.74	16.567
381.09	16.381
381.45	16.964
381.81	16.769
382.17	16.624
382.53	16.792
382.89	17.284
383.25	16.385
383.61	16.233
383.97	16.260
384.32	16.032
384.68	16.667
385.04	16.349
385.40	15.604
385.76	16.216
386.12	16.839
386.48	16.740
386.83	16.100
387.19	16.821
387.55	15.523
387.91	16.143
388.27	15.757
388.62	15.980
388.98	15.909
389.34	16.083
389.70	15.573
390.06	16.793
390.42	15.888
390.77	16.031
391.13	15.954
391.49	15.673
391.85	15.977
392.20	15.331
392.56	15.404
392.92	16.421
393.28	15.089
393.64	15.767
393.99	16.310
394.35	15.633
394.71	14.868
395.07	15.576
395.42	15.204
395.78	15.712
396.14	16.139
396.50	16.353
396.85	15.957
397.21	15.906
397.57	15.375
397.92	16.827
398.28	14.182
398.64	16.069
399.00	15.501
399.35	15.116
399.71	15.741
400.07	15.908
400.42	16.319
400.78	15.561
401.14	15.183
401.49	15.522
401.85	16.092
402.21	14.731
402.57	15.238
402.92	15.637
403.28	16.052
403.63	15.037
403.99	15.223
404.35	15.939
404.70	15.048
405.06	15.201
405.42	15.409
405.77	15.029
406.13	14.842
406.49	16.085
406.84	15.298
407.20	15.130
407.55	15.507
407.91	15.400
408.27	14.997
408.62	16.135
408.98	15.870
409.34	15.314
409.69	15.484
410.05	14.932
410.40	15.413
410.76	15.412
411.11	15.742
411.47	14.441
411.83	14.661
412.18	15.090
412.54	14.508
412.89	15.783
413.25	14.699
413.60	15.195
413.96	15.058
414.31	15.067
414.67	15.843
415.03	14.040
415.38	15.464
415.74	14.791
416.09	16.068
416.45	14.859
416.80	14.541
417.16	16.488
417.51	15.461
417.87	14.194
418.22	15.457
418.58	15.946
418.93	14.926
419.29	15.150
419.64	15.743
420.00	15.244
420.35	15.478
420.71	16.497
421.06	14.916
421.42	15.205
421.77	14.686
422.12	14.711
422.48	14.571
422.83	15.084
423.19	15.249
423.54	14.452
423.90	15.362
424.25	15.410
424.61	15.714
424.96	15.394
425.31	14.784
425.67	14.213
426.02	15.086
426.38	15.324
426.73	15.565
427.09	15.380
427.44	14.779
427.79	14.721
428.15	15.655
428.50	15.565
428.85	16.508
429.21	15.075
429.56	14.878
429.92	15.299
430.27	14.846
430.62	14.747
430.98	14.946
431.33	14.691
431.68	15.497
432.04	15.442
432.39	14.792
432.74	15.978
433.10	15.789
433.45	15.452
433.80	15.188
434.16	15.705
434.51	15.421
434.86	16.249
435.22	15.342
435.57	15.988
435.92	14.453
436.28	15.540
436.63	15.121
436.98	15.570
437.34	16.041
437.69	15.811
438.04	15.402
438.39	15.343
438.75	15.572
439.10	15.587
439.45	15.053
439.81	15.891
440.16	14.455
440.51	14.938
440.86	15.808
441.22	15.239
441.57	15.127
441.92	15.353
442.27	16.308
442.63	15.008
442.98	16.225
443.33	15.598
443.68	14.920
444.03	15.764
444.39	14.703
444.74	15.314
445.09	15.741
445.44	15.090
445.79	15.190
446.15	15.828
446.50	15.293
446.85	15.262
447.20	15.502
447.55	15.969
447.91	15.279
448.26	15.971
448.61	14.980
448.96	16.556
449.31	15.804
449.66	15.926
450.02	15.376
450.37	15.703
450.72	15.623
451.07	15.356
451.42	15.562
451.77	16.324
452.12	15.704
452.47	15.361
452.83	15.909
453.18	16.504
453.53	16.141
453.88	15.771
454.23	15.959
454.58	16.535
454.93	16.847
455.28	16.147
455.63	16.019
455.98	16.250
456.34	15.578
456.69	15.905
457.04	16.966
457.39	15.546
457.74	16.135
458.09	15.871
458.44	16.420
458.79	15.130
459.14	16.196
459.49	15.879
459.84	15.568
460.19	15.439
460.54	15.683
460.89	15.908
461.24	15.847
461.59	17.083
461.94	16.400
462.29	17.270
462.64	16.401
462.99	15.810
463.34	17.267
463.69	15.322
464.04	16.348
464.39	16.058
464.74	15.865
465.09	16.767
465.44	15.845
465.79	15.716
466.14	15.982
466.49	15.907
466.84	16.521
467.19	16.113
467.54	17.562
467.89	15.486
468.24	16.463
468.59	16.422
468.94	16.982
469.29	16.388
469.64	18.072
469.99	17.321
470.34	16.314
470.68	17.026
471.03	16.395
471.38	17.721
471.73	16.722
472.08	17.697
472.43	16.771
472.78	16.590
473.13	16.881
473.48	16.854
473.83	17.134
474.17	16.615
474.52	16.749
474.87	17.046
475.22	16.483
475.57	16.174
475.92	15.879
476.27	16.460
476.61	16.713
476.96	15.943
477.31	16.222
477.66	16.521
478.01	15.734
478.36	15.865
478.70	14.953
479.05	16.187
479.40	15.814
479.75	16.065
480.10	15.507
480.45	15.754
480.79	15.146
481.14	15.411
481.49	15.994
481.84	15.958
482.19	15.856
482.53	15.642
482.88	15.961
483.23	15.093
483.58	15.560
483.92	15.651
484.27	15.207
484.62	15.647
484.97	14.742
485.31	14.863
485.66	13.766
486.01	13.430
486.36	12.762
486.70	12.592
487.05	13.464
487.40	14.045
487.75	13.992
488.09	14.468
488.44	14.143
488.79	15.118
489.13	15.126
489.48	15.212
489.83	14.976
490.17	16.089
490.52	15.323
490.87	15.739
491.22	15.280
491.56	15.262
491.91	15.589
492.26	15.847
492.60	15.806
492.95	15.154
493.30	15.701
493.64	15.726
493.99	16.110
494.34	15.726
494.68	16.026
495.03	16.353
495.37	15.589
495.72	16.277
496.07	16.241
496.41	15.398
496.76	15.523
497.11	16.209
497.45	16.488
497.80	16.075
498.14	15.797
498.49	16.341
498.84	15.820
499.18	16.429
499.53	16.049
499.87	16.309
500.22	15.874
500.56	16.748
500.91	16.106
501.26	15.789
501.60	16.137
501.95	15.674
502.29	16.917
502.64	15.596
502.98	15.521
503.33	16.088
503.67	16.056
504.02	15.575
504.36	16.097
504.71	16.170
505.06	15.566
505.40	16.140
505.75	16.249
506.09	15.938
506.44	16.478
506.78	16.318
507.13	16.456
507.47	16.869
507.82	16.312
508.16	15.704
508.51	16.743
508.85	16.485
509.19	15.918
509.54	16.582
509.88	15.662
510.23	15.887
510.57	17.802
510.92	17.038
511.26	16.650
511.61	16.701
511.95	16.180
512.30	16.384
512.64	17.303
512.98	17.042
513.33	16.916
513.67	16.916
514.02	16.180
514.36	17.094
514.70	16.934
515.05	16.453
515.39	17.106
515.74	16.836
516.08	17.552
516.42	17.092
516.77	16.834
517.11	17.592
517.46	17.212
517.80	17.886
518.14	16.503
518.49	17.503
518.83	16.989
519.17	17.263
519.52	17.997
519.86	17.228
520.20	17.572
520.55	17.953
520.89	18.187
521.23	17.069
521.58	17.467
521.92	18.310
522.26	17.633
522.61	17.882
522.95	17.373
523.29	17.590
523.64	18.720
523.98	18.731
524.32	17.370
524.66	17.378
525.01	18.995
525.35	17.968
525.69	17.980
526.04	16.947
526.38	18.304
526.72	17.791
527.06	18.519
527.41	16.832
527.75	18.199
528.09	17.405
528.43	17.527
528.78	18.254
529.12	17.636
529.46	17.881
529.80	17.946
530.15	18.069
530.49	17.354
530.83	18.101
531.17	18.473
531.51	18.288
531.86	18.065
532.20	18.514
532.54	18.834
532.88	18.999
533.22	17.801
533.57	18.827
533.91	17.279
534.25	17.558
534.59	17.084
534.93	17.549
535.27	17.441
535.62	18.498
535.96	17.954
536.30	17.355
536.64	18.674
536.98	17.983
537.32	17.775
537.66	17.667
538.01	18.367
538.35	18.617
538.69	18.379
539.03	17.999
539.37	17.061
539.71	17.434
540.05	17.778
540.39	17.409
540.73	17.982
541.07	18.430
541.42	17.613
541.76	18.194
542.10	17.917
542.44	18.940
542.78	19.236
543.12	18.618
543.46	18.295
543.80	18.478
544.14	17.330
544.48	18.222
544.82	17.768
545.16	17.957
545.50	17.609
545.84	17.742
546.18	18.249
546.52	17.825
546.86	17.732
547.20	17.869
547.54	17.502
547.88	18.750
548.22	18.244
548.56	16.918
548.90	17.670
549.24	16.431
549.58	18.076
549.92	17.445
550.26	18.608
550.60	18.811
550.94	18.803
551.28	18.215
551.62	18.763
551.96	17.263
552.30	17.952
552.64	18.661
552.98	18.441
553.32	18.476
553.66	18.678
554.00	18.668
554.34	18.565
554.68	18.097
555.02	18.829
555.36	18.511
555.69	18.200
556.03	17.564
556.37	18.076
556.71	17.735
557.05	18.838
557.39	18.614
557.73	18.772
558.07	18.274
558.41	18.669
558.75	18.957
559.08	19.165
559.42	17.989
559.76	19.118
560.10	18.487
560.44	17.820
560.78	18.297
561.12	17.876
561.45	18.579
561.79	17.535
562.13	18.042
562.47	17.964
562.81	18.689
563.15	17.659
563.48	18.037
563.82	17.743
564.16	17.789
564.50	17.969
564.84	17.257
565.17	17.310
565.51	17.444
565.85	18.084
566.19	17.220
566.52	18.049
566.86	17.119
567.20	17.217
567.54	17.295
567.88	15.698
568.21	17.407
568.55	15.976
568.89	16.537
569.23	15.553
569.56	15.425
569.90	15.132
570.24	14.532
570.57	15.131
570.91	14.253
571.25	14.608
571.59	14.492
571.92	14.171
572.26	14.558
572.60	14.264
572.93	14.333
573.27	14.670
573.61	14.740
573.95	14.005
574.28	13.693
574.62	13.533
574.96	13.716
575.29	13.555
575.63	13.720
575.97	13.929
576.30	13.861
576.64	13.748
576.98	13.588
577.31	13.470
577.65	13.377
577.98	13.148
578.32	13.304
578.66	13.480
578.99	13.399
579.33	13.701
579.67	13.354
580.00	13.786
580.34	13.692
580.67	13.236
581.01	13.560
581.35	13.500
581.68	13.204
582.02	13.084
582.35	12.911
582.69	13.436
583.02	13.287
583.36	13.489
583.70	13.786
584.03	14.028
584.37	14.177
584.70	13.297
585.04	13.405
585.37	13.653
585.71	13.816
586.04	13.433
586.38	14.107
586.72	14.250
587.05	13.936
587.39	13.773
587.72	14.069
588.06	13.874
588.39	14.403
588.73	14.462
589.06	14.958
589.40	14.714
589.73	14.713
590.07	14.911
590.40	14.395
590.73	15.418
591.07	15.751
591.40	15.605
591.74	15.541
592.07	15.620
592.41	15.585
592.74	14.944
593.08	15.123
593.41	14.457
593.75	14.241
594.08	14.683
594.41	14.669
594.75	14.787
595.08	15.104
595.42	14.851
595.75	15.420
596.09	15.171
596.42	15.560
596.75	15.112
597.09	16.147
597.42	14.840
597.75	15.696
598.09	15.913
598.42	15.292
598.76	14.755
599.09	14.671
599.42	15.102
599.76	14.824
600.09	14.645
600.42	15.011
600.76	14.964
601.09	14.900
601.42	14.992
601.76	14.877
602.09	14.664
602.42	15.127
602.76	15.760
603.09	14.910
603.42	15.385
603.76	15.168
604.09	14.657
604.42	15.124
604.76	15.226
605.09	15.465
605.42	15.690
605.75	15.397
606.09	15.006
606.42	15.488
606.75	15.388
607.09	15.488
607.42	14.634
607.75	14.388
608.08	15.284
608.42	15.688
608.75	15.464
609.08	15.772
609.41	15.374
609.75	15.722
610.08	15.975
610.41	15.363
610.74	15.610
611.07	16.156
611.41	16.241
611.74	16.591
612.07	16.718
612.40	16.527
612.73	16.105
613.07	17.080
613.40	16.219
613.73	15.312
614.06	16.290
614.39	16.413
614.72	16.684
615.06	16.282
615.39	15.870
615.72	16.053
616.05	16.108
616.38	17.287
616.71	16.746
617.05	17.727
617.38	16.416
617.71	16.396
618.04	16.707
618.37	15.316
618.70	16.490
619.03	17.763
619.36	18.058
619.69	17.394
620.03	18.201
620.36	17.848
620.69	18.356
621.02	18.879
621.35	18.716
621.68	17.445
622.01	17.183
622.34	18.533
622.67	17.034
623.00	17.241
623.33	17.727
623.66	17.370
623.99	17.673
624.32	17.546
624.65	18.220
624.99	16.714
625.32	17.379
625.65	17.956
625.98	18.524
626.31	19.362
626.64	19.510
626.97	19.202
627.30	18.454
627.63	19.360
627.96	19.092
628.29	19.423
628.62	20.403
628.95	20.849
629.28	18.157
629.61	20.807
629.94	20.571
630.26	19.256
630.59	19.447
630.92	19.444
631.25	18.954
631.58	20.420
631.91	20.183
632.24	19.937
632.57	20.986
632.90	19.737
633.23	20.917
633.56	21.017
633.89	20.725
634.22	21.226
634.55	22.604
634.88	21.557
635.20	21.983
635.53	21.687
635.86	20.421
636.19	21.882
636.52	21.915
636.85	20.962
637.18	20.968
637.51	21.395
637.83	19.605
638.16	21.611
638.49	21.914
638.82	23.515
639.15	21.750
639.48	22.195
639.81	21.448
640.13	22.917
640.46	21.342
640.79	22.193
641.12	20.770
641.45	22.207
641.77	22.680
642.10	23.099
642.43	22.072
642.76	22.755
643.09	25.307
643.41	22.307
643.74	23.765
644.07	22.713
644.40	24.540
644.73	23.937
645.05	24.247
645.38	25.434
645.71	24.316
646.04	26.080
646.36	25.710
646.69	25.585
647.02	25.170
647.35	25.086
647.67	24.071
648.00	26.829
648.33	26.073
648.66	25.000
648.98	23.538
649.31	22.422
649.64	22.870
649.96	22.057
650.29	24.013
650.62	23.139
650.94	23.501
651.27	25.845
651.60	24.293
651.92	25.559
652.25	23.453
652.58	24.455
652.90	23.223
653.23	21.572
653.56	24.094
653.88	22.979
654.21	25.750
654.54	24.092
654.86	23.209
655.19	22.703
655.52	12.971
655.84	10.703
656.17	13.586
656.49	18.532
656.82	19.012
657.15	14.315
657.47	10.650
657.80	8.228
658.13	8.655
658.45	12.899
658.78	12.849
659.10	13.557
659.43	14.398
659.75	15.721
660.08	16.899
660.41	18.622
660.73	22.109
661.06	22.611
661.38	25.636
661.71	26.154
662.03	27.811
662.36	26.441
662.68	25.904
663.01	27.879
663.33	22.081
663.66	26.891
663.98	25.054
664.31	25.630
664.63	24.291
664.96	25.352
665.28	28.689
665.61	25.341
665.93	24.547
666.26	24.746
666.58	26.778
666.91	28.753
667.23	27.640
667.56	25.054
667.88	26.496
668.21	26.439
668.53	22.993
668.86	26.840
669.18	28.785
669.50	27.609
669.83	28.758
670.15	26.000
670.48	27.669
670.80	26.078
671.13	26.115
671.45	23.830
671.77	26.477
672.10	25.139
672.42	24.205
672.75	23.383
673.07	24.296
673.39	23.689
673.72	22.266
674.04	25.294
674.37	26.602
674.69	26.585
675.01	25.941
675.34	28.131
675.66	27.368
675.98	28.717
676.31	26.471
676.63	28.875
676.95	25.157
677.28	25.935
677.60	27.692
677.92	28.481
678.25	24.641
678.57	25.498
678.89	27.054
679.22	24.558
679.54	26.336
679.86	27.890
680.18	25.045
680.51	25.000
680.83	27.580
681.15	23.585
681.48	26.654
681.80	24.758
682.12	24.330
682.44	23.985
682.77	23.829
683.09	27.682
683.41	26.829
683.73	25.828
684.06	24.174
684.38	25.245
684.70	25.581
685.02	25.891
685.34	26.740
685.67	20.804
685.99	22.852
686.31	24.403
686.63	21.378
686.96	23.036
687.28	24.007
687.60	24.638
687.92	22.852
688.24	22.433
688.56	25.703
688.89	25.726
689.21	29.258
689.53	26.514
689.85	28.160
690.17	22.360
690.49	26.964
690.82	27.570
691.14	22.321
691.46	22.574
691.78	23.494
692.10	27.273
692.42	24.152
692.74	24.896
693.06	25.319
693.39	26.078
693.71	27.293
694.03	27.368
694.35	26.407
694.67	27.002
694.99	29.512
695.31	27.696
695.63	26.555
695.95	26.650
696.27	25.127
696.59	30.570
696.91	28.238
697.23	24.178
697.56	26.866
697.88	22.290
698.20	25.208
698.52	26.237
698.84	26.949
699.16	24.885
699.48	28.029
699.80	26.087
700.12	31.948
700.44	31.565
700.76	27.901
701.08	31.897
701.40	30.726
701.72	33.236
702.04	33.807
702.36	27.762
702.68	30.028
703.00	27.424
703.32	29.255
703.64	27.346
703.96	27.855
704.28	30.814
704.60	30.205
704.91	28.190
705.23	32.845
705.55	37.209
705.87	32.558
706.19	33.569
706.51	33.333
706.83	31.515
707.15	31.092
707.47	26.515
707.79	27.273
708.11	26.712
708.43	27.381
708.74	26.786
709.06	27.532
709.38	29.659
709.70	29.070
710.02	31.751
710.34	29.394
710.66	30.448
710.98	28.977
711.29	29.942
711.61	31.563
711.93	31.410
712.25	34.084
712.57	33.088
712.89	34.256
713.20	32.219
713.52	31.250
713.84	28.481
714.16	29.878
714.48	28.448
714.80	32.219
715.11	31.988
715.43	29.377
715.75	31.594
716.07	29.712
716.39	25.705
716.70	35.216
717.02	33.453
717.34	31.449
717.66	35.075
717.97	35.857
718.29	34.815
718.61	34.672
718.93	38.603
719.24	31.834
719.56	30.508
719.88	32.542
720.20	34.797
720.51	35.540
720.83	35.688
721.15	33.582
721.46	31.206
721.78	31.541
722.10	34.717
722.42	35.714
722.73	32.959
723.05	35.656
723.37	33.603
723.68	35.521
724.00	36.179
724.32	36.290
724.63	37.398
724.95	38.494
725.27	44.130
725.58	35.937
725.90	36.861
726.22	32.075
726.53	34.722
726.85	31.399
727.16	34.875
727.48	28.369
727.80	34.470
728.11	32.609
728.43	33.077
728.74	32.975
729.06	37.591
729.38	36.029
729.69	34.520
730.01	28.669
730.32	31.250
730.64	32.441
730.96	32.343
731.27	31.126
731.59	29.358
731.90	29.738
732.22	30.124
732.53	30.960
732.85	30.769
733.16	32.154
733.48	31.561
733.80	30.519
734.11	31.529
734.43	29.882
734.74	29.143
735.06	24.928
735.37	32.370
735.69	29.618
736.00	30.065
736.32	30.530
736.63	29.393
736.95	29.393
737.26	26.871
737.58	32.581
737.89	30.769
738.21	32.765
738.52	34.643
738.83	32.830
739.15	30.769
739.46	37.226
739.78	32.639
740.09	27.077
740.41	30.323
740.72	29.965
741.04	30.370
741.35	36.250
741.66	42.667
741.98	33.019
742.29	34.450
742.61	39.655
742.92	35.294
743.23	36.325
743.55	32.400
743.86	32.456
744.18	40.708
744.49	40.191
744.80	37.089
745.12	37.727
745.43	37.004
745.74	40.541
746.06	40.367
746.37	39.013
746.68	38.914
747.00	43.056
747.31	38.095
747.62	40.265
747.94	37.885
748.25	34.043
748.56	40.529
748.88	38.119
749.19	42.500
749.50	33.953
749.82	34.959
750.13	31.020
750.44	30.657
750.75	31.930
751.07	36.656
751.38	33.101
751.69	34.657
752.01	31.203
752.32	31.408
752.63	32.270
752.94	35.246
753.26	39.200
753.57	29.675
753.88	37.500
754.19	28.929
754.51	33.681
754.82	29.242
755.13	33.585
755.44	35.714
755.75	29.927
756.07	26.950
756.38	28.467
756.69	30.537
757.00	30.240
757.31	27.300
757.63	30.117
757.94	27.614
758.25	23.529
758.56	27.160
758.87	25.000
759.18	29.697
759.50	29.154
759.81	29.283
760.12	29.375
760.43	29.513
760.74	26.902
761.05	29.096
761.36	27.005
761.67	28.977
761.99	27.950
762.30	29.514
762.61	34.733
762.92	37.109
763.23	35.714
763.54	32.800
763.85	31.641
764.16	33.077
764.47	31.939
764.78	26.148
765.10	25.633
765.41	27.139
765.72	26.048
766.03	30.094
766.34	28.333
766.65	38.298
766.96	36.752
767.27	44.162
767.58	41.667
767.89	44.737
768.20	45.977
768.51	38.071
768.82	40.826
769.13	30.081
769.44	29.960
769.75	40.343
770.06	27.064
770.37	34.842
770.68	39.815
770.99	29.778
771.30	31.967
771.61	39.910
771.92	35.656
772.23	37.815
772.54	41.026
772.85	41.885
773.16	38.298
773.47	40.217
773.78	45.685
774.09	39.881
774.39	53.801
774.70	42.593
775.01	50.725
775.32	48.366
775.63	50.658
775.94	48.201
776.25	58.268
776.56	52.239
776.87	51.639
777.18	58.594
777.48	60.305
777.79	52.273
778.10	54.815
778.41	56.250
778.72	47.445
779.03	49.664
779.34	48.322
779.65	47.297
779.95	49.080
780.26	51.634
780.57	51.724
780.88	54.688
781.19	43.609
781.50	48.649
781.80	45.912
782.11	45.198
782.42	46.203
782.73	38.650
783.04	52.703
783.34	51.408
783.65	54.795
783.96	51.493
784.27	48.951
784.57	42.446
784.88	55.556
785.19	58.730
785.50	66.038
785.81	57.463
786.11	48.361
786.42	57.364
786.73	57.522
787.04	61.321
787.34	50.893
787.65	60.000
787.96	54.054
788.26	48.760
788.57	61.017
788.88	61.983
789.19	55.556
789.49	54.545
789.80	56.489
790.11	72.381
790.41	63.366
790.72	68.675
791.03	68.478
791.33	66.279
791.64	70.103
791.95	72.277
792.25	70.000
792.56	79.221
792.87	94.872
793.17	82.278
793.48	80.460
793.79	72.414
794.09	64.773
794.40	63.025
794.70	61.029
795.01	51.111
795.32	55.396
795.62	57.480
795.93	63.793
796.23	57.522
796.54	68.235
796.85	74.324
797.15	85.915
797.46	81.818
797.76	87.952
798.07	91.139
798.37	107.692
798.68	78.788
798.99	78.873
799.29	70.130
799.60	79.545
799.90	90.411
800.21	110.448
800.51	86.207
800.82	112.281
801.12	75.410
801.43	87.879
801.73	70.270
802.04	98.413
802.34	92.593
802.65	95.312
802.95	123.729
803.26	100.000
803.56	78.571
803.87	87.692
804.17	77.941
804.48	131.481
804.78	87.931
805.09	92.647
805.39	101.923
805.70	91.071
806.00	104.918
806.30	87.879
806.61	87.805
806.91	70.886
807.22	71.053
807.52	76.119
807.83	98.592
808.13	81.250
808.43	93.333
808.74	82.895
809.04	91.304
809.35	102.985
809.65	77.632
809.95	95.161
810.26	84.746
810.56	96.825
810.86	134.091
811.17	128.571
811.47	103.333
811.77	118.519
812.08	112.727
812.38	128.000
812.69	152.778
812.99	168.182
813.29	124.490
813.59	97.619
813.90	114.286
814.20	110.909
814.50	83.077
814.81	101.471
815.11	126.531
815.41	98.361
815.72	138.095
816.02	129.091
816.32	109.524
816.62	117.500
816.93	136.585
817.23	154.762
817.53	145.455
817.84	160.606
818.14	126.087
818.44	106.667
818.74	150.000
819.04	132.500
819.35	160.000
819.65	200.000
819.95	200.000
820.25	240.000
820.56	169.231
820.86	120.455
821.16	141.860
821.46	130.769
821.76	138.000
822.07	182.857
822.37	150.000
822.67	169.697
822.97	113.725
823.27	200.000
823.57	143.243
823.88	175.000
824.18	226.667
824.48	154.762
824.78	204.000
825.08	195.833
825.38	156.757
825.69	153.659
825.99	225.000
826.29	162.069
826.59	163.158
826.89	165.789
827.19	179.412
827.49	177.419
827.79	145.455
828.09	145.455
828.39	117.021
828.70	126.531
829.00	159.259
829.30	158.065
829.60	160.000
829.90	313.333
830.20	189.286
830.50	208.696
830.80	213.043
831.10	200.000
831.40	180.000
831.70	200.000
832.00	261.538
832.30	170.370
832.60	312.500
832.90	200.000
833.20	364.286
833.50	190.323
833.80	217.241
834.10	193.750
834.40	215.385
834.70	322.222
835.00	300.000
835.30	148.571
835.60	376.923
835.90	248.276
836.20	321.429
836.50	200.000
836.80	228.000
837.10	169.444
837.40	252.381
837.70	264.706
838.00	229.630
838.30	300.000
838.60	261.905
838.90	238.462
839.19	230.000
839.49	471.429
839.79	275.000
840.09	295.000
840.39	276.190
840.69	234.783
840.99	261.111
841.29	500.000
841.59	308.333
841.88	387.500
842.18	193.103
842.48	271.429
842.78	170.000
843.08	252.174
843.38	181.250
843.68	833.333
843.97	207.692
844.27	213.793
844.57	290.476
844.87	306.250
845.17	244.444
845.47	1666.667
845.76	544.444
846.06	294.118
846.36	525.000
846.66	342.857
846.96	337.500
847.25	472.727
847.55	427.273
847.85	273.913
848.15	450.000
848.44	321.429
848.74	288.889
849.04	311.765
849.34	560.000
849.63	326.316
849.93	445.455
850.23	1180.000
850.53	414.286
850.82	2150.000
851.12	-4700.000
851.42	4700.000
851.71	260.000
852.01	-1366.667
852.31	254.167
852.61	2033.333
852.90	304.762
853.20	224.000
853.50	311.765
853.79	290.476
854.09	220.833
854.39	337.500
854.68	170.270
854.98	177.419
855.28	160.000
855.57	234.483
855.87	233.333
856.17	221.053
856.46	300.000
856.76	264.706
857.05	217.241
857.35	225.000
857.65	306.667
857.94	234.783
858.24	234.615
858.53	250.000
858.83	236.364
859.13	333.333
859.42	0.000
859.72	588.889
860.01	463.636
860.31	259.091
860.60	300.000
860.90	221.739
861.20	544.444
861.49	475.000
861.79	-5300.000
862.08	650.000
862.38	290.476
862.67	369.231
862.97	317.647
863.26	466.667
863.56	288.889
863.85	483.333
864.15	587.500
864.44	386.667
864.74	1016.667
865.03	650.000
865.33	310.526
865.62	400.000
865.92	438.462
866.21	366.667
866.51	0.000
866.80	454.545
867.10	1000.000
867.39	430.769
867.69	490.909
867.98	284.211
868.27	481.818
868.57	294.737
868.86	-4700.000
869.16	368.750
869.45	2250.000
869.75	-3800.000
870.04	383.333
870.33	671.429
870.63	925.000
870.92	2650.000
871.22	685.714
871.51	323.529
871.80	266.667
872.10	364.286
>>>>>End Processed Spectral Data<<<<<
