SpectraSuite Data File
++++++++++++++++++++++++++++++++++++
Date: Wed May 13 19:35:27 PDT 2015
User: schluterlab
Dark Spectrum Present: Yes
Reference Spectrum Present: Yes
Number of Sampled Component Spectra: 1
Spectrometers: USB2E3373
Integration Time (usec): 3000 (USB2E3373)
Spectra Averaged: 3 (USB2E3373)
Boxcar Smoothing: 0 (USB2E3373)
Correct for Electrical Dark: No (USB2E3373)
Strobe/Lamp Enabled: No (USB2E3373)
Correct for Detector Non-linearity: No (USB2E3373)
Correct for Stray Light: No (USB2E3373)
Number of Pixels in Processed Spectrum: 2048
>>>>>Begin Processed Spectral Data<<<<<
178.53	0.000
178.91	-1625.000
179.29	-1625.000
179.67	-255.556
180.04	-1300.000
180.42	2750.000
180.80	1180.000
181.18	-1025.000
181.56	785.714
181.94	0.000
182.31	-671.429
182.69	2266.667
183.07	-675.000
183.45	-500.000
183.83	545.455
184.20	-360.000
184.58	2300.000
184.96	5600.000
185.34	-760.000
185.72	-650.000
186.09	-3050.000
186.47	2800.000
186.85	3100.000
187.23	5300.000
187.61	-1766.667
187.98	1250.000
188.36	527.273
188.74	609.091
189.12	-980.000
189.49	600.000
189.87	-4300.000
190.25	-1300.000
190.63	421.429
191.00	492.308
191.38	816.667
191.76	-1300.000
192.14	1575.000
192.51	700.000
192.89	916.667
193.27	650.000
193.65	-1375.000
194.02	660.000
194.40	1140.000
194.78	600.000
195.15	525.000
195.53	740.000
195.91	-2750.000
196.29	350.000
196.66	342.105
197.04	-430.000
197.42	0.000
197.79	690.000
198.17	-5700.000
198.55	657.143
198.92	712.500
199.30	1040.000
199.68	0.000
200.05	416.667
200.43	828.571
200.81	5000.000
201.18	1666.667
201.56	-1766.667
201.94	633.333
202.31	600.000
202.69	416.667
203.07	510.000
203.44	0.000
203.82	1475.000
204.19	1042.857
204.57	442.857
204.95	750.000
205.32	1866.667
205.70	518.182
206.08	407.143
206.45	3250.000
206.83	368.750
207.20	1033.333
207.58	900.000
207.96	338.889
208.33	662.500
208.71	-1116.667
209.08	942.857
209.46	622.222
209.84	436.364
210.21	-1633.333
210.59	1300.000
210.96	-512.500
211.34	2900.000
211.71	630.000
212.09	783.333
212.46	0.000
212.84	1633.333
213.22	1700.000
213.59	-5800.000
213.97	883.333
214.34	800.000
214.72	690.909
215.09	1060.000
215.47	-2600.000
215.84	-2750.000
216.22	1900.000
216.59	464.286
216.97	1325.000
217.34	481.818
217.72	-933.333
218.09	0.000
218.47	-4700.000
218.84	677.778
219.22	728.571
219.59	1966.667
219.97	-714.286
220.34	1160.000
220.72	-1933.333
221.09	392.857
221.47	1525.000
221.84	-933.333
222.22	0.000
222.59	1475.000
222.97	-2800.000
223.34	1340.000
223.72	407.692
224.09	1180.000
224.46	2400.000
224.84	-5200.000
225.21	-1000.000
225.59	-5000.000
225.96	680.000
226.34	310.000
226.71	2850.000
227.08	712.500
227.46	640.000
227.83	-1200.000
228.21	-2350.000
228.58	677.778
228.95	-2350.000
229.33	-2750.000
229.70	2100.000
230.08	771.429
230.45	-940.000
230.82	483.333
231.20	1000.000
231.57	700.000
231.95	433.333
232.32	236.364
232.69	400.000
233.07	857.143
233.44	300.000
233.81	-1900.000
234.19	347.368
234.56	516.667
234.93	450.000
235.31	490.909
235.68	330.769
236.05	392.857
236.43	221.212
236.80	294.737
237.17	4900.000
237.55	195.238
237.92	203.571
238.29	252.381
238.67	183.871
239.04	224.138
239.41	161.111
239.79	108.696
240.16	140.476
240.53	106.818
240.91	96.078
241.28	94.000
241.65	124.000
242.02	89.855
242.40	85.484
242.77	78.333
243.14	64.516
243.51	84.270
243.89	61.176
244.26	65.556
244.63	64.516
245.00	61.702
245.38	49.505
245.75	49.533
246.12	44.037
246.49	51.095
246.87	48.000
247.24	53.846
247.61	39.286
247.98	41.176
248.36	35.135
248.73	40.764
249.10	36.306
249.47	37.853
249.84	40.107
250.22	38.503
250.59	35.503
250.96	36.364
251.33	32.701
251.70	27.723
252.08	30.000
252.45	27.354
252.82	26.522
253.19	33.617
253.56	28.627
253.94	29.876
254.31	28.125
254.68	27.692
255.05	27.675
255.42	26.016
255.79	23.162
256.16	28.520
256.54	22.261
256.91	25.979
257.28	19.784
257.65	23.102
258.02	20.497
258.39	21.451
258.76	21.070
259.14	22.619
259.51	18.845
259.88	19.565
260.25	19.033
260.62	19.653
260.99	17.081
261.36	21.922
261.73	18.052
262.10	19.186
262.47	21.127
262.85	20.891
263.22	18.803
263.59	22.222
263.96	17.308
264.33	18.799
264.70	16.579
265.07	19.182
265.44	18.182
265.81	15.815
266.18	16.080
266.55	19.512
266.92	17.936
267.29	17.361
267.66	17.890
268.03	16.591
268.40	17.523
268.77	15.036
269.14	17.342
269.51	16.253
269.88	18.182
270.25	16.930
270.62	16.404
270.99	18.495
271.36	19.528
271.73	15.421
272.10	15.870
272.47	16.559
272.84	14.719
273.21	18.029
273.58	13.974
273.95	13.208
274.32	16.529
274.69	15.846
275.06	14.173
275.43	16.383
275.80	14.028
276.17	14.257
276.54	16.008
276.91	14.032
277.28	15.820
277.65	14.700
278.02	13.872
278.39	16.797
278.76	17.455
279.13	14.717
279.50	15.084
279.87	14.143
280.23	14.571
280.60	11.605
280.97	11.830
281.34	14.867
281.71	16.545
282.08	14.587
282.45	14.364
282.82	14.742
283.19	12.656
283.56	14.912
283.92	13.875
284.29	12.346
284.66	13.612
285.03	11.935
285.40	13.380
285.77	12.795
286.14	11.572
286.51	14.167
286.87	14.017
287.24	13.844
287.61	13.323
287.98	13.636
288.35	13.154
288.72	12.773
289.08	12.520
289.45	12.521
289.82	13.333
290.19	11.146
290.56	11.792
290.93	13.142
291.29	11.503
291.66	11.504
292.03	13.808
292.40	14.244
292.77	10.207
293.13	11.940
293.50	12.099
293.87	10.815
294.24	12.296
294.60	10.335
294.97	13.372
295.34	12.412
295.71	12.074
296.08	10.684
296.44	9.766
296.81	9.511
297.18	11.518
297.55	9.894
297.91	9.235
298.28	12.316
298.65	10.444
299.02	10.145
299.38	10.890
299.75	7.682
300.12	9.323
300.48	8.750
300.85	9.864
301.22	9.299
301.59	9.975
301.95	11.083
302.32	10.270
302.69	9.916
303.05	9.091
303.42	7.901
303.79	9.740
304.15	8.392
304.52	9.270
304.89	9.292
305.25	7.657
305.62	9.740
305.99	8.973
306.35	8.277
306.72	9.641
307.09	9.767
307.45	9.459
307.82	9.040
308.19	10.265
308.55	9.709
308.92	8.808
309.29	9.081
309.65	7.953
310.02	9.302
310.38	9.140
310.75	7.181
311.12	9.007
311.48	10.031
311.85	9.329
312.22	9.053
312.58	7.796
312.95	10.243
313.31	7.184
313.68	8.940
314.05	9.862
314.41	7.437
314.78	8.359
315.14	8.242
315.51	8.239
315.87	7.624
316.24	8.540
316.61	7.602
316.97	7.730
317.34	7.926
317.70	9.082
318.07	8.855
318.43	7.828
318.80	8.435
319.16	8.851
319.53	7.974
319.89	8.000
320.26	9.500
320.62	8.333
320.99	9.091
321.35	7.677
321.72	8.932
322.08	9.576
322.45	9.751
322.81	9.981
323.18	9.634
323.54	9.833
323.91	10.377
324.27	9.751
324.64	7.922
325.00	8.656
325.37	9.554
325.73	10.144
326.10	9.179
326.46	8.602
326.83	8.801
327.19	9.223
327.56	8.188
327.92	9.536
328.29	9.760
328.65	10.221
329.01	10.560
329.38	9.806
329.74	9.788
330.11	9.708
330.47	10.285
330.84	9.559
331.20	10.109
331.56	9.817
331.93	8.796
332.29	9.317
332.66	10.177
333.02	9.963
333.38	9.666
333.75	9.715
334.11	9.698
334.48	9.672
334.84	9.926
335.20	10.545
335.57	9.791
335.93	9.018
336.29	10.989
336.66	9.107
337.02	8.688
337.38	9.722
337.75	8.913
338.11	9.132
338.47	9.945
338.84	9.166
339.20	8.349
339.56	10.766
339.93	9.455
340.29	9.783
340.65	10.071
341.02	9.599
341.38	9.964
341.74	9.386
342.11	9.869
342.47	10.220
342.83	10.017
343.20	10.996
343.56	9.267
343.92	8.947
344.28	9.354
344.65	9.974
345.01	8.502
345.37	8.491
345.73	8.799
346.10	9.633
346.46	9.576
346.82	9.226
347.19	8.521
347.55	8.292
347.91	9.223
348.27	9.696
348.63	9.866
349.00	8.900
349.36	8.621
349.72	9.302
350.08	8.671
350.45	9.194
350.81	9.098
351.17	9.806
351.53	8.927
351.89	7.838
352.26	9.550
352.62	8.901
352.98	8.671
353.34	8.874
353.70	8.020
354.07	8.629
354.43	8.810
354.79	7.884
355.15	9.098
355.51	9.752
355.87	8.571
356.24	8.632
356.60	8.099
356.96	8.126
357.32	8.013
357.68	9.291
358.04	8.155
358.40	8.868
358.77	9.155
359.13	7.498
359.49	8.549
359.85	8.492
360.21	7.576
360.57	9.261
360.93	7.385
361.29	8.844
361.66	7.663
362.02	8.507
362.38	8.289
362.74	7.961
363.10	8.068
363.46	8.070
363.82	8.163
364.18	8.590
364.54	9.064
364.90	9.065
365.26	7.059
365.62	8.327
365.98	7.670
366.35	7.378
366.71	8.388
367.07	8.376
367.43	7.983
367.79	8.423
368.15	8.549
368.51	7.413
368.87	8.137
369.23	7.681
369.59	8.545
369.95	7.426
370.31	9.117
370.67	7.536
371.03	8.315
371.39	9.111
371.75	7.721
372.11	7.752
372.47	9.457
372.83	8.646
373.19	7.514
373.55	7.465
373.91	8.763
374.27	7.698
374.63	7.200
374.99	8.263
375.35	6.560
375.71	8.362
376.07	8.642
376.42	7.909
376.78	7.820
377.14	7.870
377.50	7.351
377.86	7.247
378.22	7.965
378.58	6.516
378.94	7.417
379.30	7.252
379.66	7.487
380.02	7.985
380.38	6.740
380.74	7.383
381.09	7.090
381.45	7.683
381.81	7.985
382.17	7.962
382.53	6.792
382.89	7.407
383.25	6.942
383.61	7.249
383.97	6.942
384.32	7.860
384.68	6.939
385.04	6.884
385.40	6.935
385.76	6.880
386.12	7.448
386.48	7.300
386.83	6.543
387.19	7.112
387.55	7.483
387.91	6.409
388.27	6.806
388.62	7.376
388.98	7.187
389.34	8.448
389.70	7.725
390.06	7.858
390.42	7.328
390.77	7.888
391.13	7.211
391.49	7.170
391.85	7.193
392.20	6.625
392.56	6.439
392.92	7.240
393.28	5.680
393.64	6.954
393.99	7.819
394.35	7.568
394.71	6.713
395.07	7.040
395.42	7.108
395.78	7.316
396.14	7.635
396.50	7.456
396.85	7.184
397.21	7.090
397.57	7.130
397.92	6.550
398.28	6.558
398.64	7.407
399.00	6.883
399.35	6.430
399.71	7.292
400.07	7.096
400.42	7.239
400.78	7.358
401.14	6.037
401.49	7.522
401.85	7.139
402.21	6.886
402.57	7.033
402.92	6.368
403.28	7.183
403.63	6.869
403.99	6.943
404.35	6.848
404.70	6.595
405.06	6.639
405.42	6.862
405.77	6.514
406.13	7.111
406.49	6.682
406.84	7.501
407.20	6.501
407.55	6.701
407.91	7.733
408.27	6.254
408.62	6.863
408.98	6.985
409.34	7.319
409.69	7.548
410.05	7.249
410.40	6.911
410.76	6.989
411.11	7.298
411.47	7.029
411.83	7.514
412.18	6.926
412.54	7.285
412.89	7.410
413.25	6.966
413.60	7.041
413.96	7.286
414.31	7.412
414.67	7.478
415.03	6.424
415.38	7.925
415.74	7.781
416.09	7.054
416.45	7.430
416.80	7.601
417.16	8.177
417.51	7.830
417.87	6.936
418.22	7.886
418.58	8.457
418.93	7.248
419.29	7.893
419.64	7.620
420.00	7.073
420.35	7.826
420.71	7.412
421.06	7.160
421.42	7.544
421.77	7.848
422.12	6.289
422.48	6.530
422.83	7.338
423.19	7.293
423.54	7.835
423.90	7.246
424.25	7.594
424.61	7.321
424.96	7.230
425.31	7.420
425.67	7.022
426.02	7.314
426.38	7.509
426.73	7.373
427.09	7.295
427.44	6.671
427.79	6.555
428.15	7.738
428.50	7.373
428.85	8.403
429.21	7.289
429.56	6.998
429.92	6.794
430.27	6.951
430.62	5.888
430.98	6.954
431.33	7.268
431.68	7.958
432.04	7.508
432.39	7.139
432.74	7.600
433.10	7.074
433.45	7.347
433.80	6.874
434.16	7.372
434.51	7.105
434.86	7.412
435.22	7.504
435.57	7.173
435.92	7.256
436.28	7.355
436.63	8.113
436.98	7.270
437.34	7.692
437.69	7.176
438.04	7.195
438.39	7.522
438.75	7.728
439.10	7.486
439.45	8.264
439.81	7.432
440.16	7.623
440.51	7.909
440.86	7.528
441.22	7.842
441.57	7.590
441.92	7.625
442.27	7.535
442.63	7.004
442.98	8.563
443.33	8.152
443.68	7.383
444.03	7.223
444.39	6.621
444.74	7.143
445.09	7.547
445.44	7.490
445.79	7.274
446.15	8.152
446.50	7.970
446.85	7.451
447.20	7.394
447.55	7.259
447.91	7.336
448.26	7.346
448.61	7.971
448.96	8.195
449.31	8.155
449.66	8.160
450.02	7.577
450.37	7.426
450.72	7.671
451.07	7.556
451.42	7.599
451.77	8.280
452.12	7.217
452.47	8.085
452.83	7.401
453.18	8.130
453.53	8.163
453.88	7.206
454.23	8.189
454.58	8.419
454.93	8.709
455.28	7.481
455.63	8.131
455.98	8.810
456.34	8.166
456.69	7.577
457.04	7.740
457.39	7.364
457.74	8.474
458.09	8.281
458.44	8.096
458.79	7.375
459.14	7.957
459.49	8.348
459.84	7.036
460.19	7.661
460.54	8.275
460.89	7.680
461.24	8.197
461.59	9.239
461.94	8.446
462.29	9.080
462.64	8.296
462.99	8.393
463.34	8.867
463.69	8.881
464.04	8.348
464.39	8.348
464.74	8.140
465.09	8.142
465.44	7.479
465.79	7.550
466.14	8.265
466.49	8.009
466.84	8.873
467.19	8.147
467.54	8.563
467.89	8.403
468.24	7.970
468.59	8.974
468.94	8.430
469.29	7.969
469.64	9.103
469.99	9.202
470.34	8.454
470.68	8.477
471.03	8.571
471.38	9.382
471.73	8.461
472.08	8.816
472.43	7.977
472.78	8.361
473.13	8.408
473.48	8.864
473.83	8.598
474.17	8.152
474.52	8.561
474.87	7.881
475.22	8.183
475.57	7.845
475.92	7.541
476.27	7.666
476.61	8.163
476.96	7.312
477.31	8.059
477.66	8.042
478.01	7.475
478.36	8.514
478.70	7.580
479.05	7.774
479.40	8.495
479.75	7.778
480.10	8.151
480.45	7.853
480.79	6.976
481.14	7.877
481.49	7.546
481.84	7.179
482.19	7.451
482.53	7.569
482.88	7.771
483.23	7.850
483.58	7.916
483.92	7.685
484.27	7.146
484.62	7.241
484.97	7.134
485.31	7.295
485.66	6.293
486.01	5.711
486.36	5.156
486.70	5.234
487.05	5.999
487.40	6.231
487.75	6.243
488.09	6.612
488.44	6.671
488.79	7.414
489.13	7.334
489.48	7.749
489.83	7.380
490.17	7.497
490.52	7.352
490.87	7.327
491.22	8.049
491.56	7.380
491.91	7.678
492.26	7.671
492.60	7.788
492.95	7.250
493.30	7.523
493.64	7.793
493.99	7.799
494.34	7.771
494.68	7.601
495.03	8.036
495.37	7.911
495.72	7.554
496.07	7.935
496.41	7.876
496.76	7.872
497.11	7.744
497.45	7.592
497.80	8.301
498.14	7.488
498.49	7.512
498.84	8.054
499.18	7.667
499.53	7.692
499.87	7.269
500.22	7.866
500.56	8.252
500.91	7.500
501.26	7.255
501.60	8.448
501.95	7.837
502.29	8.060
502.64	7.775
502.98	7.714
503.33	7.815
503.67	8.260
504.02	8.045
504.36	8.049
504.71	8.061
505.06	7.759
505.40	7.584
505.75	7.715
506.09	7.872
506.44	7.696
506.78	7.793
507.13	7.925
507.47	8.333
507.82	8.713
508.16	8.359
508.51	8.879
508.85	8.143
509.19	7.653
509.54	7.806
509.88	7.986
510.23	7.815
510.57	8.772
510.92	8.389
511.26	8.222
511.61	8.351
511.95	8.612
512.30	7.953
512.64	7.684
512.98	8.521
513.33	8.405
513.67	8.271
514.02	8.171
514.36	9.503
514.70	8.080
515.05	8.812
515.39	9.478
515.74	8.333
516.08	8.944
516.42	8.990
516.77	10.033
517.11	8.657
517.46	8.578
517.80	8.479
518.14	8.512
518.49	9.568
518.83	8.693
519.17	9.411
519.52	9.281
519.86	9.584
520.20	9.306
520.55	9.695
520.89	9.367
521.23	9.530
521.58	8.824
521.92	9.614
522.26	8.969
522.61	9.034
522.95	8.717
523.29	8.886
523.64	10.061
523.98	9.304
524.32	9.530
524.66	9.200
525.01	9.375
525.35	9.170
525.69	8.805
526.04	8.847
526.38	9.579
526.72	9.632
527.06	10.169
527.41	8.354
527.75	10.096
528.09	9.313
528.43	9.688
528.78	9.096
529.12	9.212
529.46	9.369
529.80	9.715
530.15	9.844
530.49	8.923
530.83	10.063
531.17	10.052
531.51	10.246
531.86	9.290
532.20	10.365
532.54	10.378
532.88	9.949
533.22	9.119
533.57	9.568
533.91	9.452
534.25	9.235
534.59	9.274
534.93	9.459
535.27	10.078
535.62	9.646
535.96	9.416
536.30	9.536
536.64	10.109
536.98	10.418
537.32	9.743
537.66	9.533
538.01	10.072
538.35	10.601
538.69	10.849
539.03	9.877
539.37	9.776
539.71	9.332
540.05	9.346
540.39	9.369
540.73	9.702
541.07	10.318
541.42	10.176
541.76	10.194
542.10	10.155
542.44	9.868
542.78	10.474
543.12	9.277
543.46	10.557
543.80	10.410
544.14	9.628
544.48	10.540
544.82	10.135
545.16	9.369
545.50	9.769
545.84	10.282
546.18	10.101
546.52	10.668
546.86	10.653
547.20	10.856
547.54	10.087
547.88	11.161
548.22	10.025
548.56	10.629
548.90	9.923
549.24	10.168
549.58	10.914
549.92	10.989
550.26	10.511
550.60	10.996
550.94	10.775
551.28	10.241
551.62	10.999
551.96	10.246
552.30	11.195
552.64	11.291
552.98	10.780
553.32	10.115
553.66	10.566
554.00	11.119
554.34	10.835
554.68	10.873
555.02	11.566
555.36	9.325
555.69	10.690
556.03	11.171
556.37	10.368
556.71	10.573
557.05	11.345
557.39	10.987
557.73	10.445
558.07	10.732
558.41	10.854
558.75	10.874
559.08	12.081
559.42	10.809
559.76	11.250
560.10	9.707
560.44	11.391
560.78	10.512
561.12	11.214
561.45	11.017
561.79	10.679
562.13	10.396
562.47	10.724
562.81	11.227
563.15	11.505
563.48	11.008
563.82	10.828
564.16	10.464
564.50	10.091
564.84	10.303
565.17	11.519
565.51	10.160
565.85	10.914
566.19	10.457
566.52	10.956
566.86	10.307
567.20	10.613
567.54	10.445
567.88	9.071
568.21	10.741
568.55	9.909
568.89	9.144
569.23	8.957
569.56	9.231
569.90	8.792
570.24	8.468
570.57	8.467
570.91	7.983
571.25	8.277
571.59	8.424
571.92	8.324
572.26	8.232
572.60	8.408
572.93	8.006
573.27	8.282
573.61	8.291
573.95	8.346
574.28	7.538
574.62	7.896
574.96	7.646
575.29	7.687
575.63	7.546
575.97	8.123
576.30	8.099
576.64	7.834
576.98	7.876
577.31	7.555
577.65	7.839
577.98	7.519
578.32	7.188
578.66	7.338
578.99	7.943
579.33	7.553
579.67	7.516
580.00	7.960
580.34	7.926
580.67	7.965
581.01	7.938
581.35	7.466
581.68	7.402
582.02	7.451
582.35	7.306
582.69	7.485
583.02	7.784
583.36	8.024
583.70	7.792
584.03	8.072
584.37	8.406
584.70	8.177
585.04	8.048
585.37	7.898
585.71	8.153
586.04	7.852
586.38	8.020
586.72	8.727
587.05	7.987
587.39	7.863
587.72	8.529
588.06	8.004
588.39	8.148
588.73	8.243
589.06	8.570
589.40	8.485
589.73	8.870
590.07	8.968
590.40	8.878
590.73	8.782
591.07	9.320
591.40	9.827
591.74	9.654
592.07	9.119
592.41	9.301
592.74	8.652
593.08	8.761
593.41	8.542
593.75	8.432
594.08	8.515
594.41	8.872
594.75	8.725
595.08	8.805
595.42	9.037
595.75	8.333
596.09	9.163
596.42	9.862
596.75	9.498
597.09	9.957
597.42	9.106
597.75	9.056
598.09	9.565
598.42	9.235
598.76	9.445
599.09	8.590
599.42	8.588
599.76	9.334
600.09	8.925
600.42	8.510
600.76	8.643
601.09	8.889
601.42	8.942
601.76	9.298
602.09	8.775
602.42	9.793
602.76	9.512
603.09	9.402
603.42	9.723
603.76	9.146
604.09	8.647
604.42	9.213
604.76	9.532
605.09	9.480
605.42	9.064
605.75	9.313
606.09	8.784
606.42	9.113
606.75	9.332
607.09	9.669
607.42	9.371
607.75	9.283
608.08	9.162
608.42	9.592
608.75	9.378
609.08	9.389
609.41	9.757
609.75	9.909
610.08	10.038
610.41	9.870
610.74	9.035
611.07	10.277
611.41	9.961
611.74	9.904
612.07	10.352
612.40	9.916
612.73	10.526
613.07	9.429
613.40	10.374
613.73	9.596
614.06	10.323
614.39	10.383
614.72	10.263
615.06	10.347
615.39	9.660
615.72	9.663
616.05	10.579
616.38	10.117
616.71	10.273
617.05	11.190
617.38	10.403
617.71	9.730
618.04	10.276
618.37	10.645
618.70	10.703
619.03	10.789
619.36	10.591
619.69	11.761
620.03	12.019
620.36	12.032
620.69	12.055
621.02	11.062
621.35	12.138
621.68	12.227
622.01	11.300
622.34	12.405
622.67	11.711
623.00	10.932
623.33	11.151
623.66	11.794
623.99	11.193
624.32	11.198
624.65	11.582
624.99	11.544
625.32	11.586
625.65	10.819
625.98	11.914
626.31	12.675
626.64	13.143
626.97	10.973
627.30	11.222
627.63	13.290
627.96	12.616
628.29	11.899
628.62	13.541
628.95	15.000
629.28	12.865
629.61	13.016
629.94	12.857
630.26	12.202
630.59	13.060
630.92	12.644
631.25	13.327
631.58	12.613
631.91	13.185
632.24	13.502
632.57	13.431
632.90	13.268
633.23	14.653
633.56	14.689
633.89	15.402
634.22	14.529
634.55	13.964
634.88	13.892
635.20	15.651
635.53	14.819
635.86	14.728
636.19	14.588
636.52	13.495
636.85	14.433
637.18	12.788
637.51	14.539
637.83	13.317
638.16	14.322
638.49	15.743
638.82	14.918
639.15	14.875
639.48	16.334
639.81	15.550
640.13	15.885
640.46	15.570
640.79	15.456
641.12	14.305
641.45	15.782
641.77	17.084
642.10	15.351
642.43	13.814
642.76	14.706
643.09	17.638
643.41	16.692
643.74	16.821
644.07	16.311
644.40	19.172
644.73	15.748
645.05	19.334
645.38	16.272
645.71	16.908
646.04	17.940
646.36	18.865
646.69	17.893
647.02	18.027
647.35	18.729
647.67	17.522
648.00	18.374
648.33	15.347
648.66	17.273
648.98	16.492
649.31	13.453
649.64	14.649
649.96	17.437
650.29	16.272
650.62	14.887
650.94	17.504
651.27	17.399
651.60	18.469
651.92	18.051
652.25	16.124
652.58	16.044
652.90	17.536
653.23	16.179
653.56	16.535
653.88	17.274
654.21	19.115
654.54	16.007
654.86	13.863
655.19	15.405
655.52	8.548
655.84	5.700
656.17	7.413
656.49	9.902
656.82	10.210
657.15	8.158
657.47	6.059
657.80	4.886
658.13	5.152
658.45	7.979
658.78	8.324
659.10	8.774
659.43	9.530
659.75	10.451
660.08	11.962
660.41	13.594
660.73	17.154
661.06	18.631
661.38	19.818
661.71	21.154
662.03	20.907
662.36	17.694
662.68	18.675
663.01	18.384
663.33	16.985
663.66	19.328
663.98	17.711
664.31	19.328
664.63	20.850
664.96	18.712
665.28	21.926
665.61	18.713
665.93	19.718
666.26	17.647
666.58	18.201
666.91	20.507
667.23	20.899
667.56	16.631
667.88	20.940
668.21	18.763
668.53	20.174
668.86	17.749
669.18	22.175
669.50	21.739
669.83	23.094
670.15	21.778
670.48	19.826
670.80	21.552
671.13	22.718
671.45	19.787
671.77	21.181
672.10	17.560
672.42	17.314
672.75	18.242
673.07	16.549
673.39	17.902
673.72	18.555
674.04	19.412
674.37	17.864
674.69	16.973
675.01	18.201
675.34	20.329
675.66	21.474
675.98	21.385
676.31	20.168
676.63	19.745
676.95	20.335
677.28	20.561
677.60	20.220
677.92	21.097
678.25	19.713
678.57	18.725
678.89	19.439
679.22	17.485
679.54	16.031
679.86	19.266
680.18	19.857
680.51	18.085
680.83	20.285
681.15	17.170
681.48	19.660
681.80	17.408
682.12	18.391
682.44	16.248
682.77	20.774
683.09	22.532
683.41	17.960
683.73	20.971
684.06	21.488
684.38	18.395
684.70	18.798
685.02	19.887
685.34	19.048
685.67	19.056
685.99	15.636
686.31	16.894
686.63	16.431
686.96	17.679
687.28	17.509
687.60	16.667
687.92	18.464
688.24	16.920
688.56	21.084
688.89	19.917
689.21	21.179
689.53	19.624
689.85	20.843
690.17	15.942
690.49	21.019
690.82	19.626
691.14	19.196
691.46	17.089
691.78	19.478
692.10	20.661
692.42	19.960
692.74	17.635
693.06	20.851
693.39	20.123
693.71	20.087
694.03	21.474
694.35	23.810
694.67	18.993
694.99	22.927
695.31	22.059
695.63	21.292
695.95	22.983
696.27	19.797
696.59	23.057
696.91	24.093
697.23	18.779
697.56	23.028
697.88	19.836
698.20	19.167
698.52	18.495
698.84	18.931
699.16	19.355
699.48	21.853
699.80	22.464
700.12	23.117
700.44	20.955
700.76	24.309
701.08	24.138
701.40	22.905
701.72	25.073
702.04	28.977
702.36	18.130
702.68	24.079
703.00	20.222
703.32	23.138
703.64	23.056
703.96	26.184
704.28	22.674
704.60	23.754
704.91	26.409
705.23	22.874
705.55	27.575
705.87	28.904
706.19	25.088
706.51	26.791
706.83	26.364
707.15	22.129
707.47	22.727
707.79	22.850
708.11	21.005
708.43	19.524
708.74	19.643
709.06	23.636
709.38	24.147
709.70	23.837
710.02	22.255
710.34	21.212
710.66	28.060
710.98	25.568
711.29	24.419
711.61	28.319
711.93	25.000
712.25	27.653
712.57	28.676
712.89	25.952
713.20	30.091
713.52	25.987
713.84	23.734
714.16	24.695
714.48	24.138
714.80	29.483
715.11	24.496
715.43	23.739
715.75	24.638
716.07	27.157
716.39	23.197
716.70	26.578
717.02	29.496
717.34	30.742
717.66	32.463
717.97	32.669
718.29	28.148
718.61	29.197
718.93	34.191
719.24	26.298
719.56	24.068
719.88	29.492
720.20	27.027
720.51	31.010
720.83	28.625
721.15	25.746
721.46	29.078
721.78	30.108
722.10	30.566
722.42	32.707
722.73	29.213
723.05	26.639
723.37	26.316
723.68	29.344
724.00	29.268
724.32	29.032
724.63	28.455
724.95	27.615
725.27	29.555
725.58	34.766
725.90	31.752
726.22	26.792
726.53	28.819
726.85	26.621
727.16	27.758
727.48	25.532
727.80	29.545
728.11	29.710
728.43	27.692
728.74	28.315
729.06	31.752
729.38	29.779
729.69	27.758
730.01	26.280
730.32	28.819
730.64	25.418
730.96	26.073
731.27	29.470
731.59	23.853
731.90	26.531
732.22	24.845
732.53	23.839
732.85	23.397
733.16	24.759
733.48	25.914
733.80	25.649
734.11	27.389
734.43	22.189
734.74	24.571
735.06	23.782
735.37	25.434
735.69	21.338
736.00	27.778
736.32	24.611
736.63	25.559
736.95	23.962
737.26	22.449
737.58	24.839
737.89	25.753
738.21	31.399
738.52	29.643
738.83	25.283
739.15	28.462
739.46	30.657
739.78	24.653
740.09	26.154
740.41	29.032
740.72	28.571
741.04	24.815
741.35	25.000
741.66	37.778
741.98	30.189
742.29	36.842
742.61	33.190
742.92	25.792
743.23	30.769
743.55	30.000
743.86	30.263
744.18	37.611
744.49	38.756
744.80	35.681
745.12	40.000
745.43	31.278
745.74	34.685
746.06	33.486
746.37	31.839
746.68	30.769
747.00	34.722
747.31	30.000
747.62	26.991
747.94	33.480
748.25	28.511
748.56	32.159
748.88	36.139
749.19	36.500
749.50	31.628
749.82	28.862
750.13	26.122
750.44	29.197
750.75	24.211
751.07	27.331
751.38	28.223
751.69	27.076
752.01	29.699
752.32	29.964
752.63	28.723
752.94	28.279
753.26	31.600
753.57	24.797
753.88	28.906
754.19	25.000
754.51	26.736
754.82	29.242
755.13	29.057
755.44	26.692
755.75	25.182
756.07	28.369
756.38	22.993
756.69	22.148
757.00	23.653
757.31	25.223
757.63	21.637
757.94	20.375
758.25	22.794
758.56	17.778
758.87	21.774
759.18	20.909
759.50	22.257
759.81	22.118
760.12	20.312
760.43	23.496
760.74	20.652
761.05	22.881
761.36	20.321
761.67	21.591
761.99	22.050
762.30	28.472
762.61	28.244
762.92	31.250
763.23	28.151
763.54	34.400
763.85	26.172
764.16	32.308
764.47	26.616
764.78	27.208
765.10	21.519
765.41	26.844
765.72	25.150
766.03	26.332
766.34	24.333
766.65	31.489
766.96	30.342
767.27	31.980
767.58	31.771
767.89	40.526
768.20	40.230
768.51	33.503
768.82	34.862
769.13	30.894
769.44	26.721
769.75	30.043
770.06	27.064
770.37	37.104
770.68	32.870
770.99	29.778
771.30	29.508
771.61	34.529
771.92	26.639
772.23	35.294
772.54	31.795
772.85	37.173
773.16	35.106
773.47	40.217
773.78	38.071
774.09	35.119
774.39	40.351
774.70	36.420
775.01	45.652
775.32	45.098
775.63	40.132
775.94	49.640
776.25	48.031
776.56	50.746
776.87	51.639
777.18	54.688
777.48	54.962
777.79	48.485
778.10	48.148
778.41	51.786
778.72	40.146
779.03	43.624
779.34	34.899
779.65	42.568
779.95	41.104
780.26	48.366
780.57	43.448
780.88	57.813
781.19	51.128
781.50	49.324
781.80	44.654
782.11	36.723
782.42	34.177
782.73	36.196
783.04	45.270
783.34	49.296
783.65	46.575
783.96	48.507
784.27	44.755
784.57	43.885
784.88	52.778
785.19	55.556
785.50	52.830
785.81	60.448
786.11	50.820
786.42	60.465
786.73	53.982
787.04	57.547
787.34	49.107
787.65	65.000
787.96	55.856
788.26	42.975
788.57	53.390
788.88	57.025
789.19	52.083
789.49	55.303
789.80	52.672
790.11	67.619
790.41	69.307
790.72	61.446
791.03	67.391
791.33	66.279
791.64	65.979
791.95	63.366
792.25	75.556
792.56	79.221
792.87	89.744
793.17	93.671
793.48	78.161
793.79	78.161
794.09	73.864
794.40	57.143
794.70	55.882
795.01	40.741
795.32	45.324
795.62	50.394
795.93	62.069
796.23	58.407
796.54	69.412
796.85	74.324
797.15	91.549
797.46	68.182
797.76	78.313
798.07	89.873
798.37	80.000
798.68	103.030
798.99	71.831
799.29	74.026
799.60	62.500
799.90	97.260
800.21	86.567
800.51	98.276
800.82	91.228
801.12	95.082
801.43	98.485
801.73	81.081
802.04	90.476
802.34	75.309
802.65	78.125
802.95	116.949
803.26	117.188
803.56	77.143
803.87	89.231
804.17	82.353
804.48	103.704
804.78	94.828
805.09	105.882
805.39	101.923
805.70	92.857
806.00	109.836
806.30	87.879
806.61	78.049
806.91	64.557
807.22	71.053
807.52	73.134
807.83	104.225
808.13	90.625
808.43	90.000
808.74	68.421
809.04	107.246
809.35	100.000
809.65	86.842
809.95	90.323
810.26	110.169
810.56	79.365
810.86	134.091
811.17	164.286
811.47	106.667
811.77	87.037
812.08	92.727
812.38	132.000
812.69	163.889
812.99	136.364
813.29	132.653
813.59	114.286
813.90	140.816
814.20	100.000
814.50	98.462
814.81	101.471
815.11	122.449
815.41	90.164
815.72	133.333
816.02	127.273
816.32	130.952
816.62	130.000
816.93	107.317
817.23	133.333
817.53	161.364
817.84	190.909
818.14	134.783
818.44	133.333
818.74	164.706
819.04	157.500
819.35	165.714
819.65	182.353
819.95	178.571
820.25	235.000
820.56	156.410
820.86	143.182
821.16	139.535
821.46	133.333
821.76	146.000
822.07	194.286
822.37	165.000
822.67	169.697
822.97	107.843
823.27	225.000
823.57	143.243
823.88	160.000
824.18	193.333
824.48	171.429
824.78	244.000
825.08	191.667
825.38	175.676
825.69	134.146
825.99	225.000
826.29	172.414
826.59	147.368
826.89	150.000
827.19	150.000
827.49	196.774
827.79	131.818
828.09	134.091
828.39	121.277
828.70	128.571
829.00	174.074
829.30	167.742
829.60	165.000
829.90	313.333
830.20	203.571
830.50	178.261
830.80	226.087
831.10	213.333
831.40	216.667
831.70	204.348
832.00	207.692
832.30	214.815
832.60	350.000
832.90	196.667
833.20	457.143
833.50	206.452
833.80	206.897
834.10	209.375
834.40	196.154
834.70	305.556
835.00	290.476
835.30	200.000
835.60	300.000
835.90	203.448
836.20	407.143
836.50	193.103
836.80	188.000
837.10	177.778
837.40	247.619
837.70	323.529
838.00	237.037
838.30	276.190
838.60	290.476
838.90	242.308
839.19	310.000
839.49	392.857
839.79	290.000
840.09	300.000
840.39	328.571
840.69	252.174
840.99	305.556
841.29	520.000
841.59	400.000
841.88	356.250
842.18	203.448
842.48	285.714
842.78	176.667
843.08	269.565
843.38	206.250
843.68	1066.667
843.97	203.846
844.27	200.000
844.57	304.762
844.87	387.500
845.17	211.111
845.47	1500.000
845.76	433.333
846.06	382.353
846.36	612.500
846.66	371.429
846.96	318.750
847.25	454.545
847.55	490.909
847.85	286.957
848.15	590.000
848.44	371.429
848.74	288.889
849.04	329.412
849.34	570.000
849.63	263.158
849.93	472.727
850.23	1160.000
850.53	435.714
850.82	2550.000
851.12	-4300.000
851.42	4800.000
851.71	215.000
852.01	-1300.000
852.31	237.500
852.61	1800.000
852.90	261.905
853.20	276.000
853.50	329.412
853.79	300.000
854.09	225.000
854.39	318.750
854.68	189.189
854.98	170.968
855.28	176.667
855.57	213.793
855.87	207.407
856.17	294.737
856.46	333.333
856.76	317.647
857.05	217.241
857.35	241.667
857.65	360.000
857.94	243.478
858.24	230.769
858.53	310.000
858.83	250.000
859.13	386.667
859.42	0.000
859.72	588.889
860.01	454.545
860.31	281.818
860.60	294.737
860.90	221.739
861.20	588.889
861.49	550.000
861.79	-5300.000
862.08	687.500
862.38	309.524
862.67	400.000
862.97	388.235
863.26	555.556
863.56	272.222
863.85	450.000
864.15	587.500
864.44	433.333
864.74	800.000
865.03	750.000
865.33	321.053
865.62	509.091
865.92	484.615
866.21	550.000
866.51	0.000
866.80	445.455
867.10	1280.000
867.39	438.462
867.69	500.000
867.98	310.526
868.27	554.545
868.57	331.579
868.86	-4500.000
869.16	400.000
869.45	2450.000
869.75	-4300.000
870.04	408.333
870.33	671.429
870.63	1425.000
870.92	2650.000
871.22	742.857
871.51	382.353
871.80	257.143
872.10	385.714
>>>>>End Processed Spectral Data<<<<<
