SpectraSuite Data File
++++++++++++++++++++++++++++++++++++
Date: Wed May 13 19:29:07 PDT 2015
User: schluterlab
Dark Spectrum Present: Yes
Reference Spectrum Present: Yes
Number of Sampled Component Spectra: 1
Spectrometers: USB2E3373
Integration Time (usec): 3000 (USB2E3373)
Spectra Averaged: 3 (USB2E3373)
Boxcar Smoothing: 0 (USB2E3373)
Correct for Electrical Dark: No (USB2E3373)
Strobe/Lamp Enabled: No (USB2E3373)
Correct for Detector Non-linearity: No (USB2E3373)
Correct for Stray Light: No (USB2E3373)
Number of Pixels in Processed Spectrum: 2048
>>>>>Begin Processed Spectral Data<<<<<
178.53	0.000
178.91	-1475.000
179.29	-1250.000
179.67	-161.111
180.04	-1500.000
180.42	2500.000
180.80	900.000
181.18	-1050.000
181.56	757.143
181.94	0.000
182.31	-642.857
182.69	1566.667
183.07	-550.000
183.45	-600.000
183.83	563.636
184.20	-450.000
184.58	2400.000
184.96	5300.000
185.34	-920.000
185.72	-600.000
186.09	-2600.000
186.47	3250.000
186.85	2400.000
187.23	4800.000
187.61	-1466.667
187.98	1625.000
188.36	554.545
188.74	590.909
189.12	-1060.000
189.49	530.000
189.87	-5600.000
190.25	-1350.000
190.63	442.857
191.00	423.077
191.38	850.000
191.76	-1300.000
192.14	1275.000
192.51	675.000
192.89	1050.000
193.27	612.500
193.65	-1350.000
194.02	530.000
194.40	760.000
194.78	530.000
195.15	475.000
195.53	630.000
195.91	-2300.000
196.29	362.500
196.66	289.474
197.04	-390.000
197.42	0.000
197.79	590.000
198.17	-5200.000
198.55	842.857
198.92	650.000
199.30	1160.000
199.68	0.000
200.05	350.000
200.43	742.857
200.81	3900.000
201.18	1633.333
201.56	-1866.667
201.94	577.778
202.31	622.222
202.69	508.333
203.07	570.000
203.44	0.000
203.82	1275.000
204.19	885.714
204.57	514.286
204.95	500.000
205.32	1566.667
205.70	563.636
206.08	464.286
206.45	2750.000
206.83	431.250
207.20	950.000
207.58	980.000
207.96	311.111
208.33	712.500
208.71	-783.333
209.08	714.286
209.46	600.000
209.84	490.909
210.21	-1533.333
210.59	1400.000
210.96	-475.000
211.34	2550.000
211.71	570.000
212.09	816.667
212.46	0.000
212.84	1666.667
213.22	1550.000
213.59	-4800.000
213.97	866.667
214.34	814.286
214.72	600.000
215.09	1060.000
215.47	-2650.000
215.84	-2900.000
216.22	1766.667
216.59	435.714
216.97	1425.000
217.34	545.455
217.72	-866.667
218.09	0.000
218.47	-5700.000
218.84	644.444
219.22	785.714
219.59	2000.000
219.97	-700.000
220.34	1020.000
220.72	-1666.667
221.09	450.000
221.47	1675.000
221.84	-950.000
222.22	0.000
222.59	1250.000
222.97	-2150.000
223.34	1100.000
223.72	430.769
224.09	1120.000
224.46	2200.000
224.84	-5200.000
225.21	-1100.000
225.59	-4600.000
225.96	620.000
226.34	330.000
226.71	3150.000
227.08	712.500
227.46	550.000
227.83	-1275.000
228.21	-2000.000
228.58	600.000
228.95	-2850.000
229.33	-2350.000
229.70	2033.333
230.08	757.143
230.45	-780.000
230.82	441.667
231.20	833.333
231.57	657.143
231.95	450.000
232.32	245.455
232.69	500.000
233.07	714.286
233.44	400.000
233.81	-1833.333
234.19	363.158
234.56	508.333
234.93	458.333
235.31	581.818
235.68	430.769
236.05	392.857
236.43	175.758
236.80	315.789
237.17	5400.000
237.55	295.238
237.92	217.857
238.29	295.238
238.67	209.677
239.04	210.345
239.41	166.667
239.79	158.696
240.16	140.476
240.53	147.727
240.91	141.176
241.28	116.000
241.65	120.000
242.02	111.594
242.40	109.677
242.77	118.333
243.14	91.398
243.51	100.000
243.89	89.412
244.26	82.222
244.63	83.871
245.00	80.851
245.38	95.050
245.75	77.570
246.12	69.725
246.49	72.993
246.87	73.600
247.24	77.692
247.61	70.000
247.98	67.974
248.36	72.973
248.73	59.873
249.10	69.427
249.47	65.537
249.84	71.658
250.22	62.567
250.59	60.947
250.96	54.040
251.33	58.294
251.70	62.376
252.08	59.048
252.45	59.193
252.82	51.304
253.19	54.468
253.56	54.510
253.94	57.261
254.31	50.391
254.68	53.077
255.05	54.982
255.42	55.691
255.79	51.838
256.16	50.542
256.54	48.057
256.91	57.295
257.28	46.763
257.65	47.525
258.02	50.621
258.39	45.426
258.76	47.157
259.14	49.405
259.51	45.593
259.88	46.584
260.25	48.943
260.62	42.775
260.99	45.342
261.36	46.547
261.73	46.991
262.10	49.128
262.47	46.761
262.85	46.518
263.22	45.869
263.59	47.578
263.96	43.956
264.33	44.909
264.70	45.789
265.07	46.036
265.44	46.465
265.81	41.363
266.18	48.241
266.55	42.927
266.92	44.717
267.29	42.593
267.66	44.037
268.03	41.136
268.40	42.056
268.77	43.198
269.14	42.793
269.51	44.695
269.88	45.688
270.25	40.858
270.62	42.022
270.99	42.581
271.36	38.841
271.73	42.290
272.10	42.609
272.47	42.581
272.84	41.558
273.21	40.881
273.58	41.485
273.95	39.832
274.32	40.496
274.69	40.043
275.06	39.173
275.43	41.277
275.80	39.880
276.17	39.104
276.54	40.333
276.91	40.514
277.28	40.039
277.65	39.845
278.02	38.923
278.39	41.211
278.76	39.091
279.13	38.491
279.50	40.223
279.87	41.036
280.23	39.122
280.60	39.265
280.97	39.372
281.34	39.292
281.71	39.636
282.08	41.843
282.45	35.818
282.82	39.076
283.19	37.433
283.56	38.596
283.92	38.409
284.29	37.390
284.66	35.935
285.03	37.975
285.40	38.204
285.77	38.047
286.14	38.860
286.51	38.667
286.87	36.752
287.24	37.296
287.61	35.795
287.98	34.091
288.35	33.914
288.72	35.514
289.08	34.585
289.45	36.573
289.82	34.472
290.19	33.281
290.56	32.619
290.93	33.686
291.29	34.049
291.66	32.448
292.03	34.302
292.40	35.095
292.77	32.544
293.13	32.687
293.50	32.216
293.87	31.111
294.24	30.963
294.60	30.713
294.97	30.814
295.34	32.299
295.71	31.818
296.08	28.063
296.44	29.711
296.81	30.515
297.18	31.165
297.55	27.704
297.91	29.024
298.28	30.522
298.65	29.896
299.02	28.986
299.38	28.685
299.75	27.089
300.12	27.203
300.48	27.000
300.85	29.716
301.22	28.790
301.59	27.399
301.95	29.093
302.32	29.653
302.69	27.121
303.05	28.364
303.42	26.914
303.79	27.067
304.15	25.991
304.52	25.492
304.89	26.829
305.25	26.218
305.62	26.954
305.99	27.155
306.35	27.069
306.72	26.009
307.09	27.081
307.45	27.140
307.82	25.112
308.19	25.386
308.55	27.616
308.92	26.208
309.29	24.921
309.65	25.875
310.02	25.687
310.38	26.882
310.75	26.505
311.12	25.691
311.48	25.183
311.85	26.730
312.22	26.639
312.58	25.676
312.95	27.244
313.31	24.951
313.68	26.923
314.05	28.107
314.41	24.824
314.78	25.780
315.14	25.422
315.51	27.188
315.87	26.337
316.24	27.110
316.61	27.193
316.97	25.930
317.34	26.125
317.70	27.533
318.07	27.334
318.43	27.299
318.80	28.397
319.16	27.966
319.53	27.111
319.89	28.000
320.26	28.600
320.62	28.869
320.99	28.081
321.35	28.687
321.72	30.390
322.08	32.083
322.45	33.333
322.81	32.171
323.18	32.948
323.54	32.375
323.91	33.491
324.27	32.314
324.64	33.644
325.00	33.273
325.37	34.213
325.73	36.176
326.10	35.305
326.46	35.305
326.83	37.015
327.19	35.440
327.56	37.195
327.92	37.620
328.29	38.154
328.65	39.963
329.01	39.079
329.38	40.148
329.74	39.428
330.11	40.905
330.47	40.588
330.84	40.901
331.20	40.710
331.56	42.202
331.93	41.944
332.29	41.171
332.66	41.858
333.02	42.505
333.38	43.812
333.75	42.602
334.11	41.904
334.48	43.656
334.84	42.647
335.20	44.000
335.57	42.702
335.93	41.429
336.29	42.399
336.66	42.922
337.02	41.357
337.38	43.796
337.75	41.444
338.11	43.062
338.47	43.002
338.84	44.821
339.20	43.394
339.56	44.891
339.93	44.273
340.29	44.022
340.65	44.296
341.02	43.281
341.38	43.772
341.74	43.158
342.11	43.144
342.47	44.846
342.83	43.921
343.20	43.810
343.56	43.387
343.92	44.123
344.28	43.622
344.65	44.282
345.01	43.855
345.37	43.482
345.73	43.232
346.10	43.990
346.46	44.492
346.82	43.575
347.19	44.194
347.55	42.529
347.91	43.932
348.27	45.111
348.63	44.064
349.00	44.094
349.36	43.432
349.72	43.464
350.08	43.517
350.45	43.857
350.81	43.136
351.17	43.841
351.53	43.571
351.89	44.224
352.26	45.935
352.62	43.545
352.98	42.707
353.34	44.700
353.70	44.108
354.07	45.645
354.43	43.413
354.79	43.282
355.15	43.655
355.51	44.924
355.87	44.898
356.24	43.730
356.60	44.186
356.96	44.248
357.32	45.053
357.68	43.858
358.04	44.735
358.40	44.022
358.77	44.836
359.13	43.252
359.49	44.549
359.85	44.206
360.21	45.136
360.57	44.669
360.93	45.692
361.29	44.520
361.66	44.350
362.02	44.851
362.38	44.715
362.74	44.420
363.10	44.264
363.46	43.800
363.82	46.107
364.18	43.906
364.54	45.022
364.90	46.601
365.26	45.809
365.62	45.215
365.98	44.631
366.35	45.201
366.71	46.276
367.07	44.720
367.43	47.025
367.79	46.181
368.15	46.767
368.51	45.131
368.87	46.039
369.23	45.721
369.59	48.081
369.95	45.662
370.31	45.655
370.67	46.449
371.03	48.315
371.39	46.866
371.75	47.574
372.11	47.368
372.47	49.194
372.83	49.135
373.19	47.182
373.55	49.224
373.91	49.779
374.27	46.873
374.63	48.364
374.99	48.799
375.35	48.081
375.71	47.841
376.07	48.422
376.42	49.450
376.78	49.834
377.14	49.050
377.50	49.669
377.86	48.604
378.22	48.546
378.58	48.246
378.94	48.209
379.30	51.145
379.66	50.254
380.02	48.833
380.38	49.545
380.74	50.300
381.09	49.450
381.45	51.506
381.81	51.044
382.17	50.064
382.53	50.440
382.89	51.543
383.25	51.907
383.61	52.788
383.97	52.720
384.32	50.842
384.68	51.487
385.04	52.612
385.40	52.508
385.76	52.948
386.12	53.238
386.48	52.549
386.83	55.228
387.19	54.607
387.55	54.360
387.91	53.325
388.27	51.993
388.62	54.702
388.98	53.133
389.34	54.068
389.70	54.139
390.06	56.147
390.42	55.707
390.77	55.598
391.13	56.286
391.49	55.584
391.85	54.233
392.20	55.268
392.56	56.881
392.92	56.622
393.28	55.325
393.64	56.295
393.99	55.834
394.35	56.203
394.71	56.462
395.07	56.698
395.42	56.675
395.78	57.634
396.14	58.349
396.50	59.649
396.85	58.996
397.21	57.460
397.57	59.330
397.92	58.594
398.28	57.623
398.64	58.662
399.00	58.702
399.35	58.545
399.71	59.317
400.07	59.787
400.42	61.350
400.78	60.555
401.14	60.122
401.49	60.060
401.85	60.254
402.21	59.940
402.57	60.580
402.92	61.538
403.28	61.899
403.63	61.448
403.99	62.739
404.35	61.152
404.70	61.451
405.06	61.037
405.42	61.697
405.77	61.200
406.13	61.569
406.49	61.502
406.84	61.488
407.20	62.175
407.55	64.263
407.91	64.867
408.27	63.625
408.62	63.757
408.98	63.480
409.34	64.453
409.69	64.129
410.05	65.180
410.40	64.220
410.76	64.875
411.11	64.415
411.47	65.495
411.83	65.730
412.18	65.182
412.54	66.438
412.89	65.060
413.25	66.411
413.60	66.893
413.96	65.331
414.31	66.464
414.67	66.857
415.03	68.808
415.38	68.235
415.74	68.039
416.09	68.713
416.45	68.809
416.80	68.605
417.16	69.102
417.51	70.073
417.87	69.236
418.22	70.095
418.58	70.949
418.93	71.314
419.29	70.146
419.64	69.395
420.00	70.244
420.35	70.783
420.71	70.891
421.06	71.181
421.42	69.883
421.77	71.581
422.12	70.691
422.48	70.750
422.83	70.821
423.19	72.099
423.54	73.418
423.90	72.348
424.25	71.524
424.61	73.274
424.96	73.703
425.31	73.367
425.67	71.404
426.02	73.600
426.38	74.908
426.73	73.903
427.09	75.015
427.44	74.123
427.79	74.928
428.15	74.881
428.50	75.249
428.85	75.089
429.21	75.152
429.56	75.168
429.92	74.132
430.27	75.223
430.62	74.142
430.98	74.209
431.33	73.866
431.68	75.445
432.04	76.358
432.39	78.241
432.74	76.721
433.10	77.985
433.45	78.192
433.80	78.326
434.16	78.259
434.51	76.789
434.86	78.335
435.22	78.933
435.57	79.574
435.92	80.749
436.28	79.834
436.63	78.808
436.98	78.535
437.34	80.262
437.69	79.930
438.04	81.282
438.39	79.761
438.75	80.825
439.10	81.006
439.45	80.579
439.81	83.021
440.16	81.875
440.51	81.605
440.86	80.544
441.22	81.034
441.57	81.157
441.92	82.190
442.27	82.185
442.63	81.464
442.98	81.296
443.33	82.500
443.68	82.189
444.03	82.430
444.39	82.084
444.74	83.333
445.09	82.588
445.44	81.629
445.79	82.138
446.15	81.948
446.50	82.714
446.85	82.837
447.20	82.662
447.55	83.305
447.91	84.666
448.26	82.860
448.61	84.228
448.96	84.662
449.31	85.152
449.66	85.031
450.02	84.847
450.37	83.787
450.72	84.828
451.07	83.973
451.42	82.918
451.77	85.907
452.12	84.527
452.47	82.898
452.83	84.965
453.18	85.330
453.53	86.889
453.88	86.474
454.23	87.448
454.58	86.554
454.93	87.349
455.28	85.599
455.63	86.104
455.98	88.393
456.34	85.364
456.69	86.349
457.04	88.111
457.39	86.850
457.74	85.432
458.09	85.681
458.44	86.773
458.79	85.466
459.14	87.246
459.49	86.398
459.84	86.870
460.19	86.388
460.54	83.738
460.89	85.793
461.24	87.189
461.59	88.088
461.94	86.745
462.29	88.724
462.64	85.833
462.99	87.378
463.34	87.200
463.69	87.805
464.04	86.609
464.39	85.101
464.74	86.512
465.09	87.153
465.44	84.820
465.79	86.969
466.14	85.878
466.49	85.706
466.84	87.040
467.19	86.482
467.54	87.312
467.89	86.194
468.24	86.969
468.59	87.912
468.94	84.667
469.29	88.625
469.64	90.228
469.99	89.175
470.34	88.441
470.68	89.224
471.03	88.980
471.38	91.730
471.73	89.407
472.08	89.342
472.43	88.882
472.78	88.479
473.13	86.072
473.48	89.451
473.83	87.744
474.17	87.492
474.52	88.089
474.87	88.792
475.22	86.999
475.57	86.029
475.92	88.210
476.27	87.599
476.61	88.693
476.96	88.125
477.31	88.017
477.66	88.293
478.01	87.820
478.36	87.890
478.70	87.799
479.05	87.540
479.40	88.741
479.75	88.815
480.10	88.718
480.45	86.340
480.79	87.578
481.14	88.503
481.49	87.850
481.84	87.106
482.19	87.279
482.53	88.394
482.88	87.855
483.23	88.972
483.58	87.716
483.92	88.332
484.27	86.580
484.62	87.759
484.97	87.190
485.31	87.534
485.66	83.579
486.01	81.559
486.36	78.891
486.70	79.411
487.05	80.492
487.40	83.580
487.75	84.283
488.09	86.533
488.44	87.859
488.79	88.897
489.13	88.846
489.48	88.581
489.83	88.433
490.17	88.558
490.52	87.467
490.87	88.241
491.22	87.813
491.56	87.654
491.91	87.762
492.26	88.241
492.60	88.710
492.95	88.026
493.30	86.916
493.64	87.634
493.99	87.837
494.34	86.864
494.68	88.141
495.03	88.158
495.37	87.157
495.72	89.766
496.07	88.538
496.41	84.867
496.76	85.928
497.11	86.312
497.45	87.797
497.80	87.572
498.14	87.198
498.49	88.098
498.84	88.351
499.18	88.714
499.53	86.230
499.87	87.279
500.22	86.670
500.56	89.417
500.91	87.981
501.26	87.482
501.60	87.850
501.95	85.839
502.29	88.191
502.64	88.175
502.98	88.125
503.33	86.837
503.67	87.239
504.02	86.015
504.36	86.991
504.71	87.885
505.06	87.663
505.40	87.457
505.75	86.114
506.09	87.609
506.44	88.555
506.78	87.141
507.13	88.945
507.47	88.939
507.82	88.197
508.16	88.045
508.51	89.548
508.85	88.332
509.19	88.316
509.54	86.939
509.88	88.047
510.23	88.432
510.57	89.319
510.92	88.918
511.26	87.153
511.61	87.707
511.95	87.891
512.30	87.964
512.64	88.716
512.98	89.014
513.33	89.026
513.67	86.126
514.02	87.716
514.36	89.350
514.70	89.873
515.05	90.351
515.39	88.671
515.74	89.752
516.08	88.206
516.42	88.513
516.77	89.075
517.11	87.403
517.46	89.616
517.80	91.057
518.14	89.693
518.49	90.607
518.83	88.466
519.17	90.416
519.52	90.040
519.86	90.074
520.20	89.538
520.55	91.083
520.89	90.572
521.23	90.953
521.58	90.756
521.92	91.427
522.26	88.164
522.61	91.402
522.95	89.871
523.29	90.079
523.64	91.829
523.98	92.545
524.32	89.747
524.66	90.379
525.01	89.828
525.35	90.644
525.69	89.101
526.04	90.654
526.38	90.177
526.72	89.264
527.06	90.207
527.41	89.233
527.75	91.961
528.09	91.908
528.43	90.950
528.78	88.875
529.12	88.848
529.46	90.508
529.80	91.460
530.15	90.654
530.49	89.046
530.83	90.696
531.17	92.689
531.51	91.440
531.86	89.226
532.20	91.134
532.54	88.597
532.88	90.372
533.22	87.320
533.57	87.963
533.91	88.200
534.25	88.639
534.59	89.445
534.93	86.734
535.27	88.715
535.62	89.194
535.96	89.768
536.30	89.638
536.64	89.118
536.98	89.250
537.32	88.611
537.66	89.467
538.01	90.520
538.35	89.851
538.69	89.343
539.03	89.214
539.37	87.923
539.71	87.168
540.05	90.261
540.39	88.771
540.73	87.581
541.07	88.449
541.42	89.759
541.76	89.161
542.10	89.845
542.44	90.861
542.78	88.011
543.12	86.884
543.46	88.131
543.80	88.874
544.14	86.264
544.48	89.397
544.82	88.198
545.16	89.265
545.50	87.532
545.84	88.105
546.18	88.620
546.52	89.126
546.86	90.447
547.20	88.334
547.54	87.842
547.88	87.372
548.22	86.239
548.56	85.031
548.90	85.915
549.24	88.350
549.58	86.835
549.92	88.393
550.26	91.761
550.60	87.275
550.94	90.352
551.28	88.588
551.62	90.295
551.96	88.842
552.30	87.645
552.64	87.424
552.98	88.339
553.32	86.244
553.66	87.594
554.00	87.783
554.34	86.542
554.68	87.840
555.02	88.011
555.36	87.822
555.69	84.912
556.03	86.878
556.37	87.381
556.71	85.812
557.05	87.465
557.39	85.934
557.73	86.662
558.07	88.325
558.41	89.219
558.75	89.199
559.08	88.814
559.42	89.947
559.76	88.162
560.10	87.152
560.44	86.303
560.78	85.828
561.12	85.092
561.45	83.638
561.79	83.652
562.13	85.379
562.47	86.954
562.81	87.657
563.15	85.351
563.48	85.146
563.82	86.432
564.16	86.004
564.50	83.464
564.84	83.123
565.17	86.036
565.51	85.431
565.85	84.898
566.19	83.532
566.52	85.117
566.86	84.207
567.20	84.021
567.54	82.991
567.88	79.848
568.21	80.952
568.55	81.345
568.89	81.080
569.23	79.545
569.56	77.004
569.90	76.792
570.24	77.216
570.57	75.179
570.91	74.273
571.25	74.676
571.59	73.932
571.92	73.906
572.26	74.235
572.60	75.465
572.93	73.883
573.27	74.860
573.61	73.506
573.95	73.463
574.28	72.915
574.62	72.838
574.96	71.541
575.29	72.066
575.63	72.612
575.97	72.715
576.30	72.650
576.64	72.226
576.98	71.463
577.31	72.528
577.65	71.792
577.98	71.431
578.32	69.917
578.66	70.252
578.99	71.673
579.33	70.976
579.67	71.297
580.00	71.470
580.34	71.951
580.67	72.654
581.01	71.486
581.35	71.098
581.68	70.244
582.02	69.355
582.35	69.675
582.69	70.514
583.02	70.852
583.36	71.086
583.70	73.202
584.03	72.936
584.37	73.439
584.70	73.302
585.04	70.523
585.37	71.039
585.71	70.653
586.04	70.548
586.38	72.309
586.72	71.500
587.05	70.198
587.39	70.765
587.72	70.961
588.06	71.612
588.39	71.440
588.73	71.517
589.06	72.982
589.40	73.333
589.73	72.826
590.07	72.776
590.40	73.548
590.73	74.278
591.07	75.621
591.40	74.694
591.74	75.065
592.07	73.866
592.41	72.923
592.74	71.386
593.08	70.187
593.41	70.199
593.75	68.957
594.08	71.069
594.41	70.661
594.75	72.902
595.08	71.188
595.42	72.154
595.75	71.118
596.09	72.400
596.42	71.238
596.75	72.604
597.09	72.684
597.42	71.754
597.75	71.971
598.09	70.609
598.42	71.692
598.76	71.342
599.09	69.023
599.42	69.032
599.76	69.546
600.09	69.035
600.42	68.335
600.76	68.393
601.09	69.982
601.42	69.597
601.76	69.715
602.09	70.672
602.42	69.944
602.76	71.020
603.09	70.889
603.42	70.949
603.76	68.750
604.09	69.601
604.42	70.322
604.76	69.970
605.09	70.380
605.42	68.918
605.75	69.785
606.09	69.174
606.42	69.841
606.75	69.224
607.09	69.025
607.42	69.277
607.75	68.861
608.08	68.910
608.42	69.296
608.75	69.206
609.08	69.380
609.41	69.396
609.75	68.795
610.08	70.028
610.41	69.786
610.74	69.111
611.07	70.702
611.41	70.118
611.74	69.231
612.07	70.186
612.40	70.409
612.73	70.737
613.07	70.312
613.40	70.300
613.73	69.533
614.06	70.860
614.39	68.117
614.72	68.579
615.06	68.855
615.39	68.737
615.72	68.814
616.05	67.836
616.38	70.428
616.71	71.318
617.05	70.612
617.38	70.776
617.71	70.571
618.04	71.575
618.37	69.249
618.70	70.691
619.03	71.776
619.36	72.098
619.69	73.310
620.03	71.635
620.36	71.658
620.69	73.219
621.02	73.083
621.35	73.218
621.68	72.819
622.01	71.672
622.34	73.374
622.67	72.700
623.00	71.607
623.33	71.122
623.66	71.766
623.99	72.091
624.32	71.612
624.65	70.763
624.99	69.051
625.32	69.587
625.65	70.924
625.98	73.174
626.31	71.617
626.64	74.286
626.97	72.402
627.30	73.400
627.63	72.765
627.96	74.516
628.29	73.491
628.62	73.925
628.95	74.906
629.28	71.989
629.61	73.602
629.94	74.857
630.26	74.643
630.59	75.024
630.92	74.808
631.25	72.952
631.58	73.874
631.91	74.341
632.24	76.055
632.57	75.656
632.90	75.987
633.23	76.622
633.56	77.175
633.89	76.444
634.22	77.526
634.55	79.172
634.88	76.527
635.20	74.910
635.53	75.542
635.86	77.475
636.19	75.529
636.52	74.856
636.85	74.685
637.18	72.696
637.51	76.241
637.83	72.750
638.16	77.877
638.49	76.322
638.82	76.233
639.15	75.250
639.48	75.436
639.81	77.748
640.13	76.953
640.46	74.631
640.79	74.505
641.12	74.140
641.45	75.978
641.77	82.180
642.10	77.778
642.43	78.378
642.76	80.341
643.09	78.681
643.41	76.328
643.74	80.247
644.07	77.287
644.40	77.914
644.73	77.323
645.05	80.190
645.38	79.305
645.71	78.905
646.04	80.066
646.36	80.134
646.69	76.589
647.02	76.871
647.35	79.897
647.67	80.708
648.00	76.585
648.33	76.898
648.66	73.636
648.98	74.813
649.31	74.589
649.64	72.945
649.96	73.472
650.29	74.882
650.62	77.023
650.94	75.203
651.27	79.392
651.60	78.536
651.92	74.441
652.25	73.941
652.58	75.078
652.90	74.092
653.23	72.573
653.56	73.858
653.88	72.742
654.21	72.512
654.54	75.743
654.86	72.897
655.19	68.378
655.52	49.432
655.84	43.611
656.17	56.755
656.49	77.157
656.82	80.479
657.15	62.280
657.47	46.521
657.80	36.755
658.13	38.338
658.45	58.663
658.78	59.741
659.10	63.319
659.43	66.372
659.75	69.317
660.08	73.354
660.41	77.374
660.73	78.272
661.06	77.229
661.38	78.545
661.71	75.192
662.03	76.331
662.36	71.769
662.68	74.900
663.01	75.556
663.33	76.858
663.66	76.471
663.98	75.810
664.31	76.891
664.63	75.506
664.96	73.441
665.28	77.254
665.61	72.515
665.93	73.038
666.26	72.819
666.58	75.314
666.91	75.264
667.23	79.326
667.56	76.890
667.88	76.496
668.21	76.119
668.53	75.705
668.86	72.294
669.18	75.267
669.50	75.435
669.83	78.214
670.15	76.667
670.48	76.906
670.80	73.707
671.13	72.611
671.45	71.277
671.77	69.450
672.10	68.207
672.42	69.965
672.75	67.828
673.07	68.662
673.39	70.524
673.72	74.219
674.04	71.569
674.37	71.068
674.69	71.166
675.01	73.640
675.34	73.511
675.66	75.789
675.98	70.672
676.31	72.059
676.63	72.824
676.95	72.327
677.28	75.935
677.60	72.747
677.92	72.152
678.25	71.458
678.57	70.717
678.89	69.739
679.22	69.941
679.54	71.565
679.86	67.706
680.18	67.442
680.51	67.553
680.83	64.591
681.15	69.245
681.48	70.321
681.80	69.439
682.12	68.008
682.44	66.344
682.77	70.672
683.09	72.318
683.41	72.062
683.73	71.965
684.06	69.215
684.38	65.362
684.70	67.442
685.02	68.105
685.34	64.652
685.67	64.860
685.99	64.433
686.31	65.017
686.63	59.011
686.96	64.464
687.28	64.982
687.60	62.500
687.92	63.437
688.24	66.540
688.56	66.466
688.89	68.050
689.21	73.144
689.53	66.180
689.85	69.845
690.17	63.768
690.49	69.639
690.82	69.159
691.14	67.411
691.46	66.878
691.78	66.667
692.10	66.322
692.42	67.864
692.74	64.730
693.06	67.021
693.39	64.887
693.71	65.939
694.03	69.895
694.35	65.801
694.67	66.590
694.99	70.000
695.31	69.118
695.63	68.182
695.95	69.193
696.27	73.350
696.59	67.098
696.91	69.171
697.23	64.319
697.56	63.539
697.88	58.487
698.20	65.625
698.52	63.871
698.84	64.811
699.16	64.977
699.48	67.696
699.80	67.150
700.12	71.688
700.44	64.987
700.76	72.376
701.08	73.276
701.40	71.229
701.72	75.219
702.04	71.875
702.36	67.139
702.68	71.105
703.00	71.191
703.32	64.362
703.64	63.003
703.96	69.638
704.28	69.477
704.60	70.381
704.91	70.920
705.23	70.968
705.55	74.086
705.87	75.748
706.19	75.265
706.51	71.340
706.83	72.121
707.15	67.227
707.47	64.646
707.79	65.356
708.11	61.416
708.43	65.476
708.74	60.969
709.06	70.390
709.38	62.730
709.70	68.895
710.02	71.810
710.34	65.152
710.66	69.254
710.98	64.489
711.29	67.151
711.61	71.091
711.93	70.513
712.25	73.312
712.57	73.162
712.89	73.702
713.20	64.134
713.52	70.066
713.84	66.139
714.16	67.683
714.48	63.218
714.80	69.909
715.11	64.553
715.43	68.249
715.75	63.768
716.07	66.454
716.39	68.025
716.70	70.432
717.02	73.381
717.34	69.611
717.66	74.254
717.97	77.689
718.29	68.148
718.61	71.168
718.93	69.485
719.24	70.242
719.56	68.475
719.88	70.169
720.20	66.892
720.51	69.338
720.83	73.606
721.15	72.015
721.46	61.702
721.78	69.176
722.10	73.208
722.42	69.549
722.73	69.288
723.05	75.000
723.37	70.850
723.68	68.726
724.00	69.106
724.32	75.806
724.63	71.545
724.95	73.640
725.27	71.255
725.58	68.359
725.90	70.073
726.22	68.679
726.53	68.056
726.85	69.966
727.16	59.431
727.48	64.894
727.80	67.803
728.11	66.304
728.43	67.308
728.74	64.516
729.06	68.978
729.38	68.382
729.69	65.836
730.01	62.799
730.32	62.847
730.64	62.876
730.96	62.706
731.27	64.901
731.59	62.385
731.90	57.434
732.22	60.248
732.53	61.610
732.85	64.744
733.16	63.344
733.48	63.787
733.80	57.468
734.11	66.242
734.43	57.988
734.74	59.143
735.06	55.874
735.37	62.139
735.69	56.051
736.00	63.399
736.32	61.994
736.63	59.425
736.95	58.786
737.26	58.844
737.58	60.323
737.89	60.870
738.21	62.457
738.52	63.214
738.83	61.509
739.15	64.231
739.46	63.869
739.78	61.111
740.09	60.308
740.41	63.226
740.72	59.930
741.04	64.815
741.35	65.000
741.66	76.444
741.98	65.566
742.29	67.943
742.61	69.828
742.92	69.231
743.23	67.949
743.55	63.600
743.86	64.912
744.18	66.814
744.49	72.249
744.80	78.404
745.12	70.000
745.43	61.674
745.74	71.171
746.06	64.679
746.37	70.404
746.68	72.851
747.00	64.352
747.31	74.286
747.62	67.699
747.94	63.877
748.25	61.702
748.56	66.960
748.88	68.317
749.19	71.500
749.50	65.581
749.82	62.602
750.13	66.122
750.44	60.219
750.75	60.351
751.07	61.736
751.38	59.233
751.69	58.845
752.01	65.414
752.32	58.123
752.63	60.284
752.94	58.197
753.26	68.800
753.57	64.228
753.88	62.109
754.19	63.571
754.51	60.417
754.82	59.567
755.13	63.019
755.44	61.278
755.75	61.679
756.07	56.738
756.38	59.489
756.69	59.732
757.00	54.491
757.31	55.193
757.63	54.971
757.94	50.670
758.25	49.755
758.56	50.370
758.87	55.108
759.18	55.758
759.50	57.367
759.81	57.632
760.12	53.750
760.43	56.734
760.74	50.000
761.05	55.367
761.36	52.406
761.67	54.545
761.99	55.280
762.30	59.028
762.61	60.305
762.92	63.281
763.23	59.244
763.54	60.000
763.85	58.203
764.16	61.538
764.47	60.837
764.78	59.364
765.10	52.848
765.41	49.263
765.72	53.293
766.03	55.799
766.34	58.333
766.65	68.085
766.96	62.393
767.27	65.482
767.58	67.188
767.89	70.000
768.20	69.540
768.51	69.036
768.82	63.303
769.13	57.317
769.44	58.300
769.75	64.378
770.06	59.633
770.37	68.778
770.68	63.889
770.99	61.333
771.30	55.738
771.61	59.641
771.92	61.475
772.23	65.966
772.54	64.103
772.85	66.492
773.16	64.894
773.47	73.370
773.78	65.990
774.09	72.024
774.39	71.930
774.70	74.074
775.01	84.783
775.32	83.660
775.63	75.000
775.94	79.137
776.25	85.827
776.56	81.343
776.87	83.607
777.18	82.031
777.48	80.916
777.79	75.758
778.10	83.704
778.41	84.821
778.72	73.723
779.03	75.168
779.34	67.114
779.65	72.973
779.95	73.620
780.26	72.549
780.57	73.793
780.88	88.281
781.19	74.436
781.50	76.351
781.80	69.182
782.11	63.277
782.42	67.089
782.73	68.098
783.04	75.000
783.34	78.873
783.65	82.192
783.96	73.134
784.27	72.727
784.57	73.381
784.88	82.407
785.19	80.952
785.50	82.075
785.81	82.090
786.11	92.623
786.42	74.419
786.73	85.841
787.04	88.679
787.34	88.393
787.65	88.000
787.96	80.180
788.26	83.471
788.57	99.153
788.88	93.388
789.19	70.833
789.49	88.636
789.80	81.679
790.11	109.524
790.41	81.188
790.72	108.434
791.03	89.130
791.33	101.163
791.64	87.629
791.95	91.089
792.25	96.667
792.56	109.091
792.87	119.231
793.17	101.266
793.48	105.747
793.79	97.701
794.09	104.545
794.40	80.672
794.70	80.882
795.01	68.148
795.32	68.345
795.62	76.378
795.93	75.862
796.23	84.071
796.54	95.294
796.85	105.405
797.15	122.535
797.46	104.545
797.76	96.386
798.07	112.658
798.37	100.000
798.68	125.758
798.99	87.324
799.29	114.286
799.60	102.273
799.90	121.918
800.21	113.433
800.51	117.241
800.82	138.596
801.12	126.230
801.43	124.242
801.73	97.297
802.04	126.984
802.34	112.346
802.65	110.938
802.95	133.898
803.26	117.188
803.56	95.714
803.87	126.154
804.17	108.824
804.48	146.296
804.78	103.448
805.09	133.824
805.39	134.615
805.70	132.143
806.00	134.426
806.30	112.121
806.61	101.220
806.91	93.671
807.22	103.947
807.52	102.985
807.83	122.535
808.13	128.125
808.43	125.000
808.74	102.632
809.04	120.290
809.35	113.433
809.65	103.947
809.95	151.613
810.26	120.339
810.56	117.460
810.86	159.091
811.17	157.143
811.47	111.667
811.77	133.333
812.08	141.818
812.38	138.000
812.69	194.444
812.99	175.000
813.29	146.939
813.59	133.333
813.90	157.143
814.20	130.909
814.50	121.538
814.81	127.941
815.11	138.776
815.41	108.197
815.72	178.571
816.02	132.727
816.32	147.619
816.62	175.000
816.93	163.415
817.23	180.952
817.53	163.636
817.84	200.000
818.14	147.826
818.44	137.778
818.74	194.118
819.04	152.500
819.35	182.857
819.65	205.882
819.95	221.429
820.25	280.000
820.56	179.487
820.86	156.818
821.16	155.814
821.46	174.359
821.76	136.000
822.07	191.429
822.37	170.000
822.67	200.000
822.97	137.255
823.27	203.571
823.57	181.081
823.88	180.000
824.18	230.000
824.48	178.571
824.78	256.000
825.08	200.000
825.38	175.676
825.69	158.537
825.99	216.667
826.29	213.793
826.59	186.842
826.89	147.368
827.19	188.235
827.49	235.484
827.79	165.909
828.09	165.909
828.39	138.298
828.70	157.143
829.00	211.111
829.30	190.323
829.60	175.000
829.90	373.333
830.20	257.143
830.50	230.435
830.80	252.174
831.10	226.667
831.40	240.000
831.70	234.783
832.00	250.000
832.30	229.630
832.60	312.500
832.90	260.000
833.20	442.857
833.50	229.032
833.80	210.345
834.10	187.500
834.40	296.154
834.70	305.556
835.00	342.857
835.30	188.571
835.60	392.308
835.90	234.483
836.20	421.429
836.50	234.483
836.80	232.000
837.10	197.222
837.40	304.762
837.70	358.824
838.00	214.815
838.30	247.619
838.60	342.857
838.90	253.846
839.19	295.000
839.49	392.857
839.79	335.000
840.09	325.000
840.39	280.952
840.69	269.565
840.99	311.111
841.29	470.000
841.59	408.333
841.88	356.250
842.18	203.448
842.48	295.238
842.78	203.333
843.08	221.739
843.38	190.625
843.68	866.667
843.97	234.615
844.27	210.345
844.57	276.190
844.87	387.500
845.17	255.556
845.47	2133.333
845.76	666.667
846.06	405.882
846.36	600.000
846.66	421.429
846.96	306.250
847.25	472.727
847.55	445.455
847.85	286.957
848.15	470.000
848.44	442.857
848.74	272.222
849.04	405.882
849.34	500.000
849.63	236.842
849.93	581.818
850.23	1040.000
850.53	507.143
850.82	2500.000
851.12	-4300.000
851.42	4500.000
851.71	295.000
852.01	-1333.333
852.31	225.000
852.61	2000.000
852.90	309.524
853.20	244.000
853.50	364.706
853.79	233.333
854.09	216.667
854.39	331.250
854.68	178.378
854.98	196.774
855.28	176.667
855.57	241.379
855.87	196.296
856.17	268.421
856.46	293.333
856.76	311.765
857.05	213.793
857.35	266.667
857.65	366.667
857.94	252.174
858.24	265.385
858.53	360.000
858.83	218.182
859.13	366.667
859.42	0.000
859.72	711.111
860.01	445.455
860.31	240.909
860.60	242.105
860.90	252.174
861.20	611.111
861.49	500.000
861.79	-4400.000
862.08	675.000
862.38	333.333
862.67	338.462
862.97	364.706
863.26	577.778
863.56	288.889
863.85	400.000
864.15	537.500
864.44	386.667
864.74	883.333
865.03	762.500
865.33	336.842
865.62	536.364
865.92	469.231
866.21	425.000
866.51	0.000
866.80	445.455
867.10	1260.000
867.39	461.538
867.69	518.182
867.98	331.579
868.27	518.182
868.57	305.263
868.86	-5500.000
869.16	337.500
869.45	2650.000
869.75	-4700.000
870.04	433.333
870.33	800.000
870.63	1200.000
870.92	2650.000
871.22	900.000
871.51	364.706
871.80	238.095
872.10	450.000
>>>>>End Processed Spectral Data<<<<<
