SpectraSuite Data File
++++++++++++++++++++++++++++++++++++
Date: Wed May 13 19:14:07 PDT 2015
User: schluterlab
Dark Spectrum Present: Yes
Reference Spectrum Present: Yes
Number of Sampled Component Spectra: 1
Spectrometers: USB2E3373
Integration Time (usec): 3000 (USB2E3373)
Spectra Averaged: 3 (USB2E3373)
Boxcar Smoothing: 0 (USB2E3373)
Correct for Electrical Dark: No (USB2E3373)
Strobe/Lamp Enabled: No (USB2E3373)
Correct for Detector Non-linearity: No (USB2E3373)
Correct for Stray Light: No (USB2E3373)
Number of Pixels in Processed Spectrum: 2048
>>>>>Begin Processed Spectral Data<<<<<
178.53	0.000
178.91	-1600.000
179.29	-1500.000
179.67	-277.778
180.04	-1300.000
180.42	2850.000
180.80	1180.000
181.18	-1275.000
181.56	785.714
181.94	0.000
182.31	-700.000
182.69	1966.667
183.07	-662.500
183.45	-600.000
183.83	581.818
184.20	-500.000
184.58	2550.000
184.96	6600.000
185.34	-1000.000
185.72	-687.500
186.09	-3000.000
186.47	2850.000
186.85	2700.000
187.23	6100.000
187.61	-1833.333
187.98	1375.000
188.36	618.182
188.74	572.727
189.12	-1000.000
189.49	620.000
189.87	-5900.000
190.25	-1550.000
190.63	414.286
191.00	507.692
191.38	816.667
191.76	-1300.000
192.14	1675.000
192.51	825.000
192.89	1100.000
193.27	700.000
193.65	-1375.000
194.02	580.000
194.40	1080.000
194.78	630.000
195.15	566.667
195.53	760.000
195.91	-2300.000
196.29	381.250
196.66	384.211
197.04	-460.000
197.42	0.000
197.79	700.000
198.17	-4100.000
198.55	871.429
198.92	637.500
199.30	1000.000
199.68	0.000
200.05	350.000
200.43	1042.857
200.81	5700.000
201.18	2233.333
201.56	-1966.667
201.94	511.111
202.31	633.333
202.69	416.667
203.07	570.000
203.44	0.000
203.82	1525.000
204.19	942.857
204.57	485.714
204.95	737.500
205.32	1633.333
205.70	545.455
206.08	450.000
206.45	3200.000
206.83	425.000
207.20	983.333
207.58	800.000
207.96	350.000
208.33	837.500
208.71	-850.000
209.08	885.714
209.46	666.667
209.84	581.818
210.21	-1600.000
210.59	1775.000
210.96	-687.500
211.34	3100.000
211.71	680.000
212.09	1066.667
212.46	0.000
212.84	1733.333
213.22	1675.000
213.59	-6600.000
213.97	916.667
214.34	900.000
214.72	645.455
215.09	1100.000
215.47	-2650.000
215.84	-2550.000
216.22	2000.000
216.59	421.429
216.97	1400.000
217.34	600.000
217.72	-666.667
218.09	0.000
218.47	-5800.000
218.84	722.222
219.22	985.714
219.59	1966.667
219.97	-757.143
220.34	1120.000
220.72	-1933.333
221.09	521.429
221.47	1625.000
221.84	-1116.667
222.22	0.000
222.59	1625.000
222.97	-3100.000
223.34	1320.000
223.72	523.077
224.09	1340.000
224.46	2950.000
224.84	-5200.000
225.21	-1300.000
225.59	-5400.000
225.96	630.000
226.34	315.000
226.71	2500.000
227.08	737.500
227.46	610.000
227.83	-1000.000
228.21	-2950.000
228.58	633.333
228.95	-2750.000
229.33	-2650.000
229.70	1766.667
230.08	928.571
230.45	-900.000
230.82	508.333
231.20	1033.333
231.57	828.571
231.95	483.333
232.32	272.727
232.69	463.636
233.07	814.286
233.44	415.385
233.81	-1766.667
234.19	331.579
234.56	441.667
234.93	425.000
235.31	472.727
235.68	353.846
236.05	400.000
236.43	181.818
236.80	315.789
237.17	4500.000
237.55	266.667
237.92	217.857
238.29	280.952
238.67	222.581
239.04	200.000
239.41	186.111
239.79	132.609
240.16	138.095
240.53	145.455
240.91	90.196
241.28	120.000
241.65	128.000
242.02	97.101
242.40	101.613
242.77	100.000
243.14	69.892
243.51	79.775
243.89	85.882
244.26	71.111
244.63	73.118
245.00	58.511
245.38	71.287
245.75	57.944
246.12	74.312
246.49	59.854
246.87	64.000
247.24	56.923
247.61	45.714
247.98	54.248
248.36	48.649
248.73	43.949
249.10	49.682
249.47	42.938
249.84	44.385
250.22	45.989
250.59	44.379
250.96	46.465
251.33	41.706
251.70	45.050
252.08	41.429
252.45	34.978
252.82	36.957
253.19	40.426
253.56	31.765
253.94	40.664
254.31	35.156
254.68	40.000
255.05	34.317
255.42	34.553
255.79	33.456
256.16	34.296
256.54	36.042
256.91	29.537
257.28	31.655
257.65	31.353
258.02	32.609
258.39	29.338
258.76	28.094
259.14	30.357
259.51	31.003
259.88	28.571
260.25	31.722
260.62	27.746
260.99	31.677
261.36	30.330
261.73	30.086
262.10	31.105
262.47	31.268
262.85	29.248
263.22	27.350
263.59	30.769
263.96	26.648
264.33	28.198
264.70	25.526
265.07	27.366
265.44	28.535
265.81	24.574
266.18	28.392
266.55	25.854
266.92	27.764
267.29	26.852
267.66	25.229
268.03	27.273
268.40	28.738
268.77	25.298
269.14	24.550
269.51	24.379
269.88	27.972
270.25	24.605
270.62	24.719
270.99	28.172
271.36	25.536
271.73	26.636
272.10	25.435
272.47	27.312
272.84	25.541
273.21	26.415
273.58	22.707
273.95	24.319
274.32	23.140
274.69	25.268
275.06	22.441
275.43	25.957
275.80	21.443
276.17	24.440
276.54	25.988
276.91	22.727
277.28	24.219
277.65	25.725
278.02	21.739
278.39	25.781
278.76	22.909
279.13	24.340
279.50	24.022
279.87	23.904
280.23	22.156
280.60	22.050
280.97	21.811
281.34	23.363
281.71	21.818
282.08	23.608
282.45	22.000
282.82	22.380
283.19	21.569
283.56	22.456
283.92	25.042
284.29	21.693
284.66	22.505
285.03	20.615
285.40	21.655
285.77	22.054
286.14	20.035
286.51	22.333
286.87	21.197
287.24	21.824
287.61	21.027
287.98	20.130
288.35	20.602
288.72	19.782
289.08	20.970
289.45	20.428
289.82	18.374
290.19	17.896
290.56	21.440
290.93	18.278
291.29	19.018
291.66	20.354
292.03	20.640
292.40	20.999
292.77	19.379
293.13	19.403
293.50	20.262
293.87	19.556
294.24	18.222
294.60	17.031
294.97	19.477
295.34	18.759
295.71	19.318
296.08	16.097
296.44	18.019
296.81	16.645
297.18	17.480
297.55	16.887
297.91	18.074
298.28	17.805
298.65	18.277
299.02	18.182
299.38	17.928
299.75	15.364
300.12	16.858
300.48	18.125
300.85	15.290
301.22	17.325
301.59	15.152
301.95	16.877
302.32	17.330
302.69	16.010
303.05	16.727
303.42	16.296
303.79	16.535
304.15	14.103
304.52	15.180
304.89	14.518
305.25	15.893
305.62	15.176
305.99	16.411
306.35	15.324
306.72	16.928
307.09	15.760
307.45	17.342
307.82	13.839
308.19	16.336
308.55	16.397
308.92	17.401
309.29	16.895
309.65	16.119
310.02	15.856
310.38	15.161
310.75	16.790
311.12	17.298
311.48	16.510
311.85	17.400
312.22	17.690
312.58	16.632
312.95	18.902
313.31	17.282
313.68	17.256
314.05	19.724
314.41	18.392
314.78	19.335
315.14	18.272
315.51	20.391
315.87	20.000
316.24	21.251
316.61	20.760
316.97	21.526
317.34	20.157
317.70	22.753
318.07	22.810
318.43	24.168
318.80	24.555
319.16	24.105
319.53	24.859
319.89	25.524
320.26	27.300
320.62	27.083
320.99	29.091
321.35	28.586
321.72	29.466
322.08	31.096
322.45	34.527
322.81	33.140
323.18	34.297
323.54	35.529
323.91	36.132
324.27	36.998
324.64	38.211
325.00	38.233
325.37	41.310
325.73	44.255
326.10	44.395
326.46	43.190
326.83	46.247
327.19	47.822
327.56	48.345
327.92	51.269
328.29	51.020
328.65	52.302
329.01	53.339
329.38	54.764
329.74	55.217
330.11	58.341
330.47	56.566
330.84	59.191
331.20	59.199
331.56	59.633
331.93	60.926
332.29	60.426
332.66	60.885
333.02	60.969
333.38	62.602
333.75	61.586
334.11	62.900
334.48	63.975
334.84	64.062
335.20	64.273
335.57	66.727
335.93	63.661
336.29	65.293
336.66	67.899
337.02	67.059
337.38	66.852
337.75	66.845
338.11	66.697
338.47	69.705
338.84	68.836
339.20	66.881
339.56	70.712
339.93	68.636
340.29	68.025
340.65	69.519
341.02	70.768
341.38	71.085
341.74	69.649
342.11	70.830
342.47	70.485
342.83	70.548
343.20	71.342
343.56	69.587
343.92	72.105
344.28	70.663
344.65	71.367
345.01	70.455
345.37	71.441
345.73	70.981
346.10	73.061
346.46	72.712
346.82	72.405
347.19	72.598
347.55	73.235
347.91	74.272
348.27	74.692
348.63	74.833
349.00	73.301
349.36	73.810
349.72	73.055
350.08	73.501
350.45	75.834
350.81	74.411
351.17	74.068
351.53	75.676
351.89	75.000
352.26	75.612
352.62	77.065
352.98	76.985
353.34	77.321
353.70	76.596
354.07	77.823
354.43	75.556
354.79	75.865
355.15	77.255
355.51	79.856
355.87	79.102
356.24	79.072
356.60	76.022
356.96	79.646
357.32	78.250
357.68	79.370
358.04	78.781
358.40	78.464
358.77	78.560
359.13	81.610
359.49	79.765
359.85	79.206
360.21	80.383
360.57	81.245
360.93	81.231
361.29	78.836
361.66	79.025
362.02	79.925
362.38	82.205
362.74	81.548
363.10	82.013
363.46	81.952
363.82	82.766
364.18	81.204
364.54	84.324
364.90	81.728
365.26	83.971
365.62	84.149
365.98	83.930
366.35	83.095
366.71	83.080
367.07	83.540
367.43	85.414
367.79	84.297
368.15	86.638
368.51	85.465
368.87	85.296
369.23	86.686
369.59	85.663
369.95	86.471
370.31	85.897
370.67	84.783
371.03	88.315
371.39	86.880
371.75	88.456
372.11	85.206
372.47	89.883
372.83	90.418
373.19	88.945
373.55	89.283
373.91	90.943
374.27	87.010
374.63	89.236
374.99	89.407
375.35	89.532
375.71	88.897
376.07	89.781
376.42	91.541
376.78	91.716
377.14	89.688
377.50	90.662
377.86	90.691
378.22	90.645
378.58	90.789
378.94	91.326
379.30	92.557
379.66	93.972
380.02	91.953
380.38	92.896
380.74	92.557
381.09	91.626
381.45	93.731
381.81	93.428
382.17	93.885
382.53	92.704
382.89	95.370
383.25	95.059
383.61	95.663
383.97	93.308
384.32	93.387
384.68	93.928
385.04	94.530
385.40	95.046
385.76	94.656
386.12	95.402
386.48	96.161
386.83	97.306
387.19	95.980
387.55	98.516
387.91	95.707
388.27	96.689
388.62	96.988
388.98	94.042
389.34	96.120
389.70	94.298
390.06	96.324
390.42	96.563
390.77	96.310
391.13	98.149
391.49	97.018
391.85	95.990
392.20	97.098
392.56	96.402
392.92	97.705
393.28	96.627
393.64	97.362
393.99	94.624
394.35	97.208
394.71	94.793
395.07	96.573
395.42	99.876
395.78	97.964
396.14	96.710
396.50	98.684
396.85	96.821
397.21	96.917
397.57	98.326
397.92	97.115
398.28	95.684
398.64	96.953
399.00	97.146
399.35	96.898
399.71	96.991
400.07	97.575
400.42	96.380
400.78	98.914
401.14	98.293
401.49	98.209
401.85	97.157
402.21	97.545
402.57	96.669
402.92	98.802
403.28	96.877
403.63	97.958
403.99	100.382
404.35	96.970
404.70	98.861
405.06	97.729
405.42	99.189
405.77	97.029
406.13	96.219
406.49	95.328
406.84	96.929
407.20	97.222
407.55	97.575
407.91	99.267
408.27	100.064
408.62	96.930
408.98	98.652
409.34	97.232
409.69	98.839
410.05	96.654
410.40	97.859
410.76	97.312
411.11	96.140
411.47	95.911
411.83	98.839
412.18	96.166
412.54	98.257
412.89	95.181
413.25	97.403
413.60	95.985
413.96	93.746
414.31	95.930
414.67	96.578
415.03	95.762
415.38	95.747
415.74	97.878
416.09	97.126
416.45	97.256
416.80	97.687
417.16	98.056
417.51	96.483
417.87	95.504
418.22	95.584
418.58	95.610
418.93	97.789
419.29	96.372
419.64	96.222
420.00	96.280
420.35	94.435
420.71	97.549
421.06	95.823
421.42	95.673
421.77	95.123
422.12	96.182
422.48	94.873
422.83	96.797
423.19	94.586
423.54	96.402
423.90	94.841
424.25	94.640
424.61	95.298
424.96	96.968
425.31	96.013
425.67	93.764
426.02	94.057
426.38	96.642
426.73	94.792
427.09	94.650
427.44	95.572
427.79	94.710
428.15	95.238
428.50	92.920
428.85	95.650
429.21	94.754
429.56	96.008
429.92	93.810
430.27	93.694
430.62	93.804
430.98	93.098
431.33	93.454
431.68	95.131
432.04	92.013
432.39	94.974
432.74	94.255
433.10	95.982
433.45	94.927
433.80	94.290
434.16	93.750
434.51	92.842
434.86	94.413
435.22	95.220
435.57	95.502
435.92	95.202
436.28	96.026
436.63	94.040
436.98	95.020
437.34	95.170
437.69	96.674
438.04	94.042
438.39	95.821
438.75	95.235
439.10	95.084
439.45	95.041
439.81	95.106
440.16	93.224
440.51	95.723
440.86	95.773
441.22	94.716
441.57	95.170
441.92	95.803
442.27	95.694
442.63	93.260
442.98	95.606
443.33	94.185
443.68	95.612
444.03	94.778
444.39	94.206
444.74	96.374
445.09	94.016
445.44	93.330
445.79	93.073
446.15	91.689
446.50	93.538
446.85	94.193
447.20	93.320
447.55	94.528
447.91	92.719
448.26	93.879
448.61	95.421
448.96	93.854
449.31	94.938
449.66	93.866
450.02	94.429
450.37	93.707
450.72	94.585
451.07	94.455
451.42	93.739
451.77	94.187
452.12	93.476
452.47	94.030
452.83	96.037
453.18	93.460
453.53	95.980
453.88	94.330
454.23	93.246
454.58	94.246
454.93	96.376
455.28	94.389
455.63	95.267
455.98	95.417
456.34	94.472
456.69	94.865
457.04	94.861
457.39	93.454
457.74	93.616
458.09	92.524
458.44	94.014
458.79	90.889
459.14	93.454
459.49	93.987
459.84	91.080
460.19	92.988
460.54	90.104
460.89	92.814
461.24	92.957
461.59	93.492
461.94	91.554
462.29	93.591
462.64	92.597
462.99	90.631
463.34	92.467
463.69	93.371
464.04	91.420
464.39	91.536
464.74	90.969
465.09	91.616
465.44	90.471
465.79	89.877
466.14	90.476
466.49	88.932
466.84	89.492
467.19	90.766
467.54	91.562
467.89	89.376
468.24	89.529
468.59	91.636
468.94	89.004
469.29	91.517
469.64	92.236
469.99	90.934
470.34	91.678
470.68	91.451
471.03	88.707
471.38	91.800
471.73	88.874
472.08	92.434
472.43	91.018
472.78	90.388
473.13	89.281
473.48	88.202
473.83	90.610
474.17	89.546
474.52	89.516
474.87	89.550
475.22	88.624
475.57	86.835
475.92	88.688
476.27	87.430
476.61	88.858
476.96	86.916
477.31	87.964
477.66	88.621
478.01	85.363
478.36	88.419
478.70	86.085
479.05	86.581
479.40	87.922
479.75	87.290
480.10	88.469
480.45	85.673
480.79	85.523
481.14	86.350
481.49	86.189
481.84	85.094
482.19	86.006
482.53	86.101
482.88	85.621
483.23	86.121
483.58	85.714
483.92	86.082
484.27	83.704
484.62	83.879
484.97	82.538
485.31	83.870
485.66	82.866
486.01	79.698
486.36	76.281
486.70	75.787
487.05	77.582
487.40	79.418
487.75	80.613
488.09	81.953
488.44	82.422
488.79	84.702
489.13	83.499
489.48	84.217
489.83	83.643
490.17	84.086
490.52	83.437
490.87	83.401
491.22	82.765
491.56	82.870
491.91	83.341
492.26	81.580
492.60	82.535
492.95	81.759
493.30	80.794
493.64	81.895
493.99	81.291
494.34	81.591
494.68	80.449
495.03	83.365
495.37	80.316
495.72	82.846
496.07	81.346
496.41	80.088
496.76	80.827
497.11	79.244
497.45	81.509
497.80	80.278
498.14	79.662
498.49	81.951
498.84	79.770
499.18	79.905
499.53	80.152
499.87	80.009
500.22	78.427
500.56	81.019
500.91	79.327
501.26	78.900
501.60	79.829
501.95	79.239
502.29	79.053
502.64	78.957
502.98	78.728
503.33	77.651
503.67	78.144
504.02	78.110
504.36	76.696
504.71	78.212
505.06	78.892
505.40	77.783
505.75	76.181
506.09	77.891
506.44	78.145
506.78	77.935
507.13	79.303
507.47	77.273
507.82	78.470
508.16	78.065
508.51	78.539
508.85	76.564
509.19	76.582
509.54	76.684
509.88	76.043
510.23	76.658
510.57	77.399
510.92	77.732
511.26	76.773
511.61	75.674
511.95	74.374
512.30	76.776
512.64	76.303
512.98	76.420
513.33	75.642
513.67	75.774
514.02	76.245
514.36	75.969
514.70	75.816
515.05	76.297
515.39	76.276
515.74	75.676
516.08	75.238
516.42	76.693
516.77	74.972
517.11	74.917
517.46	74.210
517.80	76.190
518.14	74.233
518.49	74.737
518.83	73.864
519.17	74.711
519.52	74.703
519.86	74.330
520.20	75.260
520.55	76.002
520.89	75.973
521.23	75.814
521.58	74.550
521.92	74.342
522.26	73.948
522.61	76.199
522.95	74.095
523.29	72.855
523.64	73.232
523.98	74.122
524.32	72.919
524.66	72.880
525.01	73.836
525.35	72.739
525.69	71.613
526.04	72.087
526.38	72.849
526.72	72.577
527.06	73.321
527.41	70.297
527.75	73.505
528.09	74.053
528.43	72.148
528.78	72.833
529.12	71.394
529.46	71.831
529.80	71.101
530.15	70.592
530.49	70.462
530.83	70.759
531.17	72.846
531.51	71.790
531.86	72.774
532.20	72.360
532.54	71.172
532.88	71.951
533.22	69.269
533.57	70.247
533.91	68.453
534.25	67.679
534.59	70.653
534.93	68.233
535.27	68.256
535.62	68.620
535.96	69.492
536.30	68.277
536.64	68.448
536.98	70.139
537.32	69.256
537.66	69.400
538.01	68.729
538.35	68.908
538.69	68.283
539.03	66.992
539.37	67.093
539.71	66.688
540.05	69.020
540.39	68.372
540.73	66.559
541.07	67.164
541.42	67.776
541.76	66.968
542.10	67.400
542.44	68.013
542.78	66.733
543.12	66.155
543.46	66.557
543.80	66.363
544.14	65.212
544.48	65.778
544.82	65.106
545.16	65.127
545.50	64.653
545.84	65.927
546.18	65.320
546.52	67.240
546.86	66.598
547.20	65.408
547.54	64.796
547.88	64.987
548.22	64.134
548.56	63.836
548.90	63.700
549.24	65.320
549.58	65.280
549.92	66.277
550.26	66.903
550.60	63.762
550.94	65.000
551.28	65.764
551.62	64.989
551.96	63.860
552.30	64.164
552.64	64.638
552.98	64.678
553.32	62.846
553.66	64.076
554.00	64.173
554.34	62.388
554.68	64.950
555.02	64.316
555.36	63.118
555.69	61.773
556.03	61.777
556.37	62.074
556.71	60.914
557.05	63.725
557.39	62.841
557.73	63.656
558.07	65.047
558.41	61.577
558.75	62.381
559.08	62.864
559.42	64.928
559.76	62.426
560.10	62.170
560.44	61.915
560.78	60.479
561.12	59.433
561.45	59.974
561.79	61.371
562.13	61.301
562.47	60.587
562.81	62.692
563.15	59.666
563.48	61.074
563.82	60.404
564.16	59.189
564.50	60.872
564.84	58.850
565.17	58.945
565.51	60.511
565.85	59.327
566.19	59.424
566.52	59.468
566.86	59.011
567.20	57.665
567.54	57.820
567.88	57.089
568.21	56.296
568.55	56.977
568.89	56.323
569.23	54.947
569.56	54.130
569.90	53.698
570.24	52.422
570.57	51.819
570.91	51.034
571.25	50.803
571.59	51.399
571.92	51.354
572.26	50.953
572.60	51.712
572.93	50.585
573.27	51.375
573.61	50.754
573.95	51.163
574.28	50.302
574.62	49.830
574.96	49.319
575.29	49.588
575.63	49.975
575.97	49.466
576.30	50.133
576.64	49.305
576.98	48.858
577.31	49.445
577.65	49.403
577.98	48.392
578.32	48.054
578.66	48.302
578.99	48.026
579.33	48.390
579.67	48.431
580.00	48.717
580.34	48.719
580.67	49.090
581.01	48.640
581.35	48.599
581.68	47.201
582.02	47.140
582.35	47.197
582.69	47.034
583.02	47.813
583.36	47.660
583.70	48.127
584.03	48.328
584.37	48.669
584.70	48.511
585.04	47.334
585.37	47.996
585.71	47.697
586.04	47.161
586.38	48.302
586.72	47.584
587.05	47.596
587.39	47.388
587.72	46.869
588.06	46.345
588.39	47.462
588.73	47.521
589.06	47.959
589.40	48.283
589.73	48.750
590.07	47.722
590.40	47.607
590.73	48.868
591.07	49.573
591.40	50.063
591.74	49.913
592.07	49.738
592.41	49.235
592.74	47.041
593.08	46.835
593.41	47.264
593.75	45.503
594.08	46.296
594.41	46.801
594.75	47.800
595.08	47.423
595.42	46.935
595.75	46.332
596.09	47.390
596.42	47.976
596.75	48.037
597.09	48.182
597.42	47.386
597.75	48.210
598.09	47.696
598.42	47.509
598.76	47.264
599.09	46.598
599.42	46.143
599.76	45.864
600.09	46.047
600.42	45.800
600.76	45.214
601.09	45.792
601.42	45.967
601.76	45.579
602.09	46.759
602.42	45.740
602.76	46.715
603.09	46.302
603.42	45.920
603.76	45.694
604.09	45.328
604.42	46.474
604.76	46.647
605.09	46.396
605.42	45.874
605.75	46.358
606.09	45.262
606.42	45.239
606.75	45.168
607.09	45.291
607.42	45.742
607.75	44.684
608.08	44.768
608.42	45.630
608.75	45.897
609.08	46.577
609.41	45.597
609.75	46.641
610.08	46.230
610.41	45.391
610.74	45.270
611.07	46.887
611.41	45.388
611.74	46.053
612.07	46.687
612.40	46.380
612.73	45.526
613.07	47.252
613.40	45.919
613.73	44.835
614.06	46.720
614.39	46.460
614.72	46.000
615.06	45.378
615.39	44.851
615.72	45.041
616.05	44.391
616.38	45.636
616.71	47.031
617.05	47.114
617.38	47.324
617.71	46.787
618.04	46.875
618.37	45.713
618.70	46.733
619.03	47.039
619.36	46.911
619.69	46.761
620.03	48.283
620.36	46.524
620.69	47.808
621.02	48.525
621.35	47.768
621.68	47.040
622.01	47.910
622.34	46.899
622.67	47.529
623.00	47.689
623.33	46.462
623.66	47.105
623.99	47.423
624.32	46.434
624.65	45.975
624.99	45.609
625.32	47.212
625.65	46.356
625.98	47.425
626.31	47.278
626.64	46.041
626.97	48.628
627.30	47.714
627.63	47.744
627.96	50.883
628.29	50.131
628.62	47.941
628.95	49.906
629.28	49.635
629.61	50.779
629.94	50.095
630.26	49.666
630.59	48.522
630.92	48.467
631.25	49.852
631.58	48.148
631.91	49.594
632.24	50.211
632.57	48.059
632.90	50.110
633.23	49.329
633.56	50.734
633.89	51.982
634.22	50.965
634.55	53.018
634.88	51.377
635.20	50.179
635.53	51.084
635.86	52.847
636.19	51.647
636.52	51.096
636.85	48.454
637.18	51.037
637.51	50.827
637.83	48.089
638.16	51.790
638.49	50.000
638.82	52.465
639.15	51.375
639.48	51.122
639.81	51.743
640.13	51.562
640.46	51.007
640.79	51.255
641.12	49.381
641.45	53.352
641.77	54.786
642.10	53.363
642.43	54.655
642.76	52.167
643.09	54.141
643.41	51.593
643.74	53.241
644.07	53.049
644.40	53.528
644.73	54.488
645.05	53.724
645.38	52.133
645.71	51.530
646.04	54.817
646.36	56.594
646.69	55.518
647.02	55.952
647.35	56.357
647.67	55.575
648.00	53.008
648.33	52.640
648.66	51.667
648.98	51.424
649.31	50.075
649.64	50.972
649.96	50.820
650.29	51.659
650.62	51.618
650.94	53.160
651.27	54.392
651.60	52.413
651.92	51.597
652.25	50.326
652.58	50.467
652.90	52.923
653.23	50.539
653.56	49.764
653.88	51.030
654.21	53.870
654.54	52.310
654.86	49.688
655.19	46.216
655.52	32.277
655.84	28.485
656.17	37.735
656.49	50.429
656.82	52.130
657.15	39.306
657.47	29.294
657.80	22.513
658.13	23.766
658.45	35.923
658.78	35.603
659.10	37.315
659.43	39.006
659.75	40.956
660.08	45.380
660.41	50.559
660.73	51.334
661.06	52.389
661.38	55.636
661.71	53.654
662.03	55.424
662.36	54.274
662.68	55.020
663.01	54.747
663.33	56.476
663.66	57.563
663.98	52.700
664.31	55.252
664.63	52.227
664.96	51.911
665.28	57.172
665.61	50.682
665.93	55.131
666.26	56.187
666.58	55.230
666.91	58.985
667.23	55.955
667.56	57.235
667.88	55.983
668.21	55.224
668.53	55.098
668.86	55.195
669.18	54.797
669.50	52.174
669.83	54.902
670.15	53.111
670.48	53.377
670.80	56.034
671.13	54.989
671.45	53.404
671.77	54.379
672.10	49.353
672.42	48.410
672.75	45.108
673.07	49.648
673.39	49.910
673.72	53.125
674.04	50.784
674.37	50.874
674.69	52.147
675.01	52.929
675.34	53.388
675.66	55.789
675.98	53.768
676.31	50.210
676.63	54.565
676.95	48.847
677.28	51.168
677.60	52.308
677.92	53.165
678.25	51.951
678.57	51.594
678.89	53.307
679.22	48.330
679.54	50.191
679.86	49.541
680.18	47.585
680.51	46.986
680.83	47.687
681.15	48.868
681.48	50.284
681.80	49.323
682.12	47.318
682.44	47.002
682.77	50.713
683.09	51.288
683.41	52.550
683.73	53.422
684.06	51.860
684.38	46.967
684.70	50.194
685.02	49.906
685.34	46.703
685.67	45.629
685.99	45.361
686.31	47.270
686.63	46.996
686.96	45.536
687.28	46.751
687.60	45.652
687.92	46.801
688.24	48.669
688.56	49.799
688.89	49.378
689.21	53.493
689.53	48.643
689.85	52.550
690.17	45.963
690.49	49.682
690.82	51.636
691.14	49.107
691.46	46.203
691.78	48.394
692.10	49.174
692.42	48.703
692.74	48.133
693.06	47.447
693.39	50.513
693.71	47.162
694.03	49.053
694.35	49.134
694.67	49.657
694.99	52.927
695.31	51.961
695.63	50.957
695.95	52.323
696.27	46.193
696.59	52.850
696.91	54.922
697.23	47.653
697.56	51.173
697.88	44.376
698.20	44.583
698.52	50.108
698.84	49.443
699.16	49.078
699.48	47.981
699.80	50.000
700.12	53.247
700.44	53.846
700.76	52.486
701.08	55.747
701.40	53.352
701.72	55.977
702.04	54.830
702.36	47.592
702.68	53.541
703.00	50.693
703.32	50.266
703.64	50.402
703.96	52.925
704.28	53.198
704.60	51.906
704.91	52.226
705.23	54.545
705.55	56.811
705.87	56.478
706.19	54.417
706.51	55.140
706.83	54.545
707.15	52.381
707.47	48.485
707.79	47.666
708.11	47.489
708.43	48.095
708.74	47.449
709.06	50.130
709.38	49.081
709.70	51.744
710.02	53.412
710.34	54.242
710.66	52.836
710.98	53.977
711.29	52.616
711.61	53.982
711.93	50.962
712.25	57.878
712.57	59.926
712.89	54.671
713.20	50.760
713.52	53.618
713.84	50.633
714.16	52.744
714.48	50.862
714.80	56.231
715.11	48.991
715.43	48.665
715.75	51.304
716.07	47.604
716.39	54.545
716.70	55.814
717.02	59.712
717.34	52.297
717.66	58.955
717.97	62.550
718.29	54.074
718.61	51.460
718.93	61.765
719.24	55.017
719.56	49.831
719.88	51.864
720.20	55.743
720.51	58.885
720.83	57.249
721.15	48.507
721.46	55.674
721.78	56.989
722.10	55.472
722.42	62.030
722.73	53.558
723.05	54.508
723.37	60.324
723.68	58.301
724.00	54.065
724.32	57.258
724.63	60.163
724.95	59.414
725.27	57.085
725.58	54.297
725.90	54.015
726.22	56.981
726.53	48.958
726.85	53.584
727.16	54.804
727.48	51.773
727.80	51.894
728.11	55.072
728.43	54.231
728.74	49.462
729.06	54.015
729.38	56.985
729.69	51.601
730.01	50.853
730.32	49.653
730.64	51.505
730.96	50.825
731.27	50.000
731.59	48.930
731.90	50.146
732.22	50.000
732.53	45.511
732.85	51.603
733.16	48.553
733.48	47.176
733.80	50.000
734.11	54.777
734.43	44.083
734.74	44.571
735.06	46.418
735.37	47.688
735.69	51.911
736.00	54.575
736.32	47.664
736.63	48.562
736.95	47.604
737.26	46.599
737.58	48.065
737.89	45.819
738.21	51.536
738.52	51.429
738.83	53.585
739.15	53.462
739.46	54.745
739.78	52.431
740.09	49.538
740.41	49.032
740.72	48.084
741.04	52.222
741.35	51.667
741.66	56.889
741.98	56.604
742.29	63.158
742.61	62.931
742.92	58.824
743.23	59.829
743.55	54.800
743.86	56.579
744.18	63.274
744.49	65.550
744.80	62.441
745.12	60.455
745.43	56.828
745.74	59.009
746.06	62.844
746.37	56.502
746.68	54.299
747.00	58.796
747.31	59.524
747.62	54.425
747.94	51.982
748.25	49.787
748.56	58.150
748.88	58.911
749.19	66.000
749.50	58.140
749.82	47.967
750.13	54.694
750.44	52.190
750.75	50.877
751.07	54.019
751.38	49.826
751.69	52.347
752.01	49.624
752.32	46.931
752.63	52.837
752.94	54.098
753.26	56.400
753.57	51.626
753.88	55.078
754.19	47.857
754.51	52.083
754.82	48.375
755.13	51.321
755.44	51.128
755.75	51.095
756.07	45.745
756.38	48.540
756.69	47.315
757.00	41.916
757.31	43.917
757.63	45.029
757.94	43.432
758.25	40.441
758.56	40.988
758.87	39.247
759.18	45.455
759.50	46.082
759.81	44.548
760.12	48.437
760.43	48.711
760.74	40.761
761.05	45.480
761.36	44.385
761.67	47.159
761.99	44.410
762.30	48.611
762.61	51.145
762.92	54.297
763.23	56.303
763.54	54.400
763.85	47.656
764.16	51.538
764.47	53.612
764.78	44.523
765.10	42.405
765.41	42.773
765.72	44.910
766.03	43.887
766.34	44.333
766.65	56.170
766.96	49.145
767.27	62.437
767.58	58.333
767.89	60.526
768.20	62.644
768.51	56.345
768.82	53.211
769.13	45.528
769.44	51.012
769.75	57.082
770.06	51.835
770.37	53.394
770.68	57.870
770.99	53.333
771.30	49.180
771.61	56.054
771.92	53.279
772.23	55.882
772.54	51.282
772.85	59.162
773.16	53.191
773.47	60.326
773.78	59.898
774.09	58.333
774.39	61.988
774.70	61.111
775.01	76.812
775.32	67.320
775.63	69.737
775.94	74.820
776.25	79.528
776.56	72.388
776.87	72.951
777.18	74.219
777.48	76.336
777.79	75.000
778.10	68.148
778.41	85.714
778.72	72.263
779.03	72.483
779.34	65.772
779.65	64.865
779.95	66.258
780.26	65.359
780.57	62.759
780.88	73.437
781.19	69.925
781.50	70.270
781.80	64.780
782.11	61.582
782.42	58.228
782.73	61.350
783.04	71.622
783.34	72.535
783.65	78.767
783.96	74.627
784.27	67.133
784.57	61.871
784.88	65.741
785.19	72.222
785.50	77.358
785.81	76.119
786.11	79.508
786.42	80.620
786.73	61.062
787.04	81.132
787.34	83.036
787.65	86.000
787.96	87.387
788.26	74.380
788.57	71.186
788.88	83.471
789.19	76.389
789.49	75.000
789.80	67.939
790.11	87.619
790.41	82.178
790.72	97.590
791.03	88.043
791.33	101.163
791.64	85.567
791.95	96.040
792.25	102.222
792.56	93.506
792.87	114.103
793.17	111.392
793.48	105.747
793.79	94.253
794.09	97.727
794.40	84.034
794.70	75.000
795.01	64.444
795.32	69.065
795.62	67.717
795.93	79.310
796.23	66.372
796.54	89.412
796.85	109.459
797.15	115.493
797.46	118.182
797.76	107.229
798.07	103.797
798.37	113.846
798.68	130.303
798.99	84.507
799.29	85.714
799.60	82.955
799.90	113.699
800.21	104.478
800.51	139.655
800.82	128.070
801.12	111.475
801.43	112.121
801.73	108.108
802.04	128.571
802.34	98.765
802.65	120.313
802.95	130.508
803.26	120.313
803.56	104.286
803.87	116.923
804.17	114.706
804.48	146.296
804.78	112.069
805.09	117.647
805.39	121.154
805.70	128.571
806.00	113.115
806.30	95.455
806.61	90.244
806.91	110.127
807.22	101.316
807.52	89.552
807.83	119.718
808.13	106.250
808.43	130.000
808.74	103.947
809.04	108.696
809.35	113.433
809.65	98.684
809.95	117.742
810.26	108.475
810.56	119.048
810.86	179.545
811.17	166.667
811.47	141.667
811.77	122.222
812.08	125.455
812.38	146.000
812.69	161.111
812.99	188.636
813.29	153.061
813.59	138.095
813.90	159.184
814.20	120.000
814.50	103.077
814.81	113.235
815.11	140.816
815.41	121.311
815.72	161.905
816.02	147.273
816.32	157.143
816.62	142.500
816.93	153.659
817.23	142.857
817.53	184.091
817.84	200.000
818.14	156.522
818.44	166.667
818.74	176.471
819.04	170.000
819.35	191.429
819.65	229.412
819.95	235.714
820.25	305.000
820.56	189.744
820.86	147.727
821.16	172.093
821.46	141.026
821.76	150.000
822.07	165.714
822.37	187.500
822.67	196.970
822.97	156.863
823.27	246.429
823.57	170.270
823.88	195.000
824.18	273.333
824.48	164.286
824.78	256.000
825.08	229.167
825.38	181.081
825.69	173.171
825.99	262.500
826.29	165.517
826.59	171.053
826.89	165.789
827.19	202.941
827.49	212.903
827.79	175.000
828.09	154.545
828.39	144.681
828.70	155.102
829.00	218.519
829.30	212.903
829.60	157.500
829.90	380.000
830.20	217.857
830.50	239.130
830.80	243.478
831.10	233.333
831.40	240.000
831.70	239.130
832.00	253.846
832.30	248.148
832.60	375.000
832.90	250.000
833.20	428.571
833.50	203.226
833.80	213.793
834.10	225.000
834.40	250.000
834.70	344.444
835.00	361.905
835.30	191.429
835.60	407.692
835.90	237.931
836.20	421.429
836.50	244.828
836.80	204.000
837.10	172.222
837.40	290.476
837.70	370.588
838.00	229.630
838.30	266.667
838.60	285.714
838.90	223.077
839.19	310.000
839.49	514.286
839.79	385.000
840.09	280.000
840.39	257.143
840.69	304.348
840.99	316.667
841.29	510.000
841.59	341.667
841.88	387.500
842.18	206.897
842.48	290.476
842.78	240.000
843.08	273.913
843.38	209.375
843.68	1066.667
843.97	219.231
844.27	237.931
844.57	333.333
844.87	475.000
845.17	266.667
845.47	1766.667
845.76	666.667
846.06	358.824
846.36	712.500
846.66	464.286
846.96	368.750
847.25	527.273
847.55	454.545
847.85	282.609
848.15	580.000
848.44	428.571
848.74	266.667
849.04	329.412
849.34	540.000
849.63	305.263
849.93	409.091
850.23	1120.000
850.53	514.286
850.82	2800.000
851.12	-5300.000
851.42	4600.000
851.71	295.000
852.01	-1466.667
852.31	279.167
852.61	2000.000
852.90	328.571
853.20	244.000
853.50	270.588
853.79	314.286
854.09	270.833
854.39	362.500
854.68	197.297
854.98	196.774
855.28	220.000
855.57	237.931
855.87	218.519
856.17	315.789
856.46	360.000
856.76	300.000
857.05	231.034
857.35	258.333
857.65	386.667
857.94	265.217
858.24	250.000
858.53	370.000
858.83	327.273
859.13	400.000
859.42	0.000
859.72	677.778
860.01	581.818
860.31	295.455
860.60	305.263
860.90	273.913
861.20	633.333
861.49	575.000
861.79	-5300.000
862.08	775.000
862.38	309.524
862.67	361.538
862.97	400.000
863.26	622.222
863.56	383.333
863.85	458.333
864.15	612.500
864.44	520.000
864.74	1083.333
865.03	750.000
865.33	389.474
865.62	481.818
865.92	446.154
866.21	466.667
866.51	0.000
866.80	536.364
867.10	1280.000
867.39	546.154
867.69	490.909
867.98	289.474
868.27	545.455
868.57	352.632
868.86	-5100.000
869.16	406.250
869.45	2700.000
869.75	-5200.000
870.04	441.667
870.33	628.571
870.63	1200.000
870.92	2800.000
871.22	714.286
871.51	429.412
871.80	280.952
872.10	428.571
>>>>>End Processed Spectral Data<<<<<
