SpectraSuite Data File
++++++++++++++++++++++++++++++++++++
Date: Wed May 13 19:56:41 PDT 2015
User: schluterlab
Dark Spectrum Present: Yes
Reference Spectrum Present: Yes
Number of Sampled Component Spectra: 1
Spectrometers: USB2E3373
Integration Time (usec): 3000 (USB2E3373)
Spectra Averaged: 3 (USB2E3373)
Boxcar Smoothing: 0 (USB2E3373)
Correct for Electrical Dark: No (USB2E3373)
Strobe/Lamp Enabled: No (USB2E3373)
Correct for Detector Non-linearity: No (USB2E3373)
Correct for Stray Light: No (USB2E3373)
Number of Pixels in Processed Spectrum: 2048
>>>>>Begin Processed Spectral Data<<<<<
178.53	0.000
178.91	-1275.000
179.29	-1225.000
179.67	-250.000
180.04	-1225.000
180.42	2700.000
180.80	980.000
181.18	-900.000
181.56	614.286
181.94	0.000
182.31	-657.143
182.69	1966.667
183.07	-662.500
183.45	-466.667
183.83	572.727
184.20	-400.000
184.58	2750.000
184.96	5600.000
185.34	-940.000
185.72	-562.500
186.09	-2400.000
186.47	2750.000
186.85	2650.000
187.23	5000.000
187.61	-1766.667
187.98	1550.000
188.36	527.273
188.74	518.182
189.12	-740.000
189.49	600.000
189.87	-4100.000
190.25	-1025.000
190.63	457.143
191.00	407.692
191.38	916.667
191.76	-1100.000
192.14	1375.000
192.51	637.500
192.89	1033.333
193.27	625.000
193.65	-1100.000
194.02	550.000
194.40	1060.000
194.78	500.000
195.15	566.667
195.53	560.000
195.91	-2400.000
196.29	356.250
196.66	315.789
197.04	-350.000
197.42	0.000
197.79	620.000
198.17	-4400.000
198.55	728.571
198.92	762.500
199.30	1240.000
199.68	0.000
200.05	316.667
200.43	814.286
200.81	3600.000
201.18	1633.333
201.56	-1333.333
201.94	500.000
202.31	600.000
202.69	425.000
203.07	570.000
203.44	0.000
203.82	1250.000
204.19	814.286
204.57	428.571
204.95	687.500
205.32	1966.667
205.70	509.091
206.08	385.714
206.45	2300.000
206.83	431.250
207.20	783.333
207.58	920.000
207.96	344.444
208.33	712.500
208.71	-883.333
209.08	857.143
209.46	622.222
209.84	409.091
210.21	-1366.667
210.59	1400.000
210.96	-550.000
211.34	2600.000
211.71	580.000
212.09	950.000
212.46	0.000
212.84	1866.667
213.22	1575.000
213.59	-4300.000
213.97	833.333
214.34	914.286
214.72	563.636
215.09	1160.000
215.47	-2400.000
215.84	-2350.000
216.22	2033.333
216.59	364.286
216.97	1275.000
217.34	400.000
217.72	-816.667
218.09	0.000
218.47	-5400.000
218.84	655.556
219.22	771.429
219.59	1633.333
219.97	-685.714
220.34	780.000
220.72	-1466.667
221.09	485.714
221.47	1375.000
221.84	-983.333
222.22	0.000
222.59	1300.000
222.97	-2700.000
223.34	1360.000
223.72	430.769
224.09	1020.000
224.46	2250.000
224.84	-4700.000
225.21	-1020.000
225.59	-5200.000
225.96	550.000
226.34	345.000
226.71	2200.000
227.08	612.500
227.46	600.000
227.83	-1175.000
228.21	-2550.000
228.58	655.556
228.95	-2450.000
229.33	-1950.000
229.70	1566.667
230.08	814.286
230.45	-760.000
230.82	441.667
231.20	916.667
231.57	657.143
231.95	433.333
232.32	245.455
232.69	454.545
233.07	614.286
233.44	400.000
233.81	-1933.333
234.19	336.842
234.56	508.333
234.93	391.667
235.31	527.273
235.68	338.462
236.05	328.571
236.43	181.818
236.80	321.053
237.17	5700.000
237.55	252.381
237.92	228.571
238.29	300.000
238.67	209.677
239.04	227.586
239.41	177.778
239.79	141.304
240.16	161.905
240.53	170.455
240.91	143.137
241.28	148.000
241.65	142.000
242.02	124.638
242.40	127.419
242.77	121.667
243.14	105.376
243.51	112.360
243.89	105.882
244.26	97.778
244.63	106.452
245.00	97.872
245.38	102.970
245.75	99.065
246.12	86.239
246.49	84.672
246.87	92.800
247.24	86.923
247.61	77.857
247.98	81.699
248.36	77.027
248.73	73.885
249.10	81.529
249.47	76.836
249.84	72.727
250.22	68.449
250.59	71.598
250.96	77.273
251.33	74.408
251.70	73.762
252.08	77.143
252.45	70.404
252.82	66.522
253.19	68.511
253.56	69.412
253.94	66.390
254.31	68.359
254.68	68.846
255.05	69.004
255.42	66.667
255.79	63.971
256.16	69.314
256.54	60.071
256.91	65.836
257.28	64.388
257.65	65.677
258.02	62.112
258.39	64.038
258.76	62.542
259.14	63.690
259.51	59.574
259.88	59.627
260.25	60.423
260.62	58.960
260.99	62.733
261.36	62.162
261.73	61.032
262.10	62.500
262.47	60.282
262.85	63.231
263.22	60.114
263.59	61.254
263.96	57.692
264.33	60.313
264.70	60.789
265.07	59.847
265.44	60.101
265.81	51.582
266.18	56.030
266.55	60.000
266.92	58.968
267.29	59.954
267.66	57.339
268.03	57.273
268.40	57.243
268.77	55.847
269.14	55.856
269.51	58.465
269.88	60.140
270.25	55.079
270.62	56.629
270.99	55.054
271.36	56.867
271.73	56.776
272.10	55.652
272.47	55.699
272.84	55.844
273.21	56.813
273.58	53.930
273.95	53.459
274.32	52.686
274.69	53.747
275.06	51.772
275.43	57.447
275.80	55.511
276.17	54.990
276.54	52.807
276.91	54.348
277.28	52.539
277.65	52.418
278.02	53.002
278.39	55.078
278.76	51.818
279.13	53.962
279.50	49.534
279.87	49.203
280.23	53.094
280.60	52.998
280.97	49.908
281.34	50.265
281.71	52.909
282.08	55.086
282.45	51.091
282.82	51.865
283.19	48.307
283.56	53.509
283.92	54.146
284.29	51.323
284.66	50.817
285.03	48.463
285.40	51.761
285.77	49.663
286.14	49.741
286.51	51.833
286.87	48.889
287.24	51.792
287.61	49.117
287.98	49.351
288.35	46.434
288.72	47.508
289.08	47.418
289.45	48.435
289.82	47.805
290.19	45.997
290.56	45.636
290.93	43.656
291.29	46.933
291.66	44.543
292.03	44.913
292.40	44.053
292.77	43.343
293.13	42.985
293.50	44.898
293.87	41.185
294.24	43.556
294.60	40.466
294.97	44.041
295.34	43.724
295.71	41.903
296.08	38.746
296.44	40.853
296.81	40.555
297.18	41.870
297.55	38.522
297.91	39.182
298.28	42.704
298.65	39.295
299.02	37.945
299.38	39.708
299.75	37.332
300.12	38.953
300.48	36.875
300.85	36.745
301.22	38.599
301.59	37.500
301.95	38.539
302.32	35.430
302.69	37.873
303.05	38.667
303.42	36.667
303.79	37.712
304.15	34.615
304.52	36.037
304.89	34.379
305.25	36.079
305.62	36.580
305.99	35.655
306.35	36.465
306.72	35.538
307.09	36.404
307.45	35.698
307.82	34.375
308.19	35.762
308.55	35.059
308.92	35.768
309.29	34.530
309.65	34.146
310.02	34.355
310.38	35.376
310.75	34.952
311.12	34.084
311.48	33.856
311.85	35.325
312.22	33.715
312.58	33.888
312.95	34.847
313.31	33.204
313.68	34.615
314.05	35.503
314.41	33.769
314.78	34.340
315.14	32.870
315.51	33.265
315.87	33.663
316.24	33.664
316.61	32.554
316.97	33.464
317.34	32.290
317.70	32.887
318.07	33.686
318.43	33.366
318.80	34.021
319.16	33.145
319.53	32.176
319.89	34.000
320.26	33.900
320.62	33.631
320.99	33.434
321.35	34.141
321.72	33.162
322.08	33.860
322.45	32.040
322.81	32.946
323.18	32.370
323.54	32.653
323.91	32.264
324.27	32.600
324.64	33.644
325.00	32.913
325.37	34.486
325.73	32.585
326.10	33.804
326.46	33.513
326.83	32.787
327.19	32.195
327.56	32.491
327.92	33.071
328.29	33.540
328.65	32.505
329.01	31.408
329.38	33.673
329.74	32.133
330.11	34.119
330.47	33.517
330.84	33.088
331.20	33.515
331.56	32.844
331.93	33.611
332.29	31.943
332.66	33.363
333.02	32.084
333.38	33.695
333.75	32.264
334.11	32.473
334.48	32.831
334.84	31.710
335.20	32.455
335.57	32.638
335.93	31.071
336.29	32.143
336.66	32.281
337.02	30.407
337.38	32.593
337.75	29.501
338.11	32.229
338.47	31.584
338.84	31.989
339.20	31.009
339.56	34.124
339.93	32.182
340.29	30.978
340.65	30.749
341.02	32.286
341.38	31.762
341.74	31.579
342.11	29.956
342.47	30.749
342.83	31.079
343.20	31.169
343.56	30.497
343.92	30.526
344.28	30.782
344.65	32.330
345.01	30.303
345.37	30.017
345.73	30.541
346.10	30.691
346.46	30.508
346.82	30.066
347.19	29.908
347.55	29.885
347.91	31.553
348.27	31.471
348.63	30.017
349.00	29.693
349.36	29.967
349.72	29.832
350.08	29.660
350.45	29.780
350.81	29.813
351.17	30.065
351.53	30.139
351.89	28.713
352.26	30.308
352.62	29.912
352.98	29.741
353.34	29.417
353.70	29.460
354.07	30.161
354.43	29.524
354.79	29.123
355.15	29.449
355.51	29.097
355.87	28.980
356.24	29.072
356.60	28.549
356.96	29.445
357.32	30.253
357.68	29.055
358.04	28.424
358.40	29.691
358.77	28.638
359.13	29.519
359.49	28.471
359.85	27.857
360.21	28.708
360.57	28.249
360.93	28.615
361.29	28.949
361.66	27.632
362.02	28.284
362.38	28.745
362.74	28.423
363.10	27.757
363.46	28.026
363.82	28.496
364.18	28.047
364.54	28.900
364.90	27.762
365.26	28.382
365.62	28.707
365.98	28.050
366.35	27.650
366.71	27.621
367.07	27.458
367.43	28.882
367.79	28.194
368.15	28.951
368.51	27.834
368.87	27.980
369.23	28.164
369.59	27.299
369.95	27.647
370.31	27.564
370.67	28.116
371.03	29.139
371.39	27.843
371.75	27.426
372.11	27.596
372.47	27.713
372.83	28.818
373.19	27.673
373.55	27.494
373.91	27.688
374.27	26.942
374.63	26.473
374.99	28.107
375.35	26.239
375.71	27.210
376.07	27.298
376.42	26.204
376.78	27.369
377.14	27.069
377.50	27.351
377.86	26.130
378.22	27.497
378.58	26.316
378.94	26.776
379.30	27.290
379.66	26.904
380.02	27.027
380.38	26.897
380.74	26.831
381.09	27.139
381.45	27.167
381.81	26.413
382.17	26.624
382.53	26.981
382.89	26.111
383.25	26.204
383.61	26.704
383.97	26.642
384.32	25.951
384.68	26.332
385.04	26.490
385.40	25.635
385.76	25.860
386.12	26.295
386.48	26.683
386.83	26.491
387.19	26.902
387.55	26.531
387.91	26.058
388.27	25.690
388.62	26.490
388.98	25.553
389.34	26.471
389.70	25.690
390.06	26.806
390.42	26.005
390.77	25.127
391.13	26.930
391.49	26.269
391.85	26.162
392.20	25.489
392.56	25.884
392.92	26.780
393.28	25.917
393.64	26.139
393.99	25.962
394.35	25.558
394.71	25.972
395.07	25.296
395.42	26.082
395.78	26.081
396.14	25.698
396.50	25.877
396.85	26.001
397.21	25.524
397.57	26.224
397.92	25.841
398.28	25.448
398.64	25.388
399.00	24.902
399.35	25.155
399.71	25.405
400.07	25.074
400.42	25.460
400.78	26.176
401.14	25.549
401.49	24.537
401.85	25.045
402.21	24.790
402.57	24.985
402.92	25.599
403.28	26.109
403.63	25.309
403.99	25.159
404.35	25.697
404.70	25.600
405.06	24.927
405.42	25.390
405.77	25.200
406.13	25.000
406.49	26.020
406.84	25.340
407.20	24.764
407.55	25.144
407.91	26.067
408.27	25.271
408.62	25.527
408.98	25.429
409.34	26.199
409.69	25.935
410.05	25.341
410.40	25.810
410.76	25.448
411.11	24.849
411.47	25.176
411.83	25.412
412.18	24.552
412.54	25.280
412.89	25.482
413.25	25.030
413.60	25.571
413.96	24.651
414.31	24.787
414.67	25.032
415.03	25.762
415.38	25.000
415.74	24.502
416.09	25.669
416.45	25.167
416.80	26.305
417.16	26.340
417.51	26.676
417.87	24.727
418.22	24.858
418.58	25.694
418.93	24.877
419.29	25.271
419.64	25.567
420.00	25.061
420.35	24.522
420.71	25.344
421.06	24.821
421.42	25.088
421.77	24.720
422.12	24.481
422.48	24.231
422.83	24.461
423.19	24.641
423.54	24.782
423.90	25.507
424.25	25.628
424.61	24.940
424.96	24.840
425.31	24.862
425.67	25.281
426.02	24.686
426.38	25.092
426.73	24.985
427.09	24.924
427.44	25.072
427.79	25.589
428.15	24.464
428.50	25.336
428.85	24.970
429.21	24.351
429.56	24.935
429.92	25.164
430.27	24.876
430.62	24.066
430.98	24.650
431.33	24.021
431.68	24.869
432.04	24.388
432.39	24.329
432.74	24.835
433.10	24.222
433.45	24.898
433.80	25.111
434.16	25.160
434.51	24.947
434.86	25.086
435.22	24.958
435.57	24.438
435.92	24.166
436.28	25.267
436.63	25.110
436.98	24.614
437.34	24.508
437.69	25.204
438.04	24.845
438.39	25.373
438.75	26.031
439.10	24.804
439.45	25.148
439.81	25.196
440.16	24.224
440.51	25.073
440.86	26.115
441.22	24.861
441.57	25.265
441.92	24.719
442.27	25.188
442.63	24.961
442.98	25.183
443.33	24.674
443.68	24.109
444.03	24.402
444.39	23.905
444.74	24.946
445.09	25.121
445.44	24.166
445.79	24.196
446.15	25.251
446.50	25.256
446.85	24.409
447.20	25.140
447.55	25.237
447.91	25.152
448.26	24.875
448.61	23.968
448.96	24.363
449.31	25.534
449.66	24.761
450.02	24.401
450.37	24.887
450.72	24.591
451.07	25.107
451.42	24.498
451.77	24.545
452.12	24.827
452.47	25.684
452.83	25.117
453.18	25.061
453.53	25.170
453.88	24.335
454.23	24.985
454.58	25.439
454.93	25.747
455.28	25.187
455.63	26.456
455.98	26.250
456.34	25.817
456.69	24.922
457.04	25.759
457.39	25.132
457.74	24.840
458.09	25.474
458.44	24.800
458.79	24.458
459.14	25.677
459.49	25.044
459.84	25.208
460.19	25.339
460.54	24.479
460.89	24.026
461.24	24.590
461.59	25.567
461.94	25.339
462.29	25.460
462.64	24.952
462.99	24.463
463.34	25.067
463.69	25.829
464.04	25.217
464.39	25.681
464.74	25.074
465.09	25.151
465.44	25.208
465.79	25.280
466.14	25.670
466.49	24.194
466.84	24.927
467.19	24.381
467.54	25.125
467.89	24.730
468.24	24.840
468.59	25.275
468.94	24.801
469.29	25.578
469.64	26.238
469.99	25.846
470.34	26.156
470.68	25.216
471.03	24.694
471.38	25.226
471.73	25.183
472.08	25.724
472.43	25.188
472.78	24.951
473.13	26.123
473.48	25.343
473.83	25.366
474.17	25.078
474.52	25.682
474.87	26.270
475.22	24.724
475.57	24.503
475.92	23.898
476.27	24.408
476.61	24.710
476.96	24.244
477.31	24.228
477.66	25.274
478.01	24.412
478.36	24.802
478.70	24.766
479.05	24.494
479.40	25.486
479.75	25.165
480.10	24.304
480.45	24.227
480.79	24.128
481.14	24.609
481.49	25.202
481.84	24.554
482.19	24.398
482.53	24.817
482.88	24.383
483.23	24.813
483.58	24.249
483.92	24.649
484.27	23.617
484.62	24.569
484.97	23.926
485.31	24.384
485.66	24.361
486.01	23.821
486.36	22.929
486.70	22.328
487.05	22.282
487.40	23.136
487.75	22.453
488.09	22.323
488.44	22.215
488.79	22.568
489.13	22.727
489.48	22.635
489.83	24.040
490.17	24.858
490.52	23.871
490.87	24.559
491.22	24.056
491.56	24.100
491.91	23.639
492.26	23.656
492.60	24.101
492.95	23.948
493.30	23.692
493.64	24.872
493.99	23.816
494.34	24.329
494.68	24.038
495.03	24.671
495.37	23.965
495.72	24.610
496.07	24.362
496.41	24.071
496.76	23.131
497.11	24.223
497.45	24.220
497.80	23.848
498.14	23.382
498.49	24.537
498.84	24.017
499.18	23.762
499.53	23.504
499.87	23.579
500.22	24.211
500.56	24.029
500.91	23.654
501.26	24.277
501.60	24.680
501.95	23.740
502.29	23.664
502.64	23.976
502.98	24.357
503.33	23.903
503.67	23.898
504.02	24.041
504.36	24.099
504.71	24.133
505.06	24.048
505.40	24.453
505.75	24.494
506.09	23.664
506.44	23.532
506.78	23.819
507.13	24.735
507.47	24.192
507.82	23.759
508.16	24.468
508.51	24.708
508.85	24.379
509.19	23.980
509.54	24.388
509.88	24.626
510.23	24.679
510.57	24.407
510.92	24.288
511.26	24.615
511.61	24.118
511.95	23.330
512.30	23.913
512.64	25.040
512.98	24.866
513.33	25.000
513.67	24.440
514.02	24.080
514.36	24.413
514.70	25.180
515.05	23.871
515.39	24.846
515.74	24.268
516.08	24.930
516.42	24.306
516.77	25.362
517.11	24.251
517.46	24.774
517.80	24.739
518.14	24.030
518.49	25.496
518.83	23.977
519.17	25.058
519.52	24.448
519.86	24.701
520.20	25.202
520.55	24.955
520.89	25.487
521.23	25.211
521.58	25.210
521.92	25.352
522.26	24.100
522.61	24.922
522.95	24.678
523.29	24.833
523.64	25.366
523.98	25.447
524.32	25.271
524.66	24.414
525.01	25.490
525.35	24.411
525.69	25.123
526.04	25.296
526.38	24.344
526.72	25.031
527.06	24.545
527.41	23.639
527.75	24.952
528.09	25.369
528.43	24.857
528.78	26.060
529.12	25.212
529.46	25.168
529.80	25.186
530.15	25.607
530.49	24.123
530.83	25.696
531.17	26.893
531.51	26.783
531.86	26.129
532.20	26.206
532.54	25.048
532.88	25.225
533.22	24.422
533.57	24.630
533.91	25.286
534.25	25.334
534.59	25.320
534.93	25.223
535.27	24.442
535.62	24.847
535.96	24.670
536.30	24.603
536.64	25.048
536.98	26.145
537.32	24.687
537.66	25.067
538.01	26.004
538.35	25.598
538.69	26.292
539.03	25.276
539.37	24.665
539.71	23.785
540.05	25.033
540.39	25.449
540.73	25.097
541.07	25.438
541.42	24.723
541.76	26.000
542.10	25.226
542.44	25.563
542.78	25.692
543.12	24.632
543.46	25.574
543.80	25.504
544.14	24.134
544.48	25.587
544.82	25.144
545.16	25.634
545.50	24.679
545.84	24.933
546.18	25.589
546.52	25.327
546.86	25.017
547.20	25.287
547.54	25.184
547.88	26.339
548.22	24.907
548.56	25.283
548.90	24.456
549.24	24.781
549.58	25.307
549.92	25.549
550.26	26.136
550.60	24.412
550.94	26.549
551.28	25.018
551.62	25.593
551.96	25.333
552.30	26.348
552.64	25.963
552.98	25.559
553.32	25.624
553.66	25.699
554.00	25.463
554.34	25.259
554.68	25.322
555.02	24.542
555.36	25.678
555.69	25.643
556.03	25.707
556.37	24.761
556.71	25.648
557.05	26.120
557.39	25.682
557.73	24.629
558.07	25.308
558.41	25.615
558.75	25.276
559.08	24.683
559.42	25.624
559.76	26.250
560.10	25.482
560.44	25.646
560.78	26.015
561.12	25.198
561.45	25.033
561.79	24.390
562.13	25.285
562.47	25.888
562.81	25.314
563.15	24.749
563.48	24.735
563.82	24.462
564.16	25.376
564.50	25.781
564.84	25.348
565.17	24.582
565.51	24.920
565.85	25.508
566.19	24.859
566.52	25.649
566.86	24.653
567.20	25.354
567.54	25.171
567.88	24.986
568.21	25.397
568.55	24.924
568.89	24.173
569.23	23.485
569.56	23.725
569.90	24.264
570.24	23.897
570.57	23.495
570.91	23.077
571.25	22.946
571.59	23.211
571.92	23.157
572.26	23.137
572.60	22.973
572.93	22.579
573.27	23.188
573.61	23.255
573.95	22.455
574.28	23.116
574.62	22.522
574.96	22.413
575.29	22.430
575.63	22.510
575.97	22.234
576.30	22.677
576.64	21.986
576.98	22.484
577.31	22.043
577.65	22.432
577.98	22.417
578.32	22.339
578.66	22.243
578.99	22.004
579.33	22.367
579.67	21.844
580.00	21.889
580.34	22.046
580.67	21.579
581.01	22.375
581.35	22.397
581.68	22.615
582.02	22.057
582.35	22.676
582.69	22.172
583.02	22.076
583.36	22.043
583.70	22.203
584.03	21.944
584.37	22.398
584.70	21.761
585.04	21.869
585.37	22.437
585.71	22.321
586.04	22.228
586.38	22.597
586.72	22.977
587.05	22.575
587.39	22.137
587.72	22.365
588.06	22.012
588.39	22.277
588.73	22.617
589.06	22.935
589.40	22.155
589.73	23.126
590.07	22.491
590.40	22.616
590.73	22.678
591.07	23.077
591.40	22.480
591.74	23.680
592.07	22.906
592.41	23.398
592.74	23.371
593.08	23.518
593.41	23.474
593.75	22.829
594.08	22.997
594.41	23.188
594.75	23.549
595.08	22.799
595.42	23.082
595.75	22.828
596.09	22.794
596.42	22.790
596.75	22.794
597.09	24.156
597.42	22.723
597.75	23.631
598.09	22.826
598.42	23.024
598.76	23.024
599.09	23.071
599.42	23.035
599.76	23.316
600.09	22.878
600.42	22.973
600.76	22.536
601.09	22.696
601.42	23.478
601.76	22.998
602.09	22.648
602.42	22.611
602.76	24.023
603.09	23.053
603.42	23.663
603.76	22.790
604.09	23.071
604.42	22.951
604.76	23.577
605.09	22.936
605.42	23.044
605.75	23.469
606.09	23.749
606.42	22.763
606.75	23.227
607.09	23.022
607.42	23.021
607.75	22.996
608.08	23.100
608.42	22.411
608.75	22.768
609.08	23.358
609.41	23.037
609.75	22.392
610.08	23.044
610.41	23.929
610.74	23.841
611.07	24.160
611.41	23.062
611.74	23.781
612.07	24.275
612.40	24.187
612.73	23.947
613.07	24.461
613.40	24.697
613.73	22.496
614.06	24.086
614.39	23.335
614.72	23.684
615.06	24.055
615.39	23.726
615.72	23.773
616.05	23.339
616.38	23.680
616.71	24.406
617.05	24.499
617.38	23.391
617.71	24.144
618.04	25.361
618.37	24.542
618.70	24.207
619.03	24.145
619.36	24.983
619.69	24.296
620.03	24.451
620.36	24.666
620.69	25.753
621.02	25.000
621.35	24.667
621.68	24.377
622.01	25.000
622.34	25.794
622.67	25.171
623.00	24.431
623.33	24.946
623.66	25.876
623.99	25.552
624.32	24.536
624.65	25.282
624.99	24.858
625.32	24.547
625.65	24.869
625.98	25.749
626.31	24.806
626.64	25.143
626.97	26.434
627.30	25.436
627.63	26.005
627.96	26.325
628.29	25.547
628.62	26.441
628.95	27.736
629.28	26.095
629.61	27.131
629.94	27.333
630.26	26.406
630.59	25.453
630.92	26.628
631.25	25.173
631.58	25.926
631.91	25.355
632.24	25.422
632.57	26.548
632.90	27.412
633.23	27.629
633.56	27.119
633.89	27.293
634.22	27.809
634.55	27.574
634.88	26.108
635.20	28.435
635.53	26.747
635.86	29.084
636.19	26.824
636.52	26.990
636.85	26.460
637.18	27.074
637.51	28.369
637.83	26.264
638.16	27.494
638.49	27.960
638.82	30.215
639.15	28.500
639.48	30.050
639.81	27.882
640.13	29.297
640.46	29.530
640.79	28.534
641.12	26.960
641.45	28.771
641.77	27.835
642.10	27.778
642.43	28.078
642.76	28.173
643.09	28.067
643.41	28.528
643.74	31.327
644.07	28.354
644.40	29.294
644.73	29.134
645.05	30.903
645.38	30.332
645.71	29.630
646.04	29.402
646.36	31.720
646.69	31.271
647.02	30.612
647.35	29.381
647.67	29.735
648.00	30.407
648.33	28.383
648.66	28.636
648.98	28.936
649.31	27.205
649.64	28.550
649.96	27.869
650.29	28.278
650.62	31.068
650.94	30.146
651.27	30.574
651.60	30.948
651.92	29.393
652.25	30.456
652.58	30.530
652.90	31.438
653.23	27.889
653.56	27.717
653.88	30.269
654.21	29.542
654.54	30.033
654.86	28.816
655.19	27.027
655.52	20.681
655.84	20.722
656.17	27.392
656.49	36.436
656.82	36.055
657.15	25.865
657.47	18.347
657.80	13.750
658.13	13.904
658.45	19.643
658.78	18.274
659.10	17.838
659.43	18.312
659.75	19.250
660.08	20.063
660.41	24.302
660.73	26.048
661.06	26.752
661.38	28.364
661.71	32.115
662.03	32.742
662.36	31.809
662.68	31.928
663.01	31.515
663.33	32.272
663.66	31.723
663.98	33.261
664.31	32.563
664.63	31.781
664.96	30.181
665.28	33.197
665.61	29.825
665.93	32.998
666.26	30.020
666.58	31.381
666.91	33.827
667.23	31.685
667.56	32.397
667.88	32.906
668.21	32.836
668.53	31.887
668.86	30.952
669.18	32.836
669.50	33.261
669.83	35.294
670.15	34.222
670.48	30.501
670.80	32.543
671.13	33.970
671.45	30.638
671.77	32.790
672.10	31.054
672.42	30.919
672.75	29.022
673.07	29.577
673.39	30.922
673.72	29.492
674.04	30.588
674.37	29.903
674.69	33.129
675.01	32.008
675.34	33.881
675.66	33.263
675.98	29.939
676.31	32.353
676.63	31.847
676.95	32.495
677.28	29.673
677.60	33.846
677.92	36.498
678.25	31.417
678.57	30.279
678.89	30.862
679.22	31.238
679.54	31.298
679.86	31.743
680.18	28.801
680.51	29.965
680.83	31.851
681.15	33.585
681.48	30.246
681.80	31.141
682.12	32.759
682.44	27.853
682.77	31.568
683.09	32.403
683.41	33.259
683.73	32.009
684.06	31.198
684.38	30.920
684.70	33.333
685.02	31.707
685.34	31.136
685.67	28.671
685.99	28.866
686.31	28.328
686.63	28.445
686.96	28.571
687.28	31.408
687.60	29.348
687.92	30.530
688.24	29.087
688.56	32.129
688.89	33.817
689.21	32.969
689.53	33.820
689.85	32.594
690.17	31.470
690.49	31.423
690.82	32.477
691.14	31.920
691.46	29.958
691.78	32.129
692.10	32.645
692.42	31.138
692.74	29.253
693.06	31.064
693.39	32.033
693.71	33.406
694.03	33.263
694.35	30.736
694.67	34.096
694.99	29.512
695.31	35.294
695.63	32.297
695.95	30.807
696.27	30.457
696.59	32.902
696.91	33.420
697.23	29.577
697.56	34.968
697.88	30.061
698.20	29.792
698.52	32.688
698.84	34.298
699.16	32.028
699.48	32.304
699.80	34.300
700.12	38.182
700.44	34.483
700.76	33.425
701.08	35.057
701.40	32.682
701.72	36.443
702.04	41.761
702.36	35.977
702.68	37.394
703.00	33.795
703.32	30.585
703.64	33.780
703.96	32.312
704.28	33.430
704.60	33.724
704.91	36.795
705.23	38.123
705.55	35.548
705.87	41.196
706.19	36.042
706.51	37.383
706.83	36.667
707.15	35.854
707.47	33.081
707.79	33.907
708.11	32.877
708.43	33.810
708.74	31.122
709.06	36.883
709.38	35.171
709.70	36.919
710.02	36.202
710.34	31.515
710.66	37.910
710.98	33.523
711.29	34.884
711.61	39.823
711.93	40.705
712.25	40.193
712.57	43.750
712.89	35.294
713.20	39.818
713.52	36.842
713.84	37.658
714.16	35.061
714.48	34.770
714.80	40.426
715.11	33.718
715.43	36.795
715.75	37.101
716.07	35.144
716.39	34.483
716.70	39.203
717.02	41.727
717.34	39.576
717.66	43.284
717.97	43.825
718.29	37.407
718.61	38.686
718.93	42.647
719.24	35.986
719.56	37.288
719.88	33.898
720.20	38.176
720.51	40.070
720.83	39.405
721.15	35.448
721.46	37.943
721.78	39.427
722.10	39.245
722.42	40.977
722.73	43.446
723.05	37.705
723.37	40.486
723.68	44.015
724.00	40.244
724.32	37.903
724.63	43.902
724.95	38.912
725.27	41.296
725.58	44.531
725.90	43.796
726.22	39.245
726.53	41.319
726.85	39.249
727.16	40.925
727.48	37.234
727.80	40.530
728.11	37.681
728.43	40.769
728.74	40.860
729.06	41.606
729.38	45.221
729.69	38.078
730.01	37.884
730.32	36.458
730.64	36.455
730.96	38.284
731.27	41.060
731.59	35.780
731.90	36.152
732.22	38.199
732.53	36.842
732.85	37.179
733.16	35.370
733.48	37.209
733.80	36.688
734.11	40.446
734.43	38.757
734.74	37.143
735.06	33.524
735.37	40.173
735.69	31.210
736.00	39.869
736.32	38.629
736.63	35.463
736.95	36.741
737.26	34.014
737.58	36.129
737.89	40.468
738.21	41.297
738.52	39.286
738.83	38.868
739.15	36.923
739.46	41.606
739.78	44.444
740.09	37.538
740.41	37.419
740.72	34.495
741.04	44.444
741.35	36.250
741.66	46.667
741.98	40.566
742.29	45.455
742.61	46.983
742.92	42.986
743.23	41.453
743.55	44.000
743.86	41.228
744.18	44.690
744.49	47.847
744.80	46.479
745.12	46.818
745.43	37.885
745.74	48.649
746.06	43.578
746.37	43.498
746.68	44.344
747.00	44.907
747.31	47.143
747.62	39.381
747.94	42.731
748.25	42.979
748.56	48.018
748.88	44.059
749.19	46.500
749.50	42.791
749.82	41.870
750.13	39.592
750.44	41.241
750.75	43.860
751.07	44.373
751.38	42.160
751.69	42.599
752.01	37.594
752.32	35.379
752.63	39.007
752.94	48.770
753.26	44.000
753.57	40.650
753.88	40.234
754.19	39.286
754.51	40.278
754.82	35.740
755.13	41.887
755.44	42.105
755.75	36.861
756.07	35.106
756.38	37.591
756.69	37.584
757.00	33.832
757.31	35.608
757.63	35.380
757.94	33.780
758.25	32.598
758.56	30.370
758.87	34.946
759.18	36.970
759.50	31.034
759.81	35.514
760.12	36.562
760.43	36.676
760.74	34.511
761.05	35.593
761.36	34.759
761.67	37.784
761.99	40.373
762.30	39.236
762.61	41.985
762.92	39.453
763.23	42.857
763.54	47.200
763.85	38.672
764.16	41.923
764.47	42.966
764.78	43.110
765.10	36.076
765.41	39.823
765.72	37.126
766.03	37.931
766.34	34.667
766.65	46.383
766.96	41.026
767.27	51.269
767.58	50.000
767.89	52.632
768.20	48.276
768.51	44.162
768.82	48.624
769.13	45.935
769.44	40.486
769.75	47.639
770.06	39.450
770.37	47.964
770.68	44.444
770.99	47.111
771.30	37.295
771.61	50.224
771.92	43.443
772.23	45.798
772.54	46.154
772.85	49.215
773.16	50.532
773.47	48.913
773.78	50.254
774.09	51.190
774.39	52.632
774.70	53.086
775.01	59.420
775.32	67.974
775.63	55.263
775.94	53.957
776.25	59.055
776.56	61.194
776.87	63.934
777.18	55.469
777.48	57.252
777.79	59.091
778.10	60.741
778.41	64.286
778.72	54.745
779.03	59.060
779.34	57.718
779.65	51.351
779.95	53.374
780.26	54.248
780.57	53.103
780.88	64.844
781.19	60.902
781.50	58.784
781.80	56.604
782.11	53.672
782.42	42.405
782.73	51.534
783.04	57.432
783.34	58.451
783.65	58.904
783.96	56.716
784.27	49.650
784.57	50.360
784.88	56.481
785.19	66.667
785.50	62.264
785.81	64.925
786.11	66.393
786.42	65.891
786.73	57.522
787.04	66.038
787.34	61.607
787.65	72.000
787.96	67.568
788.26	59.504
788.57	67.797
788.88	59.504
789.19	59.028
789.49	61.364
789.80	63.359
790.11	71.429
790.41	75.248
790.72	73.494
791.03	68.478
791.33	76.744
791.64	80.412
791.95	75.248
792.25	74.444
792.56	85.714
792.87	84.615
793.17	88.608
793.48	93.103
793.79	80.460
794.09	78.409
794.40	64.706
794.70	68.382
795.01	56.296
795.32	56.115
795.62	53.543
795.93	65.517
796.23	57.522
796.54	69.412
796.85	82.432
797.15	107.042
797.46	96.970
797.76	81.928
798.07	92.405
798.37	95.385
798.68	87.879
798.99	80.282
799.29	85.714
799.60	75.000
799.90	100.000
800.21	94.030
800.51	108.621
800.82	108.772
801.12	101.639
801.43	109.091
801.73	82.432
802.04	107.937
802.34	82.716
802.65	98.437
802.95	100.000
803.26	101.563
803.56	95.714
803.87	90.769
804.17	101.471
804.48	125.926
804.78	101.724
805.09	107.353
805.39	100.000
805.70	103.571
806.00	122.951
806.30	86.364
806.61	98.780
806.91	77.215
807.22	84.211
807.52	100.000
807.83	100.000
808.13	100.000
808.43	101.667
808.74	65.789
809.04	101.449
809.35	97.015
809.65	96.053
809.95	124.194
810.26	93.220
810.56	111.111
810.86	134.091
811.17	130.952
811.47	113.333
811.77	122.222
812.08	130.909
812.38	124.000
812.69	150.000
812.99	165.909
813.29	132.653
813.59	111.905
813.90	151.020
814.20	110.909
814.50	81.538
814.81	97.059
815.11	126.531
815.41	101.639
815.72	152.381
816.02	116.364
816.32	142.857
816.62	142.500
816.93	131.707
817.23	145.238
817.53	129.545
817.84	203.030
818.14	150.000
818.44	135.556
818.74	185.294
819.04	140.000
819.35	171.429
819.65	152.941
819.95	178.571
820.25	245.000
820.56	169.231
820.86	147.727
821.16	146.512
821.46	135.897
821.76	136.000
822.07	162.857
822.37	162.500
822.67	160.606
822.97	117.647
823.27	192.857
823.57	124.324
823.88	147.500
824.18	186.667
824.48	154.762
824.78	208.000
825.08	200.000
825.38	178.378
825.69	146.341
825.99	200.000
826.29	186.207
826.59	163.158
826.89	157.895
827.19	179.412
827.49	187.097
827.79	165.909
828.09	120.455
828.39	117.021
828.70	124.490
829.00	211.111
829.30	161.290
829.60	165.000
829.90	326.667
830.20	221.429
830.50	182.609
830.80	230.435
831.10	193.333
831.40	183.333
831.70	204.348
832.00	200.000
832.30	200.000
832.60	343.750
832.90	190.000
833.20	378.571
833.50	190.323
833.80	182.759
834.10	187.500
834.40	184.615
834.70	305.556
835.00	300.000
835.30	180.000
835.60	384.615
835.90	196.552
836.20	342.857
836.50	213.793
836.80	224.000
837.10	166.667
837.40	280.952
837.70	352.941
838.00	185.185
838.30	233.333
838.60	295.238
838.90	257.692
839.19	315.000
839.49	407.143
839.79	280.000
840.09	245.000
840.39	252.381
840.69	269.565
840.99	311.111
841.29	420.000
841.59	350.000
841.88	356.250
842.18	182.759
842.48	271.429
842.78	203.333
843.08	256.522
843.38	190.625
843.68	916.667
843.97	234.615
844.27	186.207
844.57	338.095
844.87	368.750
845.17	188.889
845.47	1966.667
845.76	522.222
846.06	264.706
846.36	450.000
846.66	385.714
846.96	306.250
847.25	463.636
847.55	472.727
847.85	217.391
848.15	500.000
848.44	400.000
848.74	288.889
849.04	323.529
849.34	480.000
849.63	173.684
849.93	490.909
850.23	980.000
850.53	400.000
850.82	1950.000
851.12	-5000.000
851.42	4800.000
851.71	255.000
852.01	-1200.000
852.31	250.000
852.61	1566.667
852.90	266.667
853.20	252.000
853.50	311.765
853.79	257.143
854.09	233.333
854.39	343.750
854.68	183.784
854.98	203.226
855.28	163.333
855.57	241.379
855.87	207.407
856.17	273.684
856.46	246.667
856.76	323.529
857.05	200.000
857.35	262.500
857.65	353.333
857.94	269.565
858.24	226.923
858.53	270.000
858.83	259.091
859.13	413.333
859.42	0.000
859.72	644.444
860.01	400.000
860.31	263.636
860.60	252.632
860.90	217.391
861.20	588.889
861.49	450.000
861.79	-6200.000
862.08	687.500
862.38	280.952
862.67	361.538
862.97	341.176
863.26	600.000
863.56	311.111
863.85	375.000
864.15	612.500
864.44	353.333
864.74	950.000
865.03	762.500
865.33	315.789
865.62	472.727
865.92	400.000
866.21	325.000
866.51	0.000
866.80	481.818
867.10	1200.000
867.39	423.077
867.69	409.091
867.98	263.158
868.27	554.545
868.57	336.842
868.86	-4200.000
869.16	325.000
869.45	2350.000
869.75	-3300.000
870.04	508.333
870.33	628.571
870.63	1075.000
870.92	2950.000
871.22	842.857
871.51	305.882
871.80	219.048
872.10	435.714
>>>>>End Processed Spectral Data<<<<<
