SpectraSuite Data File
++++++++++++++++++++++++++++++++++++
Date: Wed May 13 19:52:54 PDT 2015
User: schluterlab
Dark Spectrum Present: Yes
Reference Spectrum Present: Yes
Number of Sampled Component Spectra: 1
Spectrometers: USB2E3373
Integration Time (usec): 3000 (USB2E3373)
Spectra Averaged: 3 (USB2E3373)
Boxcar Smoothing: 0 (USB2E3373)
Correct for Electrical Dark: No (USB2E3373)
Strobe/Lamp Enabled: No (USB2E3373)
Correct for Detector Non-linearity: No (USB2E3373)
Correct for Stray Light: No (USB2E3373)
Number of Pixels in Processed Spectrum: 2048
>>>>>Begin Processed Spectral Data<<<<<
178.53	0.000
178.91	-1300.000
179.29	-1425.000
179.67	-255.556
180.04	-1350.000
180.42	2750.000
180.80	1000.000
181.18	-1275.000
181.56	728.571
181.94	0.000
182.31	-742.857
182.69	1433.333
183.07	-587.500
183.45	-555.556
183.83	654.545
184.20	-390.000
184.58	2750.000
184.96	7000.000
185.34	-1000.000
185.72	-750.000
186.09	-2050.000
186.47	3150.000
186.85	2850.000
187.23	5700.000
187.61	-1800.000
187.98	1575.000
188.36	581.818
188.74	563.636
189.12	-1100.000
189.49	580.000
189.87	-5000.000
190.25	-1300.000
190.63	421.429
191.00	407.692
191.38	866.667
191.76	-925.000
192.14	1350.000
192.51	650.000
192.89	1016.667
193.27	600.000
193.65	-1425.000
194.02	470.000
194.40	920.000
194.78	580.000
195.15	466.667
195.53	650.000
195.91	-2000.000
196.29	387.500
196.66	294.737
197.04	-350.000
197.42	0.000
197.79	670.000
198.17	-5600.000
198.55	771.429
198.92	800.000
199.30	1000.000
199.68	0.000
200.05	366.667
200.43	814.286
200.81	4600.000
201.18	2000.000
201.56	-1833.333
201.94	633.333
202.31	555.556
202.69	475.000
203.07	640.000
203.44	0.000
203.82	1175.000
204.19	728.571
204.57	471.429
204.95	775.000
205.32	1933.333
205.70	600.000
206.08	414.286
206.45	2500.000
206.83	393.750
207.20	1116.667
207.58	1040.000
207.96	338.889
208.33	637.500
208.71	-983.333
209.08	814.286
209.46	744.444
209.84	536.364
210.21	-1400.000
210.59	1550.000
210.96	-475.000
211.34	3200.000
211.71	590.000
212.09	766.667
212.46	0.000
212.84	1800.000
213.22	1525.000
213.59	-6200.000
213.97	700.000
214.34	800.000
214.72	654.545
215.09	1200.000
215.47	-2150.000
215.84	-2850.000
216.22	1500.000
216.59	407.143
216.97	1375.000
217.34	518.182
217.72	-766.667
218.09	0.000
218.47	-5800.000
218.84	700.000
219.22	857.143
219.59	1600.000
219.97	-571.429
220.34	1040.000
220.72	-2100.000
221.09	435.714
221.47	1575.000
221.84	-916.667
222.22	0.000
222.59	1325.000
222.97	-2600.000
223.34	1220.000
223.72	453.846
224.09	1080.000
224.46	2850.000
224.84	-5000.000
225.21	-1040.000
225.59	-4800.000
225.96	680.000
226.34	265.000
226.71	3250.000
227.08	650.000
227.46	530.000
227.83	-1250.000
228.21	-2550.000
228.58	655.556
228.95	-2450.000
229.33	-2500.000
229.70	1800.000
230.08	857.143
230.45	-1000.000
230.82	441.667
231.20	866.667
231.57	785.714
231.95	558.333
232.32	309.091
232.69	418.182
233.07	700.000
233.44	323.077
233.81	-1400.000
234.19	342.105
234.56	516.667
234.93	425.000
235.31	418.182
235.68	330.769
236.05	342.857
236.43	193.939
236.80	331.579
237.17	4600.000
237.55	252.381
237.92	221.429
238.29	238.095
238.67	177.419
239.04	182.759
239.41	155.556
239.79	115.217
240.16	128.571
240.53	136.364
240.91	101.961
241.28	112.000
241.65	114.000
242.02	100.000
242.40	88.710
242.77	91.667
243.14	74.194
243.51	80.899
243.89	85.882
244.26	62.222
244.63	68.817
245.00	53.191
245.38	61.386
245.75	42.056
246.12	48.624
246.49	56.204
246.87	52.800
247.24	52.308
247.61	42.143
247.98	45.752
248.36	49.324
248.73	40.764
249.10	44.586
249.47	42.373
249.84	40.107
250.22	31.551
250.59	39.053
250.96	36.364
251.33	43.602
251.70	37.624
252.08	30.000
252.45	30.493
252.82	29.565
253.19	30.213
253.56	34.510
253.94	32.365
254.31	31.250
254.68	32.308
255.05	28.044
255.42	30.081
255.79	31.985
256.16	33.574
256.54	27.915
256.91	29.181
257.28	27.338
257.65	29.703
258.02	26.087
258.39	29.022
258.76	27.759
259.14	28.869
259.51	21.581
259.88	26.398
260.25	28.399
260.62	23.410
260.99	23.913
261.36	26.126
261.73	24.928
262.10	20.930
262.47	25.634
262.85	24.234
263.22	20.513
263.59	25.071
263.96	25.000
264.33	21.671
264.70	26.316
265.07	24.041
265.44	22.222
265.81	21.655
266.18	23.869
266.55	21.707
266.92	20.885
267.29	24.074
267.66	22.018
268.03	21.136
268.40	20.093
268.77	21.718
269.14	20.495
269.51	20.090
269.88	23.776
270.25	22.799
270.62	18.876
270.99	24.946
271.36	21.674
271.73	18.692
272.10	20.000
272.47	21.720
272.84	21.861
273.21	23.270
273.58	20.087
273.95	19.916
274.32	20.455
274.69	20.557
275.06	19.685
275.43	20.213
275.80	20.240
276.17	18.737
276.54	19.751
276.91	19.170
277.28	18.945
277.65	18.182
278.02	19.048
278.39	20.508
278.76	19.273
279.13	19.811
279.50	19.553
279.87	18.526
280.23	17.964
280.60	17.021
280.97	17.930
281.34	18.584
281.71	19.636
282.08	18.042
282.45	18.000
282.82	19.361
283.19	15.508
283.56	17.544
283.92	18.105
284.29	17.813
284.66	16.878
285.03	17.360
285.40	18.486
285.77	17.340
286.14	16.062
286.51	17.000
286.87	18.632
287.24	19.707
287.61	17.657
287.98	16.883
288.35	16.957
288.72	16.511
289.08	17.214
289.45	16.804
289.82	18.049
290.19	15.071
290.56	16.692
290.93	15.710
291.29	16.871
291.66	15.929
292.03	18.169
292.40	17.915
292.77	16.272
293.13	16.119
293.50	14.431
293.87	15.556
294.24	14.667
294.60	13.828
294.97	15.262
295.34	17.489
295.71	15.057
296.08	14.387
296.44	14.305
296.81	14.267
297.18	15.583
297.55	13.456
297.91	15.435
298.28	14.056
298.65	15.013
299.02	14.888
299.38	14.077
299.75	11.590
300.12	14.176
300.48	13.875
300.85	14.303
301.22	12.357
301.59	13.384
301.95	14.736
302.32	13.094
302.69	13.740
303.05	13.455
303.42	13.704
303.79	14.383
304.15	12.704
304.52	12.746
304.89	14.402
305.25	13.573
305.62	13.590
305.99	12.987
306.35	13.087
306.72	14.574
307.09	14.206
307.45	12.613
307.82	13.058
308.19	13.687
308.55	12.945
308.92	13.534
309.29	13.305
309.65	13.043
310.02	13.108
310.38	13.871
310.75	13.200
311.12	13.204
311.48	12.017
311.85	13.836
312.22	13.944
312.58	13.825
312.95	13.833
313.31	13.301
313.68	13.721
314.05	15.878
314.41	13.367
314.78	14.099
315.14	14.101
315.51	14.418
315.87	14.554
316.24	13.307
316.61	13.840
316.97	14.090
317.34	12.916
317.70	14.340
318.07	14.726
318.43	14.775
318.80	17.057
319.16	16.102
319.53	14.634
319.89	15.714
320.26	17.200
320.62	16.567
320.99	16.869
321.35	16.768
321.72	17.351
322.08	17.966
322.45	18.706
322.81	17.733
323.18	18.401
323.54	18.646
323.91	17.736
324.27	19.407
324.64	17.987
325.00	17.583
325.37	19.108
325.73	18.402
326.10	19.682
326.46	18.548
326.83	20.190
327.19	19.641
327.56	19.338
327.92	20.822
328.29	20.497
328.65	21.823
329.01	20.217
329.38	21.092
329.74	20.591
330.11	21.206
330.47	20.661
330.84	20.864
331.20	22.678
331.56	22.110
331.93	20.926
332.29	22.005
332.66	21.593
333.02	21.664
333.38	22.222
333.75	23.797
334.11	22.598
334.48	22.360
334.84	22.886
335.20	22.727
335.57	21.487
335.93	21.518
336.29	21.978
336.66	21.371
337.02	21.267
337.38	21.944
337.75	21.925
338.11	22.650
338.47	22.744
338.84	23.740
339.20	22.661
339.56	23.175
339.93	22.909
340.29	22.645
340.65	21.747
341.02	22.775
341.38	22.153
341.74	22.105
342.11	22.533
342.47	22.467
342.83	23.031
343.20	23.896
343.56	22.746
343.92	21.842
344.28	23.554
344.65	22.356
345.01	21.717
345.37	23.413
345.73	22.589
346.10	23.103
346.46	23.475
346.82	23.723
347.19	22.055
347.55	22.332
347.91	24.757
348.27	23.583
348.63	24.331
349.00	23.301
349.36	21.839
349.72	22.694
350.08	23.420
350.45	24.247
350.81	22.989
351.17	23.258
351.53	24.324
351.89	23.762
352.26	24.073
352.62	24.298
352.98	23.096
353.34	24.158
353.70	23.322
354.07	22.419
354.43	23.333
354.79	23.894
355.15	23.543
355.51	24.460
355.87	24.245
356.24	23.290
356.60	23.416
356.96	24.859
357.32	23.549
357.68	24.252
358.04	24.386
358.40	24.624
358.77	24.491
359.13	24.467
359.49	24.078
359.85	22.302
360.21	23.844
360.57	24.514
360.93	25.231
361.29	24.490
361.66	24.923
362.02	25.373
362.38	24.563
362.74	24.702
363.10	24.130
363.46	24.652
363.82	25.472
364.18	24.596
364.54	25.483
364.90	25.637
365.26	24.485
365.62	26.224
365.98	23.959
366.35	25.430
366.71	25.958
367.07	24.399
367.43	25.689
367.79	26.196
368.15	26.293
368.51	24.782
368.87	26.124
369.23	25.604
369.59	25.996
369.95	25.882
370.31	25.855
370.67	26.667
371.03	27.191
371.39	26.749
371.75	26.250
372.11	27.098
372.47	27.199
372.83	26.729
373.19	26.734
373.55	28.381
373.91	27.982
374.27	26.598
374.63	26.618
374.99	27.754
375.35	27.425
375.71	28.239
376.07	28.395
376.42	27.717
376.78	28.231
377.14	27.476
377.50	28.344
377.86	28.125
378.22	28.761
378.58	27.193
378.94	28.410
379.30	27.481
379.66	28.046
380.02	28.624
380.38	28.415
380.74	28.872
381.09	28.973
381.45	29.564
381.81	28.870
382.17	28.981
382.53	27.987
382.89	29.691
383.25	29.769
383.61	30.112
383.97	29.894
384.32	29.881
384.68	29.616
385.04	29.932
385.40	29.969
385.76	29.914
386.12	30.829
386.48	30.271
386.83	31.366
387.19	31.725
387.55	30.612
387.91	31.016
388.27	31.085
388.62	30.854
388.98	30.835
389.34	31.602
389.70	31.208
390.06	31.812
390.42	31.647
390.77	32.379
391.13	32.993
391.49	31.599
391.85	30.363
392.20	31.861
392.56	32.955
392.92	32.019
393.28	32.012
393.64	32.074
393.99	32.621
394.35	31.824
394.71	32.873
395.07	33.146
395.42	32.942
395.78	33.015
396.14	33.147
396.50	34.649
396.85	33.694
397.21	33.909
397.57	33.850
397.92	34.736
398.28	33.072
398.64	34.110
399.00	33.968
399.35	33.672
399.71	33.738
400.07	34.299
400.42	35.644
400.78	35.163
401.14	35.854
401.49	35.522
401.85	34.846
402.21	35.090
402.57	34.547
402.92	36.066
403.28	36.540
403.63	35.149
403.99	35.414
404.35	35.030
404.70	34.652
405.06	35.818
405.42	36.494
405.77	35.143
406.13	36.061
406.49	36.369
406.84	35.794
407.20	35.461
407.55	36.184
407.91	37.067
408.27	36.822
408.62	35.822
408.98	36.703
409.34	37.023
409.69	37.355
410.05	36.493
410.40	36.391
410.76	37.754
411.11	36.912
411.47	37.572
411.83	36.469
412.18	36.735
412.54	38.418
412.89	37.711
413.25	37.249
413.60	38.419
413.96	37.098
414.31	37.667
414.67	38.276
415.03	38.675
415.38	38.144
415.74	36.785
416.09	39.321
416.45	38.688
416.80	38.929
417.16	39.745
417.51	39.084
417.87	38.921
418.22	38.927
418.58	39.832
418.93	40.172
419.29	38.129
419.64	39.673
420.00	39.146
420.35	39.420
420.71	39.809
421.06	39.021
421.42	38.070
421.77	39.350
422.12	38.237
422.48	39.018
422.83	39.546
423.19	39.503
423.54	39.698
423.90	40.000
424.25	39.308
424.61	39.048
424.96	40.816
425.31	39.535
425.67	39.157
426.02	39.257
426.38	40.537
426.73	39.965
427.09	40.608
427.44	39.275
427.79	40.943
428.15	40.952
428.50	39.965
428.85	40.405
429.21	39.812
429.56	39.554
429.92	39.809
430.27	39.374
430.62	39.068
430.98	40.166
431.33	39.742
431.68	40.366
432.04	39.989
432.39	40.948
432.74	42.071
433.10	41.539
433.45	41.050
433.80	40.965
434.16	40.652
434.51	40.421
434.86	41.277
435.22	41.078
435.57	41.277
435.92	40.667
436.28	42.230
436.63	40.728
436.98	40.584
437.34	40.489
437.69	42.240
438.04	41.091
438.39	41.672
438.75	40.325
439.10	41.676
439.45	41.322
439.81	42.115
440.16	41.050
440.51	41.242
440.86	41.054
441.22	41.157
441.57	41.242
441.92	41.607
442.27	41.335
442.63	41.548
442.98	41.972
443.33	41.196
443.68	40.733
444.03	42.265
444.39	40.166
444.74	40.693
445.09	40.916
445.44	40.897
445.79	41.663
446.15	41.186
446.50	41.357
446.85	40.904
447.20	41.305
447.55	41.653
447.91	42.361
448.26	42.905
448.61	42.171
448.96	41.417
449.31	43.026
449.66	41.474
450.02	42.340
450.37	40.873
450.72	41.906
451.07	41.621
451.42	42.918
451.77	42.513
452.12	41.917
452.47	41.356
452.83	43.298
453.18	41.748
453.53	42.919
453.88	41.819
454.23	42.200
454.58	42.701
454.93	43.547
455.28	41.272
455.63	42.900
455.98	44.107
456.34	42.274
456.69	42.392
457.04	42.848
457.39	41.730
457.74	42.252
458.09	41.633
458.44	41.505
458.79	40.835
459.14	41.196
459.49	40.922
459.84	41.551
460.19	42.133
460.54	41.377
460.89	41.744
461.24	41.651
461.59	42.301
461.94	42.540
462.29	42.908
462.64	41.991
462.99	41.835
463.34	41.067
463.69	43.089
464.04	41.623
464.39	42.029
464.74	41.295
465.09	42.159
465.44	41.274
465.79	42.114
466.14	40.668
466.49	40.990
466.84	40.981
467.19	41.098
467.54	42.375
467.89	40.876
468.24	40.663
468.59	42.247
468.94	41.967
469.29	41.517
469.64	43.307
469.99	43.572
470.34	42.404
470.68	42.026
471.03	42.585
471.38	42.530
471.73	42.039
472.08	44.145
472.43	41.960
472.78	41.343
473.13	42.683
473.48	42.072
473.83	42.439
474.17	42.377
474.52	42.060
474.87	42.207
475.22	42.194
475.57	40.892
475.92	39.989
476.27	40.755
476.61	41.644
476.96	41.561
477.31	40.502
477.66	40.755
478.01	40.617
478.36	41.883
478.70	40.343
479.05	40.895
479.40	40.839
479.75	40.925
480.10	40.905
480.45	40.314
480.79	39.178
481.14	40.656
481.49	40.674
481.84	40.009
482.19	40.709
482.53	39.862
482.88	40.065
483.23	41.075
483.58	40.855
483.92	40.675
484.27	39.129
484.62	39.871
484.97	39.338
485.31	39.486
485.66	37.709
486.01	36.496
486.36	35.305
486.70	34.810
487.05	35.814
487.40	37.053
487.75	37.185
488.09	37.398
488.44	38.426
488.79	38.915
489.13	39.190
489.48	39.886
489.83	39.448
490.17	40.728
490.52	39.283
490.87	39.665
491.22	39.791
491.56	38.405
491.91	39.926
492.26	39.412
492.60	38.848
492.95	39.570
493.30	38.925
493.64	40.597
493.99	38.162
494.34	39.362
494.68	39.560
495.03	39.897
495.37	38.855
495.72	39.717
496.07	39.675
496.41	38.451
496.76	38.918
497.11	39.847
497.45	38.938
497.80	38.724
498.14	38.841
498.49	38.244
498.84	39.549
499.18	38.714
499.53	39.269
499.87	38.630
500.22	38.625
500.56	39.854
500.91	38.750
501.26	38.739
501.60	38.918
501.95	38.313
502.29	39.175
502.64	38.408
502.98	37.962
503.33	38.163
503.67	37.912
504.02	38.120
504.36	38.512
504.71	38.593
505.06	38.651
505.40	38.697
505.75	38.042
506.09	38.824
506.44	39.369
506.78	38.967
507.13	39.525
507.47	38.283
507.82	38.906
508.16	38.602
508.51	39.320
508.85	38.779
509.19	38.316
509.54	38.571
509.88	38.331
510.23	39.126
510.57	38.700
510.92	38.685
511.26	37.821
511.61	38.589
511.95	38.152
512.30	37.911
512.64	37.722
512.98	39.496
513.33	38.704
513.67	37.673
514.02	37.716
514.36	38.230
514.70	38.240
515.05	38.539
515.39	38.587
515.74	39.358
516.08	38.960
516.42	39.845
516.77	39.353
517.11	37.680
517.46	39.447
517.80	39.315
518.14	38.448
518.49	39.323
518.83	38.352
519.17	38.626
519.52	38.993
519.86	38.677
520.20	39.538
520.55	39.078
520.89	40.328
521.23	39.264
521.58	39.676
521.92	39.375
522.26	38.621
522.61	39.751
522.95	39.042
523.29	39.623
523.64	39.146
523.98	38.940
524.32	39.083
524.66	38.725
525.01	38.480
525.35	38.786
525.69	38.547
526.04	38.941
526.38	38.072
526.72	38.834
527.06	39.548
527.41	37.748
527.75	39.164
528.09	40.334
528.43	39.388
528.78	39.090
529.12	38.182
529.46	38.641
529.80	38.923
530.15	38.754
530.49	37.231
530.83	37.975
531.17	39.164
531.51	39.818
531.86	38.581
532.20	38.462
532.54	39.270
532.88	39.730
533.22	38.101
533.57	37.778
533.91	37.146
534.25	38.578
534.59	38.682
534.93	36.942
535.27	37.417
535.62	37.851
535.96	38.418
536.30	37.826
536.64	38.442
536.98	37.956
537.32	37.525
537.66	38.467
538.01	38.512
538.35	38.009
538.69	37.588
539.03	37.037
539.37	37.188
539.71	35.774
540.05	38.170
540.39	37.940
540.73	35.899
541.07	37.378
541.42	36.986
541.76	37.355
542.10	36.869
542.44	37.086
542.78	38.142
543.12	36.852
543.46	38.623
543.80	36.825
544.14	35.623
544.48	36.635
544.82	36.241
545.16	36.044
545.50	35.476
545.84	37.500
546.18	36.229
546.52	37.509
546.86	36.289
547.20	36.480
547.54	36.874
547.88	37.117
548.22	35.367
548.56	36.038
548.90	36.300
549.24	35.556
549.58	36.698
549.92	36.332
550.26	37.571
550.60	35.408
550.94	36.268
551.28	35.845
551.62	35.730
551.96	34.807
552.30	36.451
552.64	36.241
552.98	35.458
553.32	35.266
553.66	37.355
554.00	36.102
554.34	35.680
554.68	36.338
555.02	35.049
555.36	36.186
555.69	34.506
556.03	35.195
556.37	35.675
556.71	34.789
557.05	35.504
557.39	34.010
557.73	34.510
558.07	35.896
558.41	34.370
558.75	36.223
559.08	36.465
559.42	34.769
559.76	35.735
560.10	33.904
560.44	34.382
560.78	33.466
561.12	33.707
561.45	34.224
561.79	34.608
562.13	34.474
562.47	34.973
562.81	34.868
563.15	34.047
563.48	34.151
563.82	33.986
564.16	33.813
564.50	32.617
564.84	33.312
565.17	32.561
565.51	34.121
565.85	33.503
566.19	33.375
566.52	33.629
566.86	32.429
567.20	33.019
567.54	31.963
567.88	31.016
568.21	32.116
568.55	31.598
568.89	30.885
569.23	30.971
569.56	29.879
569.90	29.283
570.24	29.243
570.57	29.242
570.91	28.410
571.25	28.289
571.59	28.100
571.92	27.563
572.26	28.134
572.60	28.468
572.93	27.526
573.27	28.157
573.61	27.610
573.95	27.287
574.28	26.834
574.62	26.992
574.96	26.714
575.29	26.552
575.63	26.575
575.97	27.024
576.30	27.536
576.64	26.561
576.98	26.932
577.31	26.779
577.65	26.189
577.98	25.935
578.32	25.715
578.66	26.080
578.99	26.387
579.33	26.216
579.67	25.906
580.00	26.037
580.34	26.626
580.67	26.164
581.01	26.152
581.35	25.384
581.68	25.590
582.02	25.328
582.35	25.570
582.69	25.469
583.02	25.633
583.36	25.847
583.70	26.773
584.03	26.097
584.37	26.640
584.70	26.463
585.04	26.076
585.37	26.048
585.71	25.728
586.04	25.417
586.38	25.993
586.72	26.484
587.05	25.564
587.39	25.409
587.72	26.024
588.06	25.534
588.39	26.118
588.73	26.019
589.06	26.395
589.40	26.431
589.73	26.470
590.07	26.690
590.40	27.147
590.73	27.361
591.07	27.798
591.40	27.415
591.74	27.489
592.07	27.051
592.41	27.160
592.74	26.929
593.08	26.149
593.41	25.783
593.75	25.547
594.08	25.880
594.41	25.239
594.75	26.026
595.08	26.092
595.42	26.480
595.75	26.033
596.09	26.098
596.42	27.151
596.75	26.973
597.09	27.403
597.42	25.337
597.75	26.865
598.09	26.565
598.42	27.105
598.76	25.942
599.09	25.732
599.42	24.854
599.76	24.854
600.09	25.392
600.42	25.201
600.76	25.107
601.09	25.392
601.42	25.571
601.76	25.958
602.09	25.257
602.42	25.717
602.76	25.917
603.09	25.728
603.42	26.084
603.76	25.572
604.09	24.893
604.42	25.642
604.76	26.276
605.09	25.950
605.42	25.566
605.75	25.911
606.09	25.376
606.42	25.255
606.75	24.430
607.09	24.362
607.42	25.032
607.75	24.515
608.08	24.533
608.42	25.415
608.75	25.068
609.08	25.532
609.41	25.607
609.75	25.679
610.08	26.155
610.41	24.628
610.74	25.686
611.07	25.939
611.41	25.172
611.74	26.596
612.07	25.932
612.40	26.180
612.73	25.474
613.07	26.724
613.40	25.382
613.73	26.114
614.06	25.968
614.39	25.957
614.72	25.895
615.06	26.155
615.39	25.159
615.72	24.642
616.05	24.668
616.38	26.126
616.71	26.010
617.05	25.736
617.38	25.977
617.71	25.946
618.04	27.043
618.37	25.902
618.70	26.696
619.03	27.368
619.36	27.155
619.69	26.901
620.03	27.335
620.36	26.738
620.69	27.808
621.02	27.360
621.35	27.486
621.68	26.480
622.01	27.554
622.34	27.005
622.67	28.137
623.00	26.192
623.33	25.590
623.66	26.305
623.99	26.510
624.32	26.391
624.65	25.918
624.99	25.992
625.32	25.561
625.65	26.972
625.98	27.133
626.31	27.605
626.64	28.327
626.97	27.681
627.30	27.764
627.63	27.235
627.96	28.595
628.29	28.784
628.62	29.003
628.95	29.434
629.28	28.650
629.61	29.056
629.94	27.238
630.26	29.743
630.59	28.408
630.92	27.011
631.25	26.851
631.58	27.828
631.91	28.195
632.24	27.426
632.57	29.171
632.90	28.947
633.23	29.866
633.56	31.073
633.89	30.238
634.22	30.193
634.55	30.769
634.88	28.862
635.20	29.391
635.53	30.964
635.86	29.827
636.19	28.353
636.52	28.374
636.85	30.241
637.18	30.069
637.51	30.496
637.83	29.963
638.16	29.412
638.49	29.723
638.82	31.606
639.15	29.375
639.48	31.421
639.81	31.099
640.13	30.729
640.46	29.933
640.79	32.893
641.12	30.399
641.45	29.190
641.77	31.959
642.10	31.433
642.43	31.532
642.76	31.734
643.09	32.669
643.41	31.411
643.74	33.179
644.07	33.079
644.40	33.282
644.73	33.071
645.05	34.073
645.38	33.017
645.71	33.494
646.04	32.890
646.36	34.391
646.69	33.110
647.02	33.333
647.35	34.708
647.67	32.035
648.00	33.333
648.33	30.693
648.66	32.424
648.98	31.784
649.31	30.344
649.64	31.091
649.96	31.893
650.29	30.648
650.62	31.553
650.94	33.387
651.27	33.277
651.60	31.448
651.92	33.067
652.25	29.479
652.58	31.776
652.90	31.912
653.23	29.276
653.56	30.236
653.88	32.805
654.21	31.912
654.54	30.198
654.86	29.439
655.19	28.514
655.52	18.709
655.84	15.203
656.17	19.385
656.49	26.686
656.82	27.347
657.15	21.150
657.47	15.750
657.80	12.291
658.13	12.858
658.45	19.339
658.78	19.701
659.10	20.957
659.43	21.613
659.75	22.644
660.08	25.759
660.41	28.678
660.73	29.733
661.06	29.459
661.38	33.636
661.71	33.269
662.03	34.517
662.36	32.406
662.68	33.333
663.01	34.343
663.33	33.546
663.66	34.244
663.98	33.693
664.31	31.723
664.63	32.996
664.96	30.584
665.28	35.246
665.61	33.723
665.93	31.388
666.26	31.440
666.58	32.636
666.91	34.461
667.23	35.281
667.56	31.965
667.88	34.402
668.21	33.475
668.53	32.972
668.86	34.416
669.18	34.968
669.50	32.174
669.83	37.037
670.15	34.000
670.48	35.730
670.80	33.405
671.13	33.546
671.45	31.277
671.77	34.216
672.10	31.054
672.42	32.155
672.75	27.861
673.07	29.225
673.39	30.922
673.72	30.469
674.04	30.784
674.37	31.845
674.69	30.470
675.01	30.335
675.34	33.676
675.66	33.895
675.98	33.198
676.31	32.773
676.63	33.121
676.95	31.656
677.28	32.710
677.60	34.066
677.92	34.599
678.25	32.238
678.57	30.876
678.89	31.263
679.22	32.220
679.54	32.252
679.86	30.275
680.18	30.054
680.51	29.610
680.83	31.139
681.15	30.377
681.48	30.435
681.80	29.400
682.12	31.034
682.44	29.014
682.77	31.161
683.09	35.408
683.41	31.486
683.73	33.775
684.06	30.785
684.38	31.898
684.70	29.651
685.02	29.081
685.34	28.938
685.67	27.448
685.99	26.976
686.31	27.986
686.63	28.269
686.96	30.000
687.28	27.256
687.60	30.072
687.92	29.799
688.24	27.947
688.56	31.727
688.89	35.062
689.21	31.441
689.53	29.854
689.85	31.707
690.17	29.814
690.49	32.484
690.82	32.009
691.14	33.259
691.46	29.325
691.78	29.920
692.10	31.612
692.42	30.539
692.74	29.668
693.06	28.511
693.39	29.774
693.71	31.004
694.03	31.579
694.35	28.571
694.67	29.291
694.99	32.683
695.31	30.882
695.63	32.775
695.95	31.051
696.27	30.711
696.59	32.383
696.91	34.197
697.23	30.751
697.56	31.343
697.88	24.949
698.20	30.833
698.52	29.892
698.84	29.399
699.16	29.263
699.48	31.354
699.80	30.676
700.12	36.364
700.44	33.422
700.76	34.530
701.08	34.770
701.40	30.726
701.72	37.609
702.04	37.500
702.36	29.462
702.68	35.127
703.00	29.640
703.32	33.511
703.64	30.831
703.96	33.148
704.28	33.140
704.60	35.191
704.91	37.685
705.23	31.672
705.55	39.535
705.87	38.538
706.19	35.336
706.51	35.202
706.83	35.152
707.15	33.053
707.47	31.818
707.79	31.204
708.11	34.247
708.43	33.095
708.74	31.888
709.06	33.247
709.38	34.908
709.70	31.105
710.02	32.938
710.34	32.424
710.66	37.015
710.98	35.227
711.29	32.849
711.61	37.168
711.93	35.256
712.25	34.727
712.57	30.147
712.89	31.488
713.20	37.690
713.52	32.895
713.84	29.747
714.16	32.012
714.48	35.920
714.80	36.170
715.11	33.141
715.43	29.080
715.75	33.333
716.07	31.949
716.39	31.661
716.70	38.538
717.02	37.770
717.34	33.216
717.66	41.791
717.97	44.223
718.29	38.148
718.61	36.861
718.93	39.338
719.24	33.218
719.56	32.881
719.88	38.983
720.20	35.135
720.51	37.631
720.83	39.033
721.15	38.060
721.46	36.879
721.78	40.860
722.10	38.491
722.42	39.474
722.73	36.704
723.05	36.885
723.37	34.818
723.68	37.066
724.00	37.398
724.32	40.323
724.63	39.837
724.95	33.054
725.27	40.081
725.58	36.719
725.90	38.321
726.22	37.736
726.53	30.903
726.85	38.225
727.16	37.722
727.48	36.879
727.80	36.364
728.11	36.232
728.43	33.077
728.74	34.050
729.06	35.036
729.38	39.706
729.69	39.502
730.01	35.836
730.32	38.542
730.64	38.127
730.96	31.683
731.27	35.099
731.59	34.862
731.90	32.070
732.22	33.230
732.53	30.960
732.85	34.295
733.16	31.190
733.48	35.548
733.80	31.818
734.11	34.713
734.43	30.769
734.74	31.714
735.06	32.378
735.37	36.127
735.69	32.803
736.00	34.967
736.32	36.449
736.63	30.990
736.95	35.463
737.26	25.170
737.58	30.000
737.89	32.107
738.21	35.836
738.52	39.643
738.83	34.717
739.15	32.308
739.46	37.956
739.78	31.597
740.09	30.462
740.41	36.129
740.72	30.314
741.04	33.704
741.35	33.333
741.66	41.333
741.98	35.377
742.29	41.148
742.61	46.121
742.92	42.986
743.23	38.889
743.55	37.200
743.86	39.912
744.18	47.788
744.49	44.498
744.80	46.479
745.12	43.636
745.43	37.445
745.74	47.748
746.06	39.908
746.37	39.462
746.68	42.534
747.00	44.907
747.31	41.429
747.62	34.071
747.94	34.802
748.25	37.021
748.56	39.207
748.88	43.564
749.19	39.000
749.50	38.605
749.82	35.366
750.13	30.204
750.44	32.847
750.75	34.035
751.07	37.942
751.38	33.798
751.69	36.101
752.01	36.466
752.32	33.574
752.63	35.106
752.94	39.754
753.26	43.200
753.57	34.959
753.88	41.797
754.19	33.571
754.51	39.236
754.82	34.657
755.13	35.472
755.44	33.459
755.75	34.672
756.07	37.234
756.38	32.117
756.69	32.886
757.00	28.743
757.31	29.080
757.63	30.409
757.94	32.440
758.25	27.941
758.56	26.173
758.87	28.226
759.18	29.394
759.50	30.721
759.81	31.776
760.12	28.750
760.43	28.080
760.74	27.174
761.05	29.944
761.36	28.342
761.67	31.534
761.99	30.124
762.30	30.903
762.61	33.969
762.92	39.453
763.23	33.613
763.54	38.400
763.85	29.687
764.16	38.846
764.47	34.601
764.78	30.389
765.10	27.848
765.41	29.794
765.72	30.240
766.03	31.348
766.34	28.000
766.65	34.468
766.96	34.188
767.27	43.655
767.58	50.521
767.89	47.895
768.20	39.080
768.51	40.609
768.82	35.780
769.13	35.366
769.44	34.008
769.75	37.339
770.06	33.028
770.37	42.081
770.68	39.352
770.99	32.889
771.30	34.836
771.61	36.771
771.92	35.246
772.23	40.756
772.54	49.744
772.85	41.885
773.16	44.149
773.47	45.109
773.78	43.147
774.09	42.857
774.39	45.614
774.70	46.914
775.01	47.826
775.32	58.170
775.63	48.684
775.94	55.396
776.25	55.906
776.56	60.448
776.87	62.295
777.18	53.125
777.48	58.015
777.79	52.273
778.10	55.556
778.41	66.071
778.72	45.255
779.03	46.309
779.34	48.993
779.65	46.622
779.95	47.239
780.26	52.941
780.57	57.931
780.88	58.594
781.19	54.135
781.50	60.811
781.80	49.057
782.11	42.938
782.42	46.203
782.73	47.239
783.04	56.757
783.34	54.225
783.65	56.849
783.96	52.985
784.27	50.350
784.57	48.921
784.88	57.407
785.19	67.460
785.50	61.321
785.81	53.731
786.11	54.918
786.42	56.589
786.73	46.018
787.04	55.660
787.34	65.179
787.65	61.000
787.96	60.360
788.26	49.587
788.57	55.085
788.88	58.678
789.19	61.806
789.49	56.818
789.80	54.962
790.11	72.381
790.41	66.337
790.72	57.831
791.03	65.217
791.33	63.953
791.64	61.856
791.95	72.277
792.25	70.000
792.56	88.312
792.87	69.231
793.17	98.734
793.48	93.103
793.79	78.161
794.09	70.455
794.40	58.824
794.70	55.147
795.01	48.889
795.32	51.079
795.62	59.843
795.93	62.069
796.23	56.637
796.54	68.235
796.85	81.081
797.15	101.408
797.46	87.879
797.76	89.157
798.07	84.810
798.37	75.385
798.68	74.242
798.99	69.014
799.29	83.117
799.60	76.136
799.90	98.630
800.21	97.015
800.51	112.069
800.82	117.544
801.12	113.115
801.43	95.455
801.73	83.784
802.04	103.175
802.34	85.185
802.65	100.000
802.95	108.475
803.26	104.688
803.56	87.143
803.87	81.538
804.17	86.765
804.48	120.370
804.78	96.552
805.09	83.824
805.39	94.231
805.70	108.929
806.00	91.803
806.30	100.000
806.61	80.488
806.91	84.810
807.22	85.526
807.52	83.582
807.83	71.831
808.13	107.812
808.43	98.333
808.74	80.263
809.04	107.246
809.35	101.493
809.65	85.526
809.95	111.290
810.26	89.831
810.56	106.349
810.86	156.818
811.17	154.762
811.47	108.333
811.77	107.407
812.08	123.636
812.38	112.000
812.69	163.889
812.99	145.455
813.29	116.327
813.59	92.857
813.90	136.735
814.20	105.455
814.50	83.077
814.81	101.471
815.11	122.449
815.41	98.361
815.72	152.381
816.02	120.000
816.32	116.667
816.62	172.500
816.93	124.390
817.23	169.048
817.53	134.091
817.84	166.667
818.14	145.652
818.44	146.667
818.74	167.647
819.04	120.000
819.35	140.000
819.65	158.824
819.95	232.143
820.25	230.000
820.56	148.718
820.86	138.636
821.16	137.209
821.46	156.410
821.76	142.000
822.07	180.000
822.37	150.000
822.67	169.697
822.97	117.647
823.27	217.857
823.57	159.459
823.88	152.500
824.18	183.333
824.48	171.429
824.78	232.000
825.08	158.333
825.38	170.270
825.69	139.024
825.99	200.000
826.29	165.517
826.59	168.421
826.89	155.263
827.19	217.647
827.49	196.774
827.79	145.455
828.09	122.727
828.39	140.426
828.70	151.020
829.00	181.481
829.30	167.742
829.60	152.500
829.90	340.000
830.20	182.143
830.50	234.783
830.80	243.478
831.10	180.000
831.40	186.667
831.70	208.696
832.00	234.615
832.30	200.000
832.60	312.500
832.90	190.000
833.20	350.000
833.50	219.355
833.80	206.897
834.10	193.750
834.40	219.231
834.70	322.222
835.00	295.238
835.30	168.571
835.60	330.769
835.90	203.448
836.20	300.000
836.50	224.138
836.80	204.000
837.10	186.111
837.40	280.952
837.70	288.235
838.00	229.630
838.30	304.762
838.60	276.190
838.90	223.077
839.19	310.000
839.49	464.286
839.79	335.000
840.09	295.000
840.39	295.238
840.69	234.783
840.99	300.000
841.29	460.000
841.59	325.000
841.88	381.250
842.18	186.207
842.48	290.476
842.78	193.333
843.08	273.913
843.38	187.500
843.68	783.333
843.97	269.231
844.27	206.897
844.57	285.714
844.87	356.250
845.17	222.222
845.47	1600.000
845.76	488.889
846.06	352.941
846.36	637.500
846.66	421.429
846.96	393.750
847.25	518.182
847.55	427.273
847.85	260.870
848.15	590.000
848.44	421.429
848.74	283.333
849.04	311.765
849.34	590.000
849.63	268.421
849.93	454.545
850.23	920.000
850.53	342.857
850.82	2700.000
851.12	-3900.000
851.42	5100.000
851.71	285.000
852.01	-1300.000
852.31	279.167
852.61	1866.667
852.90	295.238
853.20	256.000
853.50	358.824
853.79	290.476
854.09	208.333
854.39	375.000
854.68	159.459
854.98	177.419
855.28	213.333
855.57	255.172
855.87	222.222
856.17	247.368
856.46	293.333
856.76	376.471
857.05	241.379
857.35	229.167
857.65	366.667
857.94	213.043
858.24	238.462
858.53	290.000
858.83	245.455
859.13	386.667
859.42	0.000
859.72	522.222
860.01	509.091
860.31	286.364
860.60	300.000
860.90	230.435
861.20	644.444
861.49	550.000
861.79	-4500.000
862.08	750.000
862.38	295.238
862.67	338.462
862.97	376.471
863.26	611.111
863.56	311.111
863.85	441.667
864.15	737.500
864.44	380.000
864.74	900.000
865.03	762.500
865.33	263.158
865.62	409.091
865.92	507.692
866.21	325.000
866.51	0.000
866.80	445.455
867.10	1180.000
867.39	392.308
867.69	572.727
867.98	305.263
868.27	472.727
868.57	310.526
868.86	-5900.000
869.16	375.000
869.45	2600.000
869.75	-4700.000
870.04	408.333
870.33	742.857
870.63	1250.000
870.92	2900.000
871.22	728.571
871.51	335.294
871.80	276.190
872.10	435.714
>>>>>End Processed Spectral Data<<<<<
