SpectraSuite Data File
++++++++++++++++++++++++++++++++++++
Date: Wed May 13 19:59:00 PDT 2015
User: schluterlab
Dark Spectrum Present: Yes
Reference Spectrum Present: Yes
Number of Sampled Component Spectra: 1
Spectrometers: USB2E3373
Integration Time (usec): 3000 (USB2E3373)
Spectra Averaged: 3 (USB2E3373)
Boxcar Smoothing: 0 (USB2E3373)
Correct for Electrical Dark: No (USB2E3373)
Strobe/Lamp Enabled: No (USB2E3373)
Correct for Detector Non-linearity: No (USB2E3373)
Correct for Stray Light: No (USB2E3373)
Number of Pixels in Processed Spectrum: 2048
>>>>>Begin Processed Spectral Data<<<<<
178.53	0.000
178.91	-1225.000
179.29	-1150.000
179.67	-222.222
180.04	-1225.000
180.42	3100.000
180.80	1120.000
181.18	-1150.000
181.56	671.429
181.94	0.000
182.31	-685.714
182.69	1633.333
183.07	-525.000
183.45	-444.444
183.83	554.545
184.20	-370.000
184.58	2200.000
184.96	4400.000
185.34	-1040.000
185.72	-512.500
186.09	-2250.000
186.47	2550.000
186.85	2400.000
187.23	4600.000
187.61	-1566.667
187.98	1325.000
188.36	500.000
188.74	427.273
189.12	-1020.000
189.49	490.000
189.87	-4600.000
190.25	-1150.000
190.63	400.000
191.00	384.615
191.38	750.000
191.76	-950.000
192.14	1325.000
192.51	587.500
192.89	833.333
193.27	587.500
193.65	-1150.000
194.02	570.000
194.40	960.000
194.78	540.000
195.15	475.000
195.53	600.000
195.91	-1950.000
196.29	306.250
196.66	300.000
197.04	-380.000
197.42	0.000
197.79	590.000
198.17	-4200.000
198.55	571.429
198.92	625.000
199.30	1080.000
199.68	0.000
200.05	322.222
200.43	742.857
200.81	4700.000
201.18	1800.000
201.56	-1733.333
201.94	600.000
202.31	533.333
202.69	416.667
203.07	490.000
203.44	0.000
203.82	1350.000
204.19	785.714
204.57	457.143
204.95	675.000
205.32	1466.667
205.70	563.636
206.08	414.286
206.45	2500.000
206.83	337.500
207.20	800.000
207.58	880.000
207.96	350.000
208.33	687.500
208.71	-850.000
209.08	800.000
209.46	600.000
209.84	463.636
210.21	-1566.667
210.59	1275.000
210.96	-475.000
211.34	2550.000
211.71	670.000
212.09	866.667
212.46	0.000
212.84	1566.667
213.22	1250.000
213.59	-4500.000
213.97	916.667
214.34	742.857
214.72	518.182
215.09	1080.000
215.47	-2250.000
215.84	-2750.000
216.22	1400.000
216.59	350.000
216.97	1000.000
217.34	427.273
217.72	-616.667
218.09	0.000
218.47	-4600.000
218.84	600.000
219.22	700.000
219.59	1833.333
219.97	-728.571
220.34	920.000
220.72	-1633.333
221.09	328.571
221.47	1175.000
221.84	-783.333
222.22	0.000
222.59	1275.000
222.97	-2550.000
223.34	1120.000
223.72	423.077
224.09	1060.000
224.46	1800.000
224.84	-4200.000
225.21	-1020.000
225.59	-4900.000
225.96	580.000
226.34	340.000
226.71	2550.000
227.08	550.000
227.46	470.000
227.83	-950.000
228.21	-2100.000
228.58	577.778
228.95	-2700.000
229.33	-2150.000
229.70	1866.667
230.08	714.286
230.45	-1080.000
230.82	425.000
231.20	883.333
231.57	642.857
231.95	450.000
232.32	236.364
232.69	381.818
233.07	842.857
233.44	376.923
233.81	-1766.667
234.19	294.737
234.56	408.333
234.93	425.000
235.31	354.545
235.68	392.308
236.05	385.714
236.43	133.333
236.80	226.316
237.17	3500.000
237.55	204.762
237.92	192.857
238.29	204.762
238.67	145.161
239.04	175.862
239.41	113.889
239.79	119.565
240.16	119.048
240.53	109.091
240.91	100.000
241.28	92.000
241.65	98.000
242.02	81.159
242.40	79.032
242.77	80.000
243.14	58.065
243.51	65.169
243.89	57.647
244.26	52.222
244.63	40.860
245.00	62.766
245.38	46.535
245.75	32.710
246.12	34.862
246.49	45.255
246.87	48.800
247.24	36.154
247.61	35.714
247.98	33.333
248.36	30.405
248.73	29.936
249.10	28.662
249.47	30.508
249.84	32.620
250.22	27.807
250.59	28.994
250.96	30.303
251.33	27.962
251.70	26.238
252.08	22.857
252.45	22.422
252.82	23.478
253.19	26.809
253.56	23.529
253.94	24.896
254.31	23.047
254.68	22.692
255.05	22.140
255.42	21.138
255.79	21.324
256.16	19.134
256.54	17.314
256.91	19.217
257.28	17.626
257.65	14.521
258.02	17.391
258.39	19.558
258.76	17.057
259.14	19.643
259.51	13.374
259.88	13.665
260.25	16.314
260.62	16.763
260.99	13.354
261.36	16.517
261.73	14.900
262.10	14.826
262.47	15.493
262.85	16.435
263.22	10.826
263.59	17.664
263.96	13.736
264.33	14.883
264.70	13.947
265.07	11.765
265.44	14.141
265.81	11.436
266.18	12.060
266.55	14.146
266.92	12.039
267.29	14.352
267.66	11.927
268.03	12.955
268.40	11.215
268.77	9.547
269.14	11.937
269.51	13.544
269.88	13.986
270.25	13.770
270.62	13.034
270.99	15.054
271.36	14.807
271.73	8.178
272.10	11.304
272.47	11.828
272.84	14.069
273.21	14.675
273.58	11.354
273.95	9.015
274.32	10.744
274.69	11.349
275.06	9.843
275.43	12.766
275.80	10.421
276.17	11.202
276.54	11.227
276.91	12.451
277.28	9.375
277.65	11.605
278.02	10.145
278.39	11.719
278.76	11.455
279.13	10.755
279.50	9.497
279.87	9.363
280.23	9.381
280.60	9.671
280.97	9.982
281.34	10.442
281.71	10.000
282.08	12.092
282.45	10.545
282.82	10.124
283.19	6.417
283.56	11.579
283.92	9.475
284.29	9.171
284.66	9.256
285.03	9.584
285.40	10.035
285.77	10.943
286.14	8.290
286.51	8.500
286.87	10.427
287.24	8.795
287.61	8.989
287.98	8.442
288.35	7.448
288.72	9.502
289.08	9.390
289.45	8.072
289.82	10.081
290.19	6.436
290.56	9.035
290.93	6.344
291.29	9.202
291.66	8.555
292.03	10.610
292.40	9.545
292.77	7.101
293.13	8.209
293.50	9.475
293.87	8.148
294.24	8.593
294.60	8.297
294.97	8.140
295.34	9.450
295.71	8.949
296.08	7.692
296.44	6.190
296.81	6.209
297.18	6.911
297.55	5.673
297.91	6.596
298.28	8.032
298.65	7.050
299.02	8.037
299.38	7.835
299.75	5.795
300.12	5.364
300.48	7.500
300.85	7.768
301.22	6.752
301.59	6.818
301.95	5.668
302.32	6.804
302.69	6.930
303.05	5.576
303.42	6.914
303.79	6.569
304.15	5.944
304.52	5.794
304.89	6.156
305.25	6.265
305.62	6.342
305.99	5.903
306.35	6.935
306.72	6.839
307.09	7.547
307.45	7.658
307.82	5.804
308.19	6.623
308.55	6.904
308.92	6.015
309.29	6.230
309.65	6.045
310.02	6.660
310.38	6.667
310.75	6.336
311.12	6.960
311.48	7.419
311.85	6.709
312.22	6.868
312.58	6.549
312.95	7.286
313.31	5.922
313.68	7.796
314.05	8.580
314.41	7.940
314.78	6.747
315.14	8.242
315.51	7.415
315.87	8.317
316.24	8.044
316.61	7.700
316.97	8.219
317.34	7.241
317.70	9.560
318.07	8.470
318.43	8.708
318.80	9.934
319.16	9.040
319.53	9.850
319.89	11.524
320.26	12.300
320.62	12.103
320.99	12.525
321.35	13.131
321.72	12.834
322.08	12.636
322.45	13.632
322.81	15.019
323.18	13.969
323.54	15.770
323.91	15.472
324.27	16.252
324.64	15.564
325.00	15.960
325.37	18.289
325.73	18.223
326.10	18.094
326.46	17.921
326.83	19.845
327.19	19.471
327.56	18.380
327.92	20.822
328.29	21.384
328.65	22.376
329.01	21.661
329.38	21.554
329.74	21.791
330.11	22.432
330.47	22.865
330.84	24.816
331.20	23.953
331.56	24.037
331.93	24.815
332.29	24.224
332.66	24.602
333.02	24.863
333.38	25.745
333.75	25.045
334.11	25.623
334.48	25.909
334.84	25.643
335.20	25.000
335.57	25.839
335.93	25.179
336.29	26.007
336.66	25.879
337.02	27.059
337.38	28.796
337.75	25.312
338.11	26.768
338.47	28.545
338.84	27.956
339.20	28.165
339.56	29.288
339.93	27.545
340.29	28.261
340.65	28.877
341.02	28.970
341.38	29.093
341.74	27.719
342.11	29.782
342.47	28.987
342.83	29.709
343.20	30.216
343.56	28.812
343.92	30.000
344.28	28.912
344.65	30.181
345.01	29.714
345.37	28.902
345.73	29.780
346.10	28.900
346.46	28.983
346.82	30.725
347.19	28.906
347.55	29.475
347.91	29.612
348.27	29.745
348.63	30.853
349.00	30.178
349.36	30.213
349.72	29.992
350.08	30.065
350.45	31.652
350.81	30.544
351.17	30.227
351.53	31.368
351.89	30.363
352.26	31.728
352.62	31.435
352.98	31.524
353.34	31.306
353.70	30.851
354.07	30.968
354.43	31.587
354.79	32.180
355.15	32.003
355.51	33.094
355.87	32.980
356.24	33.062
356.60	31.435
356.96	32.502
357.32	33.442
357.68	33.701
358.04	31.829
358.40	33.096
358.77	32.707
359.13	31.413
359.49	32.784
359.85	31.429
360.21	33.254
360.57	34.241
360.93	33.923
361.29	32.275
361.66	32.663
362.02	33.881
362.38	34.144
362.74	34.896
363.10	32.939
363.46	33.456
363.82	34.543
364.18	32.966
364.54	34.844
364.90	35.057
365.26	33.456
365.62	35.062
365.98	33.601
366.35	33.238
366.71	34.201
367.07	34.086
367.43	34.035
367.79	35.261
368.15	35.345
368.51	34.448
368.87	34.690
369.23	36.796
369.59	35.554
369.95	35.074
370.31	36.111
370.67	34.710
371.03	36.404
371.39	35.860
371.75	34.338
372.11	34.851
372.47	36.364
372.83	35.879
373.19	35.260
373.55	35.846
373.91	37.040
374.27	35.601
374.63	36.727
374.99	36.370
375.35	35.939
375.71	35.984
376.07	37.174
376.42	36.176
376.78	37.309
377.14	36.228
377.50	37.152
377.86	34.774
378.22	35.841
378.58	36.341
378.94	36.392
379.30	37.087
379.66	36.675
380.02	36.609
380.38	36.794
380.74	37.395
381.09	37.042
381.45	37.677
381.81	38.759
382.17	36.752
382.53	38.302
382.89	37.840
383.25	37.211
383.61	39.653
383.97	37.649
384.32	37.305
384.68	36.865
385.04	38.230
385.40	38.390
385.76	38.022
386.12	37.435
386.48	39.018
386.83	38.101
387.19	39.765
387.55	38.528
387.91	37.848
388.27	36.542
388.62	37.923
388.98	38.084
389.34	37.797
389.70	38.197
390.06	38.086
390.42	38.327
390.77	38.422
391.13	38.162
391.49	38.832
391.85	37.174
392.20	37.666
392.56	38.131
392.92	38.493
393.28	37.515
393.64	37.890
393.99	38.546
394.35	37.841
394.71	38.206
395.07	36.573
395.42	37.577
395.78	38.295
396.14	38.237
396.50	38.158
396.85	39.479
397.21	37.608
397.57	38.004
397.92	37.921
398.28	37.444
398.64	37.814
399.00	37.605
399.35	37.902
399.71	37.616
400.07	38.261
400.42	38.098
400.78	38.058
401.14	37.866
401.49	37.851
401.85	37.931
402.21	36.048
402.57	38.186
402.92	37.453
403.28	38.913
403.63	37.871
403.99	38.408
404.35	36.485
404.70	37.590
405.06	36.750
405.42	37.991
405.77	37.486
406.13	37.302
406.49	36.901
406.84	36.680
407.20	37.057
407.55	37.907
407.91	37.933
408.27	36.886
408.62	37.086
408.98	37.868
409.34	38.130
409.69	36.903
410.05	36.617
410.40	37.003
410.76	36.380
411.11	36.610
411.47	36.102
411.83	37.935
412.18	35.374
412.54	36.862
412.89	36.205
413.25	36.600
413.60	37.492
413.96	36.248
414.31	35.844
414.67	36.122
415.03	35.960
415.38	36.662
415.74	37.235
416.09	37.296
416.45	35.944
416.80	36.219
417.16	37.399
417.51	36.364
417.87	35.710
418.22	36.467
418.58	35.959
418.93	36.118
419.29	36.155
419.64	36.272
420.00	36.098
420.35	35.826
420.71	35.864
421.06	34.368
421.42	36.491
421.77	35.426
422.12	34.812
422.48	35.456
422.83	35.644
423.19	34.917
423.54	35.229
423.90	34.841
424.25	34.618
424.61	35.119
424.96	34.810
425.31	35.161
425.67	34.045
426.02	34.057
426.38	35.409
426.73	35.225
427.09	34.590
427.44	34.215
427.79	34.330
428.15	34.286
428.50	34.055
428.85	34.148
429.21	34.125
429.56	33.644
429.92	33.770
430.27	33.317
430.62	33.231
430.98	33.887
431.33	33.660
431.68	33.508
432.04	33.653
432.39	33.981
432.74	34.051
433.10	33.729
433.45	33.878
433.80	32.982
434.16	33.333
434.51	32.895
434.86	32.839
435.22	33.407
435.57	32.948
435.92	32.475
436.28	33.986
436.63	33.444
436.98	32.398
437.34	32.558
437.69	33.664
438.04	31.984
438.39	32.119
438.75	33.353
439.10	32.346
439.45	33.530
439.81	33.233
440.16	31.959
440.51	31.752
440.86	32.079
441.22	32.147
441.57	31.847
441.92	31.064
442.27	32.185
442.63	31.385
442.98	31.380
443.33	31.413
443.68	30.408
444.03	31.576
444.39	30.088
444.74	31.277
445.09	31.051
445.44	31.001
445.79	31.420
446.15	31.339
446.50	30.479
446.85	30.113
447.20	30.648
447.55	31.491
447.91	30.557
448.26	30.774
448.61	30.639
448.96	30.233
449.31	30.315
449.66	29.938
450.02	29.248
450.37	28.968
450.72	30.175
451.07	29.677
451.42	29.058
451.77	29.595
452.12	29.446
452.47	29.540
452.83	29.138
453.18	28.729
453.53	29.314
453.88	28.234
454.23	29.050
454.58	29.194
454.93	29.243
455.28	27.868
455.63	28.459
455.98	30.774
456.34	28.706
456.69	27.927
457.04	28.978
457.39	27.411
457.74	28.613
458.09	28.292
458.44	27.651
458.79	27.115
459.14	27.709
459.49	27.729
459.84	27.313
460.19	26.694
460.54	26.447
460.89	27.098
461.24	26.897
461.59	27.193
461.94	27.682
462.29	27.656
462.64	26.803
462.99	26.155
463.34	27.800
463.69	27.267
464.04	27.188
464.39	25.507
464.74	25.609
465.09	25.392
465.44	24.931
465.79	25.615
466.14	25.068
466.49	25.640
466.84	25.044
467.19	25.226
467.54	26.000
467.89	24.130
468.24	25.189
468.59	25.580
468.94	25.535
469.29	25.578
469.64	25.569
469.99	25.169
470.34	25.165
470.68	25.934
471.03	24.490
471.38	25.990
471.73	24.250
472.08	25.000
472.43	24.874
472.78	24.226
473.13	24.519
473.48	24.345
473.83	24.024
474.17	23.398
474.52	24.007
474.87	24.343
475.22	23.215
475.57	23.751
475.92	22.995
476.27	22.435
476.61	23.111
476.96	23.529
477.31	22.501
477.66	21.663
478.01	21.485
478.36	22.581
478.70	21.599
479.05	22.737
479.40	22.620
479.75	21.861
480.10	21.918
480.45	21.133
480.79	21.214
481.14	21.380
481.49	22.307
481.84	21.308
482.19	21.308
482.53	21.239
482.88	20.847
483.23	20.935
483.58	20.655
483.92	21.462
484.27	20.174
484.62	20.776
484.97	20.221
485.31	20.274
485.66	19.322
486.01	19.105
486.36	18.418
486.70	18.759
487.05	18.742
487.40	19.433
487.75	19.195
488.09	18.835
488.44	19.646
488.79	19.313
489.13	19.213
489.48	19.372
489.83	18.602
490.17	19.860
490.52	19.531
490.87	19.177
491.22	19.009
491.56	18.952
491.91	18.706
492.26	19.522
492.60	18.986
492.95	18.335
493.30	19.299
493.64	19.085
493.99	18.384
494.34	18.918
494.68	18.956
495.03	18.656
495.37	18.288
495.72	18.665
496.07	18.469
496.41	18.142
496.76	18.426
497.11	18.730
497.45	18.444
497.80	17.946
498.14	18.116
498.49	18.341
498.84	17.929
499.18	18.095
499.53	17.616
499.87	17.568
500.22	17.852
500.56	18.010
500.91	17.548
501.26	18.018
501.60	18.367
501.95	17.507
502.29	18.416
502.64	17.691
502.98	17.859
503.33	17.550
503.67	17.401
504.02	17.633
504.36	17.127
504.71	17.440
505.06	17.108
505.40	17.890
505.75	16.827
506.09	17.104
506.44	16.872
506.78	18.071
507.13	17.062
507.47	17.020
507.82	17.123
508.16	17.072
508.51	17.504
508.85	16.385
509.19	17.245
509.54	16.939
509.88	16.899
510.23	16.915
510.57	17.234
510.92	17.090
511.26	16.341
511.61	16.753
511.95	16.597
512.30	16.543
512.64	16.335
512.98	17.203
513.33	17.024
513.67	16.862
514.02	16.342
514.36	16.603
514.70	16.713
515.05	16.062
515.39	16.657
515.74	15.766
516.08	17.049
516.42	16.593
516.77	17.168
517.11	16.426
517.46	16.986
517.80	16.086
518.14	15.518
518.49	15.869
518.83	16.591
519.17	16.570
519.52	16.016
519.86	16.030
520.20	16.763
520.55	16.457
520.89	16.849
521.23	17.069
521.58	16.267
521.92	17.085
522.26	14.765
522.61	16.573
522.95	16.943
523.29	16.068
523.64	15.488
523.98	16.389
524.32	16.466
524.66	15.815
525.01	15.686
525.35	15.985
525.69	15.209
526.04	16.199
526.38	15.924
526.72	15.460
527.06	15.443
527.41	14.851
527.75	16.334
528.09	15.414
528.43	15.743
528.78	16.042
529.12	15.091
529.46	16.779
529.80	16.027
530.15	16.262
530.49	15.877
530.83	16.266
531.17	15.862
531.51	16.667
531.86	15.161
532.20	16.232
532.54	15.823
532.88	15.340
533.22	15.553
533.57	14.753
533.91	15.834
534.25	15.614
534.59	14.765
534.93	15.526
535.27	14.363
535.62	15.324
535.96	15.380
536.30	14.685
536.64	15.518
536.98	15.660
537.32	14.352
537.66	14.933
538.01	15.734
538.35	15.579
538.69	15.380
539.03	14.685
539.37	14.824
539.71	14.193
540.05	15.229
540.39	14.751
540.73	14.748
541.07	15.055
541.42	14.677
541.76	14.968
542.10	14.942
542.44	14.636
542.78	16.337
543.12	14.587
543.46	15.475
543.80	14.769
544.14	13.607
544.48	14.476
544.82	13.278
545.16	14.249
545.50	14.396
545.84	14.651
546.18	15.219
546.52	14.109
546.86	14.227
547.20	15.442
547.54	14.562
547.88	15.816
548.22	15.131
548.56	14.277
548.90	14.789
549.24	14.007
549.58	14.802
549.92	14.423
550.26	14.347
550.60	14.592
550.94	14.437
551.28	13.826
551.62	14.522
551.96	13.754
552.30	14.403
552.64	14.199
552.98	14.373
553.32	14.498
553.66	14.860
554.00	13.246
554.34	13.803
554.68	14.449
555.02	13.540
555.36	13.848
555.69	12.855
556.03	14.805
556.37	13.915
556.71	13.370
557.05	14.076
557.39	14.626
557.73	14.185
558.07	14.866
558.41	14.110
558.75	14.181
559.08	14.392
559.42	14.135
559.76	14.044
560.10	13.847
560.44	13.906
560.78	13.906
561.12	13.522
561.45	14.081
561.79	12.920
562.13	13.414
562.47	13.456
562.81	14.156
563.15	13.378
563.48	13.329
563.82	13.633
564.16	13.277
564.50	12.695
564.84	13.148
565.17	13.256
565.51	13.291
565.85	12.817
566.19	13.150
566.52	13.300
566.86	13.020
567.20	13.384
567.54	12.158
567.88	11.841
568.21	12.540
568.55	12.892
568.89	12.062
569.23	11.943
569.56	11.903
569.90	12.075
570.24	11.159
570.57	11.833
570.91	11.441
571.25	11.303
571.59	11.429
571.92	11.204
572.26	11.150
572.60	11.471
572.93	11.124
573.27	11.713
573.61	11.390
573.95	11.137
574.28	10.578
574.62	10.471
574.96	10.705
575.29	10.645
575.63	10.747
575.97	10.831
576.30	11.179
576.64	10.286
576.98	10.452
577.31	10.444
577.65	10.836
577.98	10.555
578.32	10.504
578.66	10.692
578.99	10.819
579.33	10.433
579.67	9.900
580.00	10.477
580.34	10.726
580.67	10.541
581.01	10.704
581.35	10.186
581.68	10.136
582.02	10.023
582.35	10.018
582.69	10.460
583.02	10.379
583.36	10.514
583.70	10.689
584.03	10.711
584.37	10.883
584.70	10.502
585.04	10.690
585.37	10.555
585.71	10.291
586.04	10.268
586.38	10.502
586.72	10.798
587.05	10.378
587.39	10.185
587.72	10.539
588.06	10.646
588.39	10.700
588.73	10.766
589.06	11.000
589.40	10.943
589.73	10.560
590.07	10.819
590.40	11.290
590.73	10.851
591.07	10.948
591.40	11.261
591.74	11.861
592.07	10.995
592.41	10.872
592.74	10.936
593.08	11.059
593.41	10.408
593.75	10.369
594.08	10.325
594.41	11.099
594.75	10.795
595.08	10.809
595.42	10.998
595.75	11.218
596.09	11.641
596.42	11.709
596.75	11.186
597.09	11.082
597.42	10.497
597.75	11.082
598.09	11.435
598.42	10.696
598.76	10.661
599.09	10.528
599.42	10.080
599.76	10.652
600.09	10.601
600.42	10.263
600.76	10.464
601.09	10.528
601.42	11.187
601.76	10.361
602.09	10.593
602.42	11.107
602.76	11.125
603.09	10.110
603.42	10.777
603.76	10.709
604.09	10.896
604.42	10.355
604.76	11.388
605.09	10.616
605.42	10.603
605.75	10.886
606.09	10.329
606.42	10.666
606.75	10.245
607.09	11.386
607.42	10.355
607.75	9.705
608.08	10.378
608.42	11.206
608.75	10.730
609.08	11.286
609.41	10.376
609.75	10.719
610.08	10.697
610.41	10.149
610.74	10.927
611.07	10.672
611.41	11.187
611.74	11.111
612.07	10.766
612.40	11.228
612.73	10.684
613.07	11.261
613.40	11.585
613.73	10.907
614.06	10.591
614.39	11.589
614.72	10.895
615.06	12.080
615.39	10.722
615.72	10.634
616.05	10.845
616.38	11.284
616.71	11.223
617.05	11.366
617.38	10.944
617.71	11.592
618.04	11.779
618.37	12.005
618.70	11.823
619.03	12.303
619.36	11.405
619.69	12.324
620.03	12.363
620.36	12.366
620.69	12.877
621.02	12.463
621.35	11.276
621.68	11.682
622.01	12.229
622.34	12.103
622.67	11.711
623.00	11.519
623.33	11.294
623.66	12.580
623.99	11.119
624.32	10.556
624.65	11.864
624.99	10.623
625.32	11.441
625.65	11.946
625.98	12.145
626.31	12.908
626.64	12.327
626.97	12.053
627.30	11.305
627.63	12.305
627.96	13.288
628.29	12.423
628.62	12.534
628.95	13.868
629.28	13.047
629.61	13.749
629.94	12.571
630.26	12.488
630.59	11.821
630.92	13.602
631.25	13.031
631.58	12.713
631.91	12.779
632.24	13.291
632.57	12.382
632.90	13.268
633.23	13.423
633.56	13.446
633.89	14.270
634.22	13.280
634.55	14.438
634.88	13.772
635.20	13.501
635.53	13.735
635.86	14.851
636.19	13.882
636.52	13.264
636.85	12.486
637.18	13.710
637.51	12.884
637.83	11.961
638.16	14.066
638.49	12.972
638.82	13.906
639.15	15.500
639.48	15.711
639.81	14.611
640.13	14.193
640.46	14.497
640.79	15.192
641.12	12.380
641.45	13.547
641.77	15.022
642.10	14.912
642.43	11.862
642.76	14.087
643.09	14.417
643.41	15.630
643.74	16.358
644.07	13.872
644.40	15.337
644.73	14.961
645.05	16.957
645.38	13.744
645.71	17.552
646.04	14.286
646.36	17.195
646.69	16.388
647.02	14.626
647.35	17.182
647.67	15.575
648.00	15.935
648.33	13.366
648.66	15.000
648.98	14.843
649.31	13.901
649.64	14.649
649.96	14.754
650.29	14.534
650.62	16.667
650.94	17.018
651.27	16.723
651.60	15.141
651.92	16.294
652.25	14.984
652.58	15.732
652.90	15.640
653.23	14.176
653.56	14.646
653.88	16.323
654.21	16.746
654.54	15.677
654.86	15.109
655.19	13.514
655.52	8.428
655.84	6.989
656.17	8.873
656.49	12.041
656.82	12.417
657.15	9.464
657.47	6.950
657.80	5.395
658.13	5.723
658.45	8.492
658.78	8.720
659.10	9.091
659.43	9.224
659.75	9.960
660.08	10.696
660.41	13.222
660.73	14.358
661.06	15.127
661.38	16.000
661.71	18.269
662.03	18.738
662.36	15.507
662.68	17.871
663.01	16.162
663.33	14.013
663.66	19.538
663.98	16.631
664.31	17.227
664.63	16.599
664.96	16.097
665.28	18.238
665.61	18.324
665.93	16.901
666.26	17.850
666.58	16.527
666.91	16.068
667.23	16.180
667.56	14.903
667.88	18.590
668.21	17.484
668.53	17.354
668.86	16.017
669.18	17.697
669.50	18.696
669.83	22.876
670.15	17.556
670.48	15.033
670.80	17.672
671.13	18.047
671.45	15.319
671.77	18.941
672.10	17.190
672.42	15.371
672.75	15.589
673.07	18.134
673.39	15.552
673.72	15.234
674.04	15.686
674.37	15.922
674.69	15.337
675.01	15.690
675.34	19.097
675.66	19.368
675.98	17.719
676.31	19.328
676.63	16.985
676.95	16.771
677.28	17.056
677.60	14.725
677.92	19.620
678.25	16.838
678.57	17.928
678.89	17.234
679.22	16.110
679.54	15.458
679.86	17.982
680.18	15.921
680.51	15.071
680.83	17.438
681.15	19.623
681.48	17.391
681.80	14.313
682.12	17.816
682.44	12.959
682.77	16.293
683.09	18.240
683.41	15.965
683.73	17.439
684.06	18.595
684.38	16.438
684.70	17.636
685.02	16.510
685.34	15.385
685.67	13.811
685.99	15.120
686.31	14.676
686.63	12.898
686.96	14.643
687.28	14.440
687.60	13.406
687.92	15.539
688.24	16.730
688.56	19.076
688.89	17.842
689.21	16.376
689.53	19.415
689.85	18.625
690.17	13.251
690.49	19.321
690.82	19.626
691.14	17.634
691.46	17.300
691.78	16.265
692.10	16.736
692.42	17.365
692.74	16.390
693.06	16.596
693.39	19.097
693.71	17.904
694.03	18.105
694.35	16.234
694.67	16.247
694.99	17.805
695.31	18.627
695.63	17.703
695.95	19.560
696.27	16.751
696.59	18.653
696.91	18.394
697.23	19.249
697.56	15.991
697.88	15.133
698.20	16.458
698.52	18.495
698.84	17.149
699.16	17.512
699.48	18.527
699.80	18.841
700.12	21.558
700.44	20.424
700.76	18.508
701.08	20.402
701.40	19.832
701.72	23.324
702.04	21.875
702.36	18.414
702.68	19.263
703.00	18.283
703.32	16.489
703.64	20.375
703.96	19.220
704.28	20.058
704.60	19.941
704.91	22.255
705.23	18.768
705.55	19.934
705.87	26.246
706.19	21.201
706.51	26.791
706.83	23.030
707.15	21.849
707.47	18.182
707.79	19.410
708.11	18.721
708.43	17.857
708.74	15.051
709.06	18.961
709.38	19.423
709.70	22.093
710.02	24.036
710.34	23.333
710.66	21.791
710.98	24.432
711.29	19.767
711.61	21.534
711.93	18.590
712.25	22.186
712.57	19.485
712.89	21.107
713.20	22.796
713.52	23.684
713.84	19.937
714.16	21.951
714.48	21.264
714.80	25.228
715.11	23.343
715.43	19.881
715.75	22.319
716.07	19.808
716.39	24.138
716.70	20.266
717.02	23.022
717.34	22.261
717.66	25.000
717.97	26.295
718.29	22.593
718.61	20.438
718.93	24.632
719.24	23.529
719.56	20.339
719.88	23.390
720.20	26.689
720.51	24.390
720.83	21.190
721.15	23.881
721.46	22.340
721.78	21.864
722.10	24.151
722.42	28.195
722.73	24.719
723.05	19.262
723.37	24.291
723.68	25.483
724.00	22.764
724.32	23.790
724.63	27.642
724.95	25.105
725.27	26.316
725.58	26.953
725.90	24.818
726.22	22.264
726.53	20.486
726.85	24.232
727.16	23.488
727.48	21.986
727.80	23.485
728.11	25.725
728.43	23.462
728.74	21.147
729.06	25.182
729.38	26.838
729.69	24.911
730.01	22.184
730.32	18.403
730.64	22.742
730.96	17.162
731.27	24.834
731.59	22.936
731.90	21.574
732.22	18.944
732.53	17.337
732.85	24.679
733.16	21.865
733.48	23.256
733.80	24.026
734.11	27.389
734.43	21.302
734.74	20.857
735.06	20.057
735.37	21.387
735.69	21.975
736.00	24.183
736.32	21.495
736.63	22.045
736.95	23.642
737.26	20.068
737.58	18.065
737.89	24.415
738.21	21.843
738.52	25.000
738.83	22.264
739.15	19.231
739.46	24.818
739.78	21.528
740.09	21.231
740.41	24.194
740.72	19.512
741.04	25.185
741.35	25.833
741.66	29.333
741.98	22.642
742.29	27.751
742.61	31.897
742.92	29.864
743.23	29.060
743.55	26.000
743.86	28.509
744.18	30.973
744.49	28.230
744.80	29.108
745.12	27.727
745.43	26.432
745.74	29.279
746.06	28.440
746.37	29.148
746.68	24.887
747.00	26.852
747.31	27.619
747.62	21.239
747.94	27.753
748.25	23.830
748.56	28.634
748.88	28.713
749.19	34.000
749.50	29.767
749.82	26.829
750.13	19.592
750.44	22.993
750.75	21.053
751.07	23.473
751.38	26.481
751.69	24.188
752.01	23.684
752.32	24.549
752.63	21.277
752.94	21.311
753.26	29.200
753.57	22.358
753.88	27.734
754.19	20.714
754.51	26.736
754.82	23.105
755.13	23.396
755.44	24.436
755.75	22.628
756.07	21.986
756.38	21.168
756.69	25.503
757.00	20.659
757.31	22.849
757.63	17.836
757.94	17.426
758.25	19.363
758.56	21.481
758.87	18.280
759.18	20.909
759.50	15.987
759.81	20.872
760.12	20.000
760.43	20.344
760.74	18.478
761.05	22.599
761.36	16.043
761.67	23.295
761.99	18.323
762.30	23.611
762.61	23.282
762.92	24.609
763.23	29.412
763.54	27.200
763.85	25.391
764.16	21.923
764.47	26.236
764.78	22.261
765.10	22.468
765.41	22.714
765.72	21.856
766.03	21.944
766.34	20.333
766.65	25.532
766.96	30.342
767.27	32.995
767.58	31.250
767.89	32.105
768.20	35.632
768.51	29.949
768.82	30.275
769.13	21.951
769.44	25.506
769.75	24.034
770.06	25.229
770.37	33.032
770.68	26.389
770.99	23.111
771.30	22.951
771.61	30.045
771.92	22.131
772.23	32.773
772.54	31.795
772.85	34.555
773.16	35.638
773.47	32.609
773.78	35.025
774.09	30.357
774.39	36.842
774.70	35.185
775.01	44.928
775.32	44.444
775.63	38.158
775.94	35.252
776.25	41.732
776.56	41.045
776.87	44.262
777.18	37.500
777.48	38.931
777.79	48.485
778.10	39.259
778.41	41.071
778.72	35.036
779.03	35.570
779.34	40.268
779.65	39.189
779.95	33.129
780.26	42.484
780.57	35.172
780.88	46.094
781.19	42.105
781.50	48.649
781.80	40.252
782.11	33.898
782.42	31.013
782.73	38.037
783.04	39.189
783.34	38.732
783.65	44.521
783.96	42.537
784.27	35.664
784.57	38.849
784.88	34.259
785.19	43.651
785.50	48.113
785.81	47.015
786.11	52.459
786.42	48.062
786.73	42.478
787.04	52.830
787.34	52.679
787.65	52.000
787.96	48.649
788.26	42.149
788.57	50.847
788.88	49.587
789.19	44.444
789.49	50.758
789.80	43.511
790.11	63.810
790.41	53.465
790.72	51.807
791.03	54.348
791.33	53.488
791.64	50.515
791.95	60.396
792.25	64.444
792.56	64.935
792.87	62.821
793.17	69.620
793.48	55.172
793.79	62.069
794.09	59.091
794.40	47.059
794.70	47.794
795.01	34.074
795.32	46.043
795.62	42.520
795.93	45.690
796.23	56.637
796.54	49.412
796.85	56.757
797.15	60.563
797.46	72.727
797.76	63.855
798.07	54.430
798.37	66.154
798.68	68.182
798.99	46.479
799.29	64.935
799.60	60.227
799.90	79.452
800.21	80.597
800.51	86.207
800.82	91.228
801.12	83.607
801.43	74.242
801.73	68.919
802.04	82.540
802.34	74.074
802.65	81.250
802.95	91.525
803.26	75.000
803.56	64.286
803.87	76.923
804.17	88.235
804.48	107.407
804.78	77.586
805.09	91.176
805.39	88.462
805.70	82.143
806.00	95.082
806.30	80.303
806.61	60.976
806.91	63.291
807.22	72.368
807.52	70.149
807.83	74.648
808.13	87.500
808.43	91.667
808.74	65.789
809.04	76.812
809.35	85.075
809.65	82.895
809.95	98.387
810.26	94.915
810.56	79.365
810.86	106.818
811.17	130.952
811.47	96.667
811.77	83.333
812.08	107.273
812.38	100.000
812.69	122.222
812.99	118.182
813.29	114.286
813.59	109.524
813.90	132.653
814.20	90.909
814.50	84.615
814.81	101.471
815.11	100.000
815.41	90.164
815.72	102.381
816.02	107.273
816.32	121.429
816.62	107.500
816.93	124.390
817.23	133.333
817.53	102.273
817.84	163.636
818.14	123.913
818.44	102.222
818.74	158.824
819.04	137.500
819.35	117.143
819.65	141.176
819.95	139.286
820.25	175.000
820.56	135.897
820.86	113.636
821.16	141.860
821.46	141.026
821.76	128.000
822.07	162.857
822.37	125.000
822.67	133.333
822.97	103.922
823.27	189.286
823.57	145.946
823.88	155.000
824.18	176.667
824.48	130.952
824.78	196.000
825.08	187.500
825.38	162.162
825.69	104.878
825.99	216.667
826.29	158.621
826.59	152.632
826.89	123.684
827.19	185.294
827.49	164.516
827.79	115.909
828.09	122.727
828.39	106.383
828.70	122.449
829.00	159.259
829.30	151.613
829.60	145.000
829.90	280.000
830.20	182.143
830.50	200.000
830.80	130.435
831.10	193.333
831.40	183.333
831.70	186.957
832.00	196.154
832.30	185.185
832.60	250.000
832.90	193.333
833.20	350.000
833.50	180.645
833.80	168.966
834.10	178.125
834.40	230.769
834.70	211.111
835.00	280.952
835.30	142.857
835.60	276.923
835.90	193.103
836.20	328.571
836.50	155.172
836.80	168.000
837.10	166.667
837.40	219.048
837.70	258.824
838.00	222.222
838.30	209.524
838.60	257.143
838.90	223.077
839.19	265.000
839.49	364.286
839.79	270.000
840.09	245.000
840.39	280.952
840.69	247.826
840.99	305.556
841.29	380.000
841.59	316.667
841.88	250.000
842.18	172.414
842.48	204.762
842.78	153.333
843.08	247.826
843.38	159.375
843.68	766.667
843.97	238.462
844.27	196.552
844.57	309.524
844.87	325.000
845.17	203.704
845.47	1733.333
845.76	311.111
846.06	311.765
846.36	537.500
846.66	378.571
846.96	325.000
847.25	354.545
847.55	281.818
847.85	243.478
848.15	480.000
848.44	342.857
848.74	277.778
849.04	329.412
849.34	420.000
849.63	221.053
849.93	300.000
850.23	1040.000
850.53	371.429
850.82	2300.000
851.12	-3100.000
851.42	3200.000
851.71	255.000
852.01	-1033.333
852.31	212.500
852.61	1466.667
852.90	271.429
853.20	196.000
853.50	270.588
853.79	271.429
854.09	216.667
854.39	281.250
854.68	156.757
854.98	151.613
855.28	213.333
855.57	189.655
855.87	192.593
856.17	236.842
856.46	220.000
856.76	223.529
857.05	206.897
857.35	233.333
857.65	280.000
857.94	226.087
858.24	226.923
858.53	220.000
858.83	277.273
859.13	306.667
859.42	0.000
859.72	544.444
860.01	372.727
860.31	213.636
860.60	263.158
860.90	213.043
861.20	600.000
861.49	391.667
861.79	-3800.000
862.08	562.500
862.38	242.857
862.67	369.231
862.97	311.765
863.26	488.889
863.56	272.222
863.85	425.000
864.15	525.000
864.44	373.333
864.74	833.333
865.03	575.000
865.33	305.263
865.62	436.364
865.92	446.154
866.21	316.667
866.51	0.000
866.80	500.000
867.10	1140.000
867.39	361.538
867.69	390.909
867.98	268.421
868.27	363.636
868.57	231.579
868.86	-3100.000
869.16	318.750
869.45	2250.000
869.75	-3800.000
870.04	358.333
870.33	671.429
870.63	1025.000
870.92	2800.000
871.22	671.429
871.51	329.412
871.80	219.048
872.10	392.857
>>>>>End Processed Spectral Data<<<<<
