SpectraSuite Data File
++++++++++++++++++++++++++++++++++++
Date: Wed May 13 19:40:46 PDT 2015
User: schluterlab
Dark Spectrum Present: Yes
Reference Spectrum Present: Yes
Number of Sampled Component Spectra: 1
Spectrometers: USB2E3373
Integration Time (usec): 3000 (USB2E3373)
Spectra Averaged: 3 (USB2E3373)
Boxcar Smoothing: 0 (USB2E3373)
Correct for Electrical Dark: No (USB2E3373)
Strobe/Lamp Enabled: No (USB2E3373)
Correct for Detector Non-linearity: No (USB2E3373)
Correct for Stray Light: No (USB2E3373)
Number of Pixels in Processed Spectrum: 2048
>>>>>Begin Processed Spectral Data<<<<<
178.53	0.000
178.91	-1400.000
179.29	-1150.000
179.67	-288.889
180.04	-1525.000
180.42	2950.000
180.80	1020.000
181.18	-1225.000
181.56	671.429
181.94	0.000
182.31	-585.714
182.69	1666.667
183.07	-637.500
183.45	-622.222
183.83	590.909
184.20	-450.000
184.58	2400.000
184.96	4400.000
185.34	-1060.000
185.72	-687.500
186.09	-2200.000
186.47	2550.000
186.85	2900.000
187.23	5200.000
187.61	-1900.000
187.98	1350.000
188.36	536.364
188.74	563.636
189.12	-1060.000
189.49	610.000
189.87	-5400.000
190.25	-1525.000
190.63	421.429
191.00	392.308
191.38	766.667
191.76	-1250.000
192.14	1350.000
192.51	562.500
192.89	983.333
193.27	725.000
193.65	-1175.000
194.02	530.000
194.40	980.000
194.78	550.000
195.15	533.333
195.53	750.000
195.91	-2200.000
196.29	406.250
196.66	315.789
197.04	-410.000
197.42	0.000
197.79	730.000
198.17	-5800.000
198.55	771.429
198.92	750.000
199.30	1200.000
199.68	0.000
200.05	372.222
200.43	828.571
200.81	4500.000
201.18	1800.000
201.56	-1566.667
201.94	666.667
202.31	633.333
202.69	441.667
203.07	640.000
203.44	0.000
203.82	1275.000
204.19	771.429
204.57	457.143
204.95	575.000
205.32	1766.667
205.70	518.182
206.08	421.429
206.45	3100.000
206.83	412.500
207.20	850.000
207.58	940.000
207.96	338.889
208.33	837.500
208.71	-766.667
209.08	871.429
209.46	677.778
209.84	463.636
210.21	-1666.667
210.59	1425.000
210.96	-575.000
211.34	3050.000
211.71	550.000
212.09	933.333
212.46	0.000
212.84	1800.000
213.22	1200.000
213.59	-4900.000
213.97	983.333
214.34	942.857
214.72	590.909
215.09	1060.000
215.47	-2650.000
215.84	-2900.000
216.22	1633.333
216.59	407.143
216.97	1375.000
217.34	436.364
217.72	-733.333
218.09	0.000
218.47	-4500.000
218.84	588.889
219.22	800.000
219.59	1633.333
219.97	-685.714
220.34	960.000
220.72	-1666.667
221.09	392.857
221.47	1500.000
221.84	-800.000
222.22	0.000
222.59	1250.000
222.97	-2450.000
223.34	1140.000
223.72	423.077
224.09	1140.000
224.46	2050.000
224.84	-4800.000
225.21	-1080.000
225.59	-4900.000
225.96	680.000
226.34	295.000
226.71	2900.000
227.08	712.500
227.46	540.000
227.83	-1000.000
228.21	-2500.000
228.58	622.222
228.95	-2750.000
229.33	-2350.000
229.70	1833.333
230.08	728.571
230.45	-940.000
230.82	416.667
231.20	866.667
231.57	685.714
231.95	433.333
232.32	209.091
232.69	409.091
233.07	671.429
233.44	384.615
233.81	-1566.667
234.19	263.158
234.56	400.000
234.93	358.333
235.31	427.273
235.68	338.462
236.05	364.286
236.43	172.727
236.80	268.421
237.17	3600.000
237.55	242.857
237.92	217.857
238.29	228.571
238.67	170.968
239.04	182.759
239.41	147.222
239.79	128.261
240.16	145.238
240.53	97.727
240.91	86.275
241.28	100.000
241.65	88.000
242.02	71.014
242.40	87.097
242.77	70.000
243.14	70.968
243.51	60.674
243.89	56.471
244.26	52.222
244.63	56.989
245.00	47.872
245.38	46.535
245.75	44.860
246.12	41.284
246.49	44.526
246.87	52.800
247.24	42.308
247.61	38.571
247.98	37.908
248.36	22.973
248.73	31.210
249.10	42.038
249.47	29.379
249.84	35.294
250.22	24.064
250.59	28.994
250.96	27.273
251.33	30.806
251.70	26.238
252.08	28.095
252.45	24.664
252.82	26.522
253.19	23.830
253.56	22.353
253.94	25.726
254.31	19.141
254.68	24.231
255.05	21.402
255.42	20.325
255.79	20.588
256.16	22.022
256.54	20.495
256.91	22.420
257.28	11.151
257.65	15.512
258.02	21.118
258.39	18.297
258.76	14.716
259.14	18.155
259.51	15.805
259.88	13.975
260.25	16.314
260.62	17.630
260.99	12.733
261.36	17.417
261.73	14.900
262.10	14.535
262.47	16.901
262.85	16.992
263.22	13.960
263.59	14.815
263.96	13.187
264.33	14.360
264.70	14.211
265.07	14.322
265.44	13.636
265.81	14.112
266.18	13.317
266.55	12.927
266.92	15.725
267.29	13.426
267.66	13.073
268.03	12.955
268.40	12.617
268.77	9.308
269.14	10.360
269.51	13.544
269.88	11.189
270.25	10.835
270.62	11.910
270.99	16.344
271.36	13.305
271.73	10.280
272.10	11.957
272.47	14.409
272.84	12.554
273.21	14.256
273.58	9.607
273.95	10.692
274.32	9.711
274.69	9.422
275.06	11.811
275.43	9.149
275.80	11.623
276.17	10.183
276.54	12.890
276.91	13.043
277.28	11.133
277.65	11.412
278.02	9.524
278.39	10.742
278.76	11.636
279.13	12.264
279.50	11.732
279.87	9.562
280.23	10.978
280.60	8.317
280.97	9.242
281.34	11.150
281.71	11.636
282.08	8.829
282.45	9.273
282.82	11.723
283.19	6.595
283.56	8.947
283.92	10.829
284.29	10.229
284.66	11.252
285.03	9.222
285.40	8.451
285.77	8.418
286.14	8.636
286.51	11.333
286.87	8.718
287.24	10.423
287.61	7.865
287.98	8.766
288.35	8.399
288.72	8.723
289.08	9.077
289.45	9.061
289.82	8.943
290.19	7.692
290.56	7.963
290.93	7.251
291.29	6.902
291.66	10.177
292.03	10.465
292.40	9.251
292.77	7.988
293.13	7.761
293.50	8.163
293.87	8.000
294.24	6.815
294.60	7.424
294.97	8.866
295.34	9.168
295.71	7.528
296.08	7.835
296.44	7.015
296.81	8.587
297.18	8.808
297.55	5.145
297.91	7.520
298.28	7.497
298.65	7.963
299.02	7.510
299.38	7.437
299.75	4.582
300.12	5.492
300.48	6.875
300.85	6.905
301.22	6.369
301.59	6.313
301.95	7.179
302.32	7.189
302.69	7.646
303.05	5.576
303.42	7.160
303.79	6.682
304.15	5.012
304.52	6.489
304.89	5.691
305.25	5.452
305.62	7.361
305.99	6.494
306.35	6.600
306.72	5.381
307.09	7.436
307.45	7.207
307.82	4.464
308.19	5.629
308.55	5.933
308.92	6.552
309.29	5.702
309.65	5.726
310.02	5.603
310.38	5.591
310.75	7.181
311.12	6.653
311.48	7.106
311.85	7.338
312.22	6.035
312.58	5.925
312.95	5.702
313.31	5.728
313.68	5.405
314.05	7.692
314.41	6.834
314.78	6.546
315.14	5.760
315.51	6.076
315.87	5.743
316.24	6.455
316.61	6.530
316.97	6.067
317.34	4.795
317.70	5.832
318.07	5.582
318.43	5.871
318.80	6.654
319.16	6.403
319.53	5.722
319.89	6.571
320.26	6.900
320.62	6.647
320.99	7.374
321.35	5.657
321.72	7.392
322.08	6.811
322.45	7.662
322.81	7.558
323.18	6.936
323.54	6.865
323.91	7.830
324.27	7.170
324.64	6.337
325.00	6.222
325.37	7.916
325.73	8.618
326.10	7.149
326.46	6.272
326.83	6.816
327.19	7.686
327.56	6.707
327.92	6.912
328.29	6.832
328.65	7.827
329.01	6.679
329.38	7.031
329.74	7.018
330.11	6.692
330.47	8.173
330.84	8.364
331.20	7.650
331.56	7.982
331.93	7.407
332.29	7.365
332.66	7.788
333.02	7.861
333.38	8.491
333.75	8.289
334.11	7.473
334.48	8.252
334.84	6.893
335.20	7.818
335.57	6.890
335.93	7.500
336.29	7.509
336.66	8.747
337.02	6.606
337.38	8.519
337.75	7.130
338.11	6.625
338.47	7.366
338.84	8.066
339.20	7.156
339.56	8.029
339.93	6.545
340.29	6.522
340.65	8.289
341.02	7.766
341.38	7.295
341.74	6.316
342.11	7.773
342.47	7.401
342.83	7.449
343.20	7.359
343.56	7.161
343.92	6.754
344.28	7.058
344.65	7.395
345.01	6.987
345.37	7.547
345.73	6.853
346.10	7.587
346.46	6.780
346.82	7.578
347.19	6.516
347.55	6.486
347.91	7.201
348.27	7.642
348.63	7.525
349.00	6.472
349.36	7.225
349.72	7.298
350.08	6.564
350.45	7.160
350.81	6.418
351.17	7.618
351.53	6.716
351.89	5.941
352.26	8.051
352.62	7.859
352.98	7.050
353.34	7.067
353.70	6.137
354.07	5.968
354.43	6.905
354.79	6.195
355.15	6.225
355.51	7.274
355.87	6.531
356.24	6.596
356.60	6.014
356.96	6.275
357.32	6.378
357.68	6.929
358.04	7.522
358.40	7.047
358.77	6.260
359.13	5.919
359.49	6.431
359.85	5.873
360.21	5.662
360.57	7.315
360.93	6.769
361.29	6.198
361.66	6.037
362.02	6.343
362.38	6.616
362.74	6.473
363.10	6.514
363.46	5.943
363.82	5.291
364.18	7.489
364.54	6.984
364.90	7.011
365.26	6.838
365.62	6.136
365.98	5.917
366.35	5.158
366.71	7.375
367.07	5.608
367.43	5.588
367.79	6.924
368.15	6.825
368.51	5.887
368.87	6.067
369.23	6.072
369.59	6.010
369.95	4.926
370.31	7.051
370.67	6.594
371.03	6.816
371.39	5.685
371.75	6.250
372.11	6.615
372.47	6.891
372.83	6.916
373.19	5.997
373.55	6.504
373.91	6.775
374.27	5.911
374.63	5.673
374.99	6.780
375.35	5.932
375.71	7.265
376.07	6.516
376.42	5.846
376.78	6.494
377.14	6.038
377.50	6.358
377.86	5.120
378.22	6.195
378.58	4.887
378.94	5.908
379.30	5.216
379.66	5.330
380.02	6.572
380.38	5.282
380.74	5.282
381.09	6.174
381.45	6.085
381.81	5.835
382.17	5.796
382.53	5.472
382.89	5.556
383.25	5.378
383.61	6.134
383.97	6.129
384.32	5.427
384.68	5.452
385.04	5.900
385.40	5.449
385.76	5.221
386.12	5.246
386.48	5.979
386.83	6.479
387.19	6.246
387.55	5.442
387.91	5.623
388.27	5.150
388.62	5.962
388.98	5.160
389.34	6.383
389.70	6.315
390.06	6.401
390.42	5.966
390.77	6.361
391.13	5.616
391.49	5.901
391.85	5.156
392.20	5.047
392.56	5.303
392.92	5.768
393.28	4.379
393.64	5.875
393.99	6.048
394.35	5.273
394.71	6.211
395.07	5.483
395.42	5.748
395.78	5.852
396.14	5.835
396.50	6.015
396.85	6.294
397.21	5.857
397.57	5.022
397.92	5.409
398.28	5.381
398.64	5.795
399.00	5.596
399.35	4.681
399.71	5.613
400.07	6.209
400.42	6.196
400.78	6.031
401.14	5.366
401.49	5.970
401.85	4.840
402.21	5.389
402.57	4.935
402.92	5.359
403.28	5.871
403.63	5.260
403.99	4.331
404.35	5.697
404.70	4.976
405.06	4.426
405.42	5.490
405.77	4.857
406.13	5.079
406.49	5.441
406.84	5.198
407.20	4.905
407.55	6.190
407.91	5.733
408.27	5.233
408.62	6.081
408.98	5.147
409.34	5.412
409.69	5.032
410.05	5.019
410.40	5.933
410.76	5.376
411.11	5.549
411.47	4.792
411.83	5.192
412.18	4.576
412.54	5.106
412.89	5.843
413.25	4.959
413.60	5.188
413.96	4.797
414.31	5.103
414.67	5.450
415.03	4.106
415.38	5.026
415.74	5.338
416.09	5.421
416.45	5.422
416.80	5.882
417.16	5.898
417.51	5.574
417.87	4.945
418.22	5.931
418.58	5.165
418.93	5.221
419.29	5.729
419.64	6.486
420.00	5.000
420.35	6.029
420.71	5.619
421.06	5.191
421.42	5.439
421.77	5.157
422.12	4.716
422.48	3.508
422.83	5.067
423.19	5.746
423.54	4.759
423.90	5.043
424.25	4.858
424.61	5.119
424.96	4.898
425.31	5.316
425.67	5.000
426.02	4.571
426.38	5.495
426.73	4.681
427.09	5.350
427.44	4.600
427.79	4.773
428.15	5.893
428.50	5.793
428.85	5.662
429.21	4.804
429.56	4.925
429.92	5.234
430.27	5.114
430.62	4.916
430.98	5.086
431.33	5.412
431.68	4.660
432.04	5.591
432.39	5.083
432.74	4.847
433.10	5.037
433.45	4.840
433.80	5.100
434.16	5.235
434.51	5.474
434.86	4.903
435.22	5.670
435.57	4.681
435.92	5.149
436.28	4.745
436.63	5.795
436.98	4.865
437.34	5.725
437.69	5.426
438.04	4.947
438.39	4.955
438.75	6.101
439.10	4.804
439.45	5.254
439.81	5.740
440.16	4.912
440.51	5.272
440.86	5.906
441.22	5.172
441.57	5.573
441.92	4.555
442.27	4.682
442.63	5.003
442.98	5.803
443.33	5.543
443.68	4.853
444.03	5.271
444.39	4.576
444.74	5.465
445.09	4.960
445.44	4.593
445.79	4.948
446.15	5.400
446.50	5.008
446.85	5.036
447.20	5.201
447.55	5.416
447.91	5.240
448.26	5.565
448.61	5.427
448.96	5.980
449.31	5.737
449.66	5.008
450.02	4.735
450.37	4.932
450.72	4.907
451.07	5.058
451.42	5.046
451.77	6.107
452.12	6.005
452.47	5.846
452.83	5.128
453.18	5.746
453.53	5.566
453.88	5.316
454.23	5.678
454.58	6.299
454.93	6.167
455.28	5.798
455.63	5.765
455.98	6.369
456.34	5.653
456.69	5.823
457.04	5.449
457.39	5.611
457.74	5.920
458.09	5.463
458.44	5.986
458.79	4.338
459.14	6.208
459.49	5.896
459.84	5.319
460.19	5.421
460.54	5.440
460.89	5.760
461.24	5.282
461.59	6.915
461.94	5.487
462.29	5.994
462.64	5.552
462.99	5.270
463.34	6.800
463.69	6.066
464.04	6.029
464.39	6.725
464.74	6.001
465.09	5.790
465.44	5.983
465.79	4.922
466.14	5.857
466.49	5.061
466.84	5.137
467.19	5.975
467.54	6.562
467.89	5.882
468.24	6.399
468.59	6.532
468.94	6.109
469.29	6.041
469.64	6.760
469.99	5.683
470.34	5.812
470.68	6.897
471.03	5.986
471.38	5.281
471.73	6.262
472.08	6.053
472.43	5.905
472.78	5.793
473.13	5.905
473.48	5.930
473.83	5.732
474.17	6.036
474.52	6.017
474.87	6.188
475.22	6.210
475.57	6.233
475.92	4.833
476.27	6.088
476.61	5.516
476.96	4.948
477.31	4.762
477.66	5.580
478.01	5.018
478.36	5.447
478.70	5.400
479.05	5.698
479.40	5.783
479.75	5.491
480.10	4.970
480.45	4.760
480.79	5.447
481.14	5.431
481.49	4.888
481.84	4.618
482.19	4.998
482.53	5.367
482.88	5.351
483.23	5.093
483.58	5.323
483.92	5.201
484.27	4.052
484.62	4.871
484.97	4.336
485.31	4.623
485.66	3.835
486.01	3.519
486.36	3.416
486.70	3.459
487.05	3.541
487.40	3.524
487.75	3.888
488.09	4.155
488.44	3.702
488.79	4.846
489.13	4.813
489.48	4.486
489.83	4.532
490.17	4.428
490.52	5.004
490.87	4.930
491.22	4.684
491.56	4.465
491.91	5.212
492.26	4.869
492.60	4.931
492.95	4.537
493.30	5.093
493.64	4.993
493.99	4.689
494.34	5.088
494.68	5.220
495.03	5.028
495.37	5.444
495.72	5.068
496.07	4.269
496.41	4.513
496.76	4.354
497.11	4.953
497.45	5.170
497.80	4.894
498.14	4.638
498.49	4.293
498.84	5.513
499.18	4.810
499.53	4.748
499.87	4.846
500.22	4.852
500.56	5.146
500.91	4.471
501.26	4.694
501.60	5.695
501.95	4.629
502.29	5.342
502.64	4.842
502.98	4.675
503.33	4.570
503.67	5.104
504.02	4.677
504.36	5.615
504.71	5.032
505.06	5.108
505.40	4.764
505.75	4.822
506.09	5.005
506.44	5.081
506.78	5.017
507.13	5.401
507.47	5.152
507.82	4.965
508.16	5.268
508.51	4.718
508.85	5.015
509.19	5.357
509.54	5.153
509.88	4.997
510.23	5.039
510.57	5.676
510.92	5.230
511.26	5.344
511.61	5.913
511.95	5.063
512.30	4.507
512.64	5.857
512.98	5.466
513.33	6.156
513.67	4.963
514.02	5.519
514.36	5.188
514.70	5.147
515.05	4.462
515.39	5.384
515.74	5.687
516.08	5.646
516.42	6.493
516.77	5.518
517.11	5.771
517.46	5.756
517.80	5.807
518.14	4.806
518.49	6.826
518.83	6.193
519.17	6.062
519.52	5.320
519.86	5.077
520.20	6.532
520.55	5.685
520.89	6.204
521.23	6.212
521.58	5.822
521.92	6.369
522.26	5.003
522.61	5.483
522.95	5.832
523.29	5.660
523.64	6.280
523.98	5.422
524.32	5.850
524.66	6.554
525.01	6.311
525.35	5.081
525.69	5.911
526.04	6.231
526.38	5.979
526.72	5.276
527.06	6.340
527.41	5.693
527.75	6.431
528.09	6.230
528.43	5.672
528.78	6.638
529.12	5.939
529.46	5.879
529.80	6.002
530.15	6.044
530.49	5.908
530.83	5.823
531.17	6.136
531.51	7.004
531.86	6.000
532.20	6.780
532.54	6.214
532.88	6.290
533.22	5.934
533.57	6.049
533.91	6.382
534.25	5.893
534.59	5.979
534.93	6.008
535.27	6.880
535.62	6.227
535.96	6.152
536.30	6.167
536.64	6.182
536.98	6.370
537.32	6.781
537.66	5.800
538.01	6.452
538.35	6.076
538.69	6.701
539.03	5.978
539.37	5.942
539.71	5.055
540.05	5.948
540.39	5.316
540.73	6.210
541.07	6.879
541.42	6.327
541.76	6.452
542.10	6.727
542.44	6.358
542.78	5.731
543.12	5.758
543.46	6.754
543.80	6.506
544.14	5.006
544.48	6.222
544.82	5.901
545.16	6.246
545.50	5.848
545.84	5.914
546.18	6.195
546.52	6.882
546.86	5.842
547.20	6.676
547.54	6.212
547.88	7.015
548.22	5.791
548.56	5.849
548.90	5.762
549.24	5.320
549.58	6.821
549.92	6.868
550.26	6.179
550.60	6.362
550.94	5.634
551.28	5.633
551.62	7.045
551.96	5.754
552.30	6.689
552.64	6.220
552.98	6.034
553.32	7.417
553.66	7.566
554.00	6.932
554.34	6.211
554.68	7.082
555.02	6.488
555.36	6.193
555.69	6.022
556.03	6.393
556.37	6.276
556.71	5.730
557.05	7.283
557.39	6.508
557.73	6.493
558.07	6.091
558.41	6.368
558.75	6.980
559.08	6.861
559.42	5.442
559.76	6.250
560.10	6.210
560.44	6.010
560.78	5.855
561.12	6.201
561.45	5.737
561.79	6.131
562.13	6.237
562.47	6.011
562.81	5.370
563.15	6.488
563.48	6.698
563.82	5.871
564.16	5.821
564.50	5.078
564.84	5.752
565.17	6.242
565.51	6.390
565.85	6.282
566.19	6.324
566.52	5.953
566.86	5.726
567.20	6.309
567.54	5.308
567.88	5.215
568.21	5.556
568.55	5.915
568.89	5.496
569.23	4.679
569.56	5.304
569.90	4.642
570.24	4.665
570.57	4.352
570.91	4.137
571.25	4.107
571.59	4.330
571.92	3.975
572.26	4.217
572.60	4.084
572.93	4.378
573.27	4.614
573.61	4.132
573.95	4.160
574.28	4.045
574.62	3.693
574.96	3.847
575.29	3.831
575.63	4.268
575.97	3.879
576.30	4.116
576.64	3.917
576.98	3.646
577.31	3.951
577.65	3.670
577.98	3.820
578.32	3.475
578.66	3.878
578.99	3.743
579.33	3.534
579.67	3.576
580.00	3.836
580.34	3.939
580.67	3.687
581.01	3.778
581.35	3.539
581.68	3.441
582.02	3.481
582.35	3.580
582.69	3.809
583.02	3.683
583.36	4.081
583.70	4.021
584.03	3.762
584.37	4.348
584.70	4.049
585.04	4.134
585.37	4.264
585.71	4.135
586.04	4.180
586.38	4.075
586.72	4.419
587.05	3.695
587.39	3.747
587.72	4.432
588.06	4.055
588.39	4.417
588.73	4.224
589.06	4.581
589.40	4.310
589.73	4.189
590.07	4.698
590.40	4.092
590.73	4.567
591.07	5.088
591.40	4.513
591.74	5.671
592.07	5.148
592.41	5.581
592.74	4.757
593.08	4.564
593.41	4.556
593.75	4.685
594.08	4.425
594.41	5.055
594.75	4.473
595.08	4.724
595.42	4.413
595.75	4.665
596.09	5.182
596.42	4.990
596.75	5.403
597.09	5.411
597.42	4.595
597.75	5.692
598.09	5.217
598.42	5.369
598.76	4.580
599.09	4.447
599.42	4.876
599.76	4.758
600.09	4.517
600.42	4.529
600.76	4.393
601.09	4.809
601.42	4.680
601.76	4.972
602.09	5.138
602.42	5.255
602.76	5.159
603.09	4.957
603.42	5.193
603.76	4.726
604.09	4.808
604.42	4.770
604.76	5.441
605.09	5.068
605.42	4.874
605.75	5.132
606.09	4.433
606.42	4.781
606.75	5.558
607.09	5.232
607.42	4.579
607.75	5.485
608.08	4.820
608.42	5.334
608.75	5.365
609.08	4.949
609.41	5.283
609.75	5.717
610.08	5.090
610.41	4.888
610.74	4.541
611.07	5.632
611.41	5.496
611.74	5.732
612.07	5.849
612.40	6.243
612.73	5.158
613.07	5.765
613.40	5.951
613.73	5.034
614.06	5.860
614.39	5.926
614.72	6.421
615.06	5.725
615.39	5.308
615.72	6.033
616.05	4.997
616.38	5.614
616.71	6.473
617.05	6.184
617.38	5.713
617.71	6.667
618.04	6.070
618.37	5.677
618.70	6.534
619.03	6.447
619.36	6.178
619.69	7.113
620.03	7.143
620.36	6.751
620.69	7.397
621.02	7.080
621.35	6.969
621.68	6.464
622.01	6.966
622.34	8.245
622.67	7.148
623.00	6.823
623.33	6.219
623.66	7.076
623.99	6.701
624.32	6.348
624.65	6.568
624.99	5.666
625.32	6.372
625.65	7.438
625.98	7.686
626.31	7.543
626.64	8.245
626.97	7.731
627.30	7.481
627.63	8.285
627.96	7.149
628.29	7.874
628.62	8.234
628.95	9.245
629.28	8.577
629.61	8.066
629.94	7.238
630.26	7.436
630.59	7.912
630.92	7.663
631.25	7.108
631.58	9.009
631.91	8.418
632.24	8.122
632.57	9.129
632.90	7.018
633.23	9.620
633.56	8.362
633.89	9.173
634.22	8.740
634.55	9.349
634.88	8.862
635.20	8.961
635.53	8.313
635.86	8.416
636.19	9.294
636.52	9.689
636.85	8.820
637.18	8.871
637.51	10.875
637.83	8.261
638.16	7.801
638.49	9.320
638.82	10.872
639.15	9.750
639.48	9.850
639.81	10.992
640.13	9.896
640.46	10.067
640.79	11.229
641.12	8.253
641.45	10.196
641.77	9.573
642.10	9.503
642.43	10.661
642.76	11.300
643.09	11.656
643.41	9.863
643.74	11.420
644.07	9.909
644.40	11.963
644.73	12.913
645.05	13.629
645.38	10.585
645.71	10.789
646.04	10.963
646.36	13.856
646.69	12.876
647.02	11.054
647.35	12.371
647.67	12.920
648.00	12.520
648.33	11.221
648.66	11.364
648.98	11.994
649.31	8.819
649.64	11.510
649.96	9.687
650.29	11.374
650.62	10.194
650.94	11.345
651.27	12.669
651.60	10.815
651.92	11.981
652.25	8.958
652.58	10.592
652.90	12.006
653.23	11.402
653.56	9.764
653.88	9.350
654.21	11.848
654.54	11.881
654.86	10.592
655.19	9.054
655.52	5.260
655.84	3.108
656.17	3.524
656.49	4.675
656.82	4.770
657.15	3.918
657.47	2.851
657.80	2.188
658.13	2.296
658.45	3.970
658.78	3.910
659.10	4.466
659.43	4.323
659.75	5.404
660.08	5.696
660.41	7.728
660.73	9.530
661.06	9.713
661.38	13.636
661.71	11.538
662.03	14.596
662.36	11.531
662.68	12.450
663.01	10.909
663.33	11.465
663.66	14.916
663.98	11.879
664.31	12.605
664.63	11.741
664.96	12.475
665.28	13.934
665.61	12.671
665.93	11.871
666.26	11.156
666.58	12.343
666.91	15.433
667.23	16.404
667.56	15.119
667.88	16.667
668.21	14.712
668.53	15.401
668.86	13.420
669.18	14.712
669.50	13.478
669.83	16.340
670.15	14.222
670.48	15.904
670.80	16.595
671.13	15.074
671.45	12.979
671.77	13.238
672.10	13.124
672.42	10.601
672.75	11.277
673.07	11.796
673.39	10.850
673.72	13.672
674.04	13.137
674.37	12.816
674.69	11.656
675.01	11.925
675.34	14.579
675.66	14.105
675.98	14.460
676.31	15.126
676.63	15.924
676.95	14.046
677.28	10.748
677.60	14.066
677.92	15.612
678.25	13.142
678.57	14.542
678.89	13.026
679.22	11.984
679.54	13.740
679.86	13.211
680.18	11.986
680.51	13.475
680.83	11.388
681.15	13.774
681.48	12.476
681.80	12.959
682.12	13.218
682.44	11.412
682.77	14.460
683.09	15.236
683.41	12.417
683.73	15.453
684.06	14.669
684.38	14.481
684.70	12.209
685.02	12.946
685.34	11.538
685.67	12.413
685.99	13.058
686.31	10.922
686.63	8.834
686.96	9.821
687.28	12.816
687.60	11.051
687.92	13.711
688.24	13.308
688.56	13.855
688.89	15.353
689.21	14.192
689.53	13.987
689.85	13.082
690.17	13.251
690.49	16.561
690.82	12.617
691.14	12.946
691.46	13.502
691.78	15.060
692.10	14.050
692.42	14.770
692.74	13.693
693.06	12.553
693.39	13.552
693.71	11.790
694.03	14.105
694.35	16.883
694.67	14.416
694.99	17.073
695.31	12.010
695.63	11.962
695.95	14.181
696.27	13.198
696.59	15.544
696.91	13.731
697.23	12.207
697.56	14.499
697.88	11.861
698.20	15.000
698.52	11.828
698.84	13.808
699.16	15.438
699.48	14.252
699.80	14.010
700.12	17.143
700.44	19.363
700.76	15.746
701.08	16.092
701.40	17.318
701.72	18.950
702.04	21.875
702.36	16.147
702.68	17.280
703.00	18.283
703.32	17.287
703.64	13.405
703.96	16.992
704.28	16.860
704.60	18.182
704.91	19.288
705.23	19.648
705.55	19.601
705.87	21.927
706.19	16.254
706.51	19.003
706.83	17.576
707.15	18.768
707.47	15.404
707.79	15.479
708.11	16.438
708.43	15.000
708.74	17.092
709.06	18.961
709.38	18.635
709.70	18.314
710.02	21.958
710.34	13.030
710.66	17.910
710.98	18.466
711.29	18.314
711.61	20.354
711.93	16.987
712.25	24.116
712.57	17.279
712.89	21.107
713.20	21.581
713.52	23.026
713.84	18.038
714.16	19.512
714.48	17.529
714.80	19.149
715.11	14.697
715.43	16.617
715.75	20.870
716.07	19.808
716.39	21.630
716.70	22.924
717.02	25.540
717.34	23.322
717.66	23.507
717.97	27.888
718.29	22.593
718.61	20.803
718.93	23.162
719.24	20.069
719.56	21.356
719.88	21.017
720.20	26.014
720.51	23.345
720.83	22.677
721.15	20.522
721.46	18.085
721.78	24.014
722.10	21.132
722.42	22.556
722.73	22.472
723.05	20.082
723.37	21.862
723.68	26.641
724.00	21.138
724.32	25.806
724.63	24.390
724.95	21.339
725.27	23.077
725.58	25.000
725.90	27.372
726.22	21.132
726.53	19.444
726.85	24.232
727.16	21.708
727.48	22.340
727.80	23.864
728.11	18.116
728.43	22.692
728.74	20.789
729.06	25.547
729.38	25.000
729.69	22.064
730.01	19.795
730.32	23.264
730.64	20.736
730.96	19.142
731.27	22.185
731.59	18.349
731.90	19.534
732.22	17.081
732.53	20.124
732.85	19.551
733.16	20.257
733.48	18.937
733.80	19.805
734.11	22.611
734.43	20.414
734.74	16.000
735.06	15.759
735.37	20.231
735.69	19.427
736.00	23.203
736.32	19.626
736.63	17.572
736.95	22.045
737.26	14.286
737.58	15.484
737.89	21.739
738.21	20.478
738.52	22.500
738.83	19.245
739.15	21.154
739.46	21.898
739.78	22.222
740.09	22.769
740.41	21.935
740.72	19.861
741.04	19.259
741.35	20.833
741.66	33.333
741.98	19.811
742.29	28.230
742.61	27.155
742.92	23.077
743.23	22.222
743.55	28.400
743.86	27.193
744.18	32.301
744.49	29.187
744.80	28.638
745.12	30.455
745.43	25.110
745.74	28.829
746.06	31.193
746.37	27.803
746.68	27.602
747.00	28.241
747.31	24.762
747.62	21.681
747.94	25.551
748.25	24.681
748.56	30.396
748.88	26.238
749.19	33.500
749.50	24.186
749.82	26.016
750.13	14.286
750.44	19.708
750.75	23.860
751.07	25.080
751.38	17.422
751.69	20.939
752.01	24.060
752.32	20.217
752.63	23.050
752.94	17.623
753.26	28.000
753.57	23.171
753.88	24.219
754.19	24.643
754.51	25.000
754.82	20.578
755.13	26.038
755.44	22.556
755.75	20.803
756.07	20.213
756.38	22.993
756.69	20.134
757.00	18.563
757.31	18.101
757.63	16.959
757.94	17.962
758.25	17.892
758.56	18.272
758.87	18.548
759.18	20.909
759.50	18.495
759.81	19.315
760.12	16.875
760.43	21.203
760.74	18.478
761.05	20.056
761.36	17.380
761.67	18.466
761.99	17.081
762.30	23.611
762.61	24.046
762.92	26.172
763.23	22.689
763.54	27.200
763.85	19.922
764.16	21.538
764.47	23.954
764.78	18.728
765.10	18.038
765.41	21.829
765.72	18.563
766.03	21.317
766.34	18.667
766.65	22.553
766.96	24.786
767.27	29.949
767.58	33.333
767.89	38.421
768.20	30.460
768.51	26.396
768.82	29.817
769.13	25.203
769.44	23.077
769.75	22.318
770.06	22.477
770.37	28.054
770.68	28.704
770.99	28.444
771.30	21.721
771.61	28.251
771.92	28.689
772.23	28.992
772.54	27.692
772.85	28.272
773.16	31.915
773.47	34.783
773.78	35.025
774.09	36.310
774.39	33.333
774.70	33.951
775.01	44.928
775.32	43.137
775.63	40.132
775.94	42.446
776.25	41.732
776.56	35.821
776.87	45.082
777.18	42.969
777.48	40.458
777.79	47.727
778.10	42.963
778.41	51.786
778.72	40.146
779.03	44.295
779.34	32.886
779.65	41.892
779.95	39.264
780.26	35.294
780.57	38.621
780.88	56.250
781.19	36.090
781.50	40.541
781.80	35.849
782.11	28.814
782.42	33.544
782.73	36.196
783.04	35.811
783.34	41.549
783.65	42.466
783.96	41.045
784.27	37.063
784.57	39.568
784.88	48.148
785.19	54.762
785.50	48.113
785.81	46.269
786.11	55.738
786.42	46.512
786.73	43.363
787.04	55.660
787.34	47.321
787.65	67.000
787.96	48.649
788.26	49.587
788.57	47.458
788.88	56.198
789.19	52.083
789.49	48.485
789.80	48.092
790.11	59.048
790.41	68.317
790.72	66.265
791.03	53.261
791.33	61.628
791.64	58.763
791.95	65.347
792.25	72.222
792.56	74.026
792.87	82.051
793.17	72.152
793.48	72.414
793.79	54.023
794.09	68.182
794.40	50.420
794.70	51.471
795.01	36.296
795.32	43.885
795.62	42.520
795.93	43.103
796.23	40.708
796.54	47.059
796.85	68.919
797.15	84.507
797.46	68.182
797.76	80.723
798.07	74.684
798.37	66.154
798.68	72.727
798.99	70.423
799.29	68.831
799.60	73.864
799.90	65.753
800.21	88.060
800.51	86.207
800.82	108.772
801.12	81.967
801.43	86.364
801.73	75.676
802.04	82.540
802.34	82.716
802.65	93.750
802.95	86.441
803.26	95.312
803.56	77.143
803.87	69.231
804.17	83.824
804.48	98.148
804.78	87.931
805.09	75.000
805.39	88.462
805.70	96.429
806.00	109.836
806.30	71.212
806.61	69.512
806.91	68.354
807.22	56.579
807.52	59.701
807.83	77.465
808.13	96.875
808.43	88.333
808.74	75.000
809.04	95.652
809.35	94.030
809.65	72.368
809.95	111.290
810.26	89.831
810.56	93.651
810.86	138.636
811.17	133.333
811.47	98.333
811.77	81.481
812.08	109.091
812.38	104.000
812.69	130.556
812.99	136.364
813.29	122.449
813.59	111.905
813.90	126.531
814.20	100.000
814.50	69.231
814.81	85.294
815.11	128.571
815.41	90.164
815.72	111.905
816.02	114.545
816.32	150.000
816.62	145.000
816.93	121.951
817.23	138.095
817.53	111.364
817.84	178.788
818.14	126.087
818.44	120.000
818.74	155.882
819.04	135.000
819.35	151.429
819.65	152.941
819.95	192.857
820.25	235.000
820.56	169.231
820.86	136.364
821.16	144.186
821.46	133.333
821.76	138.000
822.07	154.286
822.37	122.500
822.67	181.818
822.97	127.451
823.27	232.143
823.57	145.946
823.88	170.000
824.18	180.000
824.48	150.000
824.78	228.000
825.08	183.333
825.38	159.459
825.69	117.073
825.99	204.167
826.29	158.621
826.59	173.684
826.89	144.737
827.19	173.529
827.49	177.419
827.79	152.273
828.09	131.818
828.39	121.277
828.70	122.449
829.00	188.889
829.30	158.065
829.60	147.500
829.90	300.000
830.20	207.143
830.50	186.957
830.80	213.043
831.10	186.667
831.40	196.667
831.70	182.609
832.00	203.846
832.30	222.222
832.60	293.750
832.90	176.667
833.20	378.571
833.50	183.871
833.80	186.207
834.10	187.500
834.40	196.154
834.70	311.111
835.00	285.714
835.30	162.857
835.60	400.000
835.90	186.207
836.20	328.571
836.50	168.966
836.80	232.000
837.10	177.778
837.40	233.333
837.70	294.118
838.00	237.037
838.30	252.381
838.60	295.238
838.90	203.846
839.19	255.000
839.49	407.143
839.79	355.000
840.09	285.000
840.39	252.381
840.69	282.609
840.99	294.444
841.29	410.000
841.59	291.667
841.88	300.000
842.18	193.103
842.48	276.190
842.78	230.000
843.08	234.783
843.38	162.500
843.68	833.333
843.97	257.692
844.27	182.759
844.57	238.095
844.87	312.500
845.17	211.111
845.47	1400.000
845.76	388.889
846.06	335.294
846.36	425.000
846.66	357.143
846.96	206.250
847.25	418.182
847.55	445.455
847.85	300.000
848.15	540.000
848.44	364.286
848.74	261.111
849.04	288.235
849.34	620.000
849.63	268.421
849.93	445.455
850.23	860.000
850.53	428.571
850.82	2300.000
851.12	-3200.000
851.42	4900.000
851.71	255.000
852.01	-1233.333
852.31	229.167
852.61	1566.667
852.90	271.429
853.20	228.000
853.50	400.000
853.79	285.714
854.09	225.000
854.39	306.250
854.68	183.784
854.98	180.645
855.28	160.000
855.57	224.138
855.87	225.926
856.17	215.789
856.46	206.667
856.76	282.353
857.05	168.966
857.35	254.167
857.65	340.000
857.94	265.217
858.24	234.615
858.53	300.000
858.83	240.909
859.13	366.667
859.42	0.000
859.72	611.111
860.01	409.091
860.31	268.182
860.60	268.421
860.90	230.435
861.20	577.778
861.49	500.000
861.79	-3400.000
862.08	687.500
862.38	280.952
862.67	400.000
862.97	347.059
863.26	522.222
863.56	266.667
863.85	416.667
864.15	487.500
864.44	373.333
864.74	933.333
865.03	612.500
865.33	300.000
865.62	418.182
865.92	438.462
866.21	358.333
866.51	0.000
866.80	472.727
867.10	1020.000
867.39	438.462
867.69	481.818
867.98	289.474
868.27	509.091
868.57	321.053
868.86	-4300.000
869.16	318.750
869.45	2300.000
869.75	-3400.000
870.04	425.000
870.33	685.714
870.63	1025.000
870.92	2350.000
871.22	671.429
871.51	370.588
871.80	233.333
872.10	314.286
>>>>>End Processed Spectral Data<<<<<
