SpectraSuite Data File
++++++++++++++++++++++++++++++++++++
Date: Wed May 13 19:12:26 PDT 2015
User: schluterlab
Dark Spectrum Present: Yes
Reference Spectrum Present: Yes
Number of Sampled Component Spectra: 1
Spectrometers: USB2E3373
Integration Time (usec): 3000 (USB2E3373)
Spectra Averaged: 3 (USB2E3373)
Boxcar Smoothing: 0 (USB2E3373)
Correct for Electrical Dark: No (USB2E3373)
Strobe/Lamp Enabled: No (USB2E3373)
Correct for Detector Non-linearity: No (USB2E3373)
Correct for Stray Light: No (USB2E3373)
Number of Pixels in Processed Spectrum: 2048
>>>>>Begin Processed Spectral Data<<<<<
178.53	0.000
178.91	-1375.000
179.29	-1525.000
179.67	-311.111
180.04	-1450.000
180.42	2900.000
180.80	1280.000
181.18	-1125.000
181.56	642.857
181.94	0.000
182.31	-685.714
182.69	1866.667
183.07	-687.500
183.45	-544.444
183.83	572.727
184.20	-510.000
184.58	2550.000
184.96	5900.000
185.34	-960.000
185.72	-900.000
186.09	-3000.000
186.47	3200.000
186.85	2450.000
187.23	5400.000
187.61	-1966.667
187.98	1450.000
188.36	690.909
188.74	536.364
189.12	-1120.000
189.49	660.000
189.87	-6200.000
190.25	-1200.000
190.63	435.714
191.00	484.615
191.38	950.000
191.76	-1125.000
192.14	1600.000
192.51	775.000
192.89	1066.667
193.27	725.000
193.65	-1325.000
194.02	640.000
194.40	1220.000
194.78	740.000
195.15	550.000
195.53	780.000
195.91	-2550.000
196.29	412.500
196.66	384.211
197.04	-490.000
197.42	0.000
197.79	610.000
198.17	-5800.000
198.55	742.857
198.92	837.500
199.30	1040.000
199.68	0.000
200.05	344.444
200.43	985.714
200.81	5300.000
201.18	1833.333
201.56	-1866.667
201.94	655.556
202.31	666.667
202.69	541.667
203.07	730.000
203.44	0.000
203.82	1425.000
204.19	828.571
204.57	528.571
204.95	737.500
205.32	1366.667
205.70	636.364
206.08	457.143
206.45	3450.000
206.83	356.250
207.20	1133.333
207.58	900.000
207.96	366.667
208.33	737.500
208.71	-866.667
209.08	885.714
209.46	588.889
209.84	509.091
210.21	-1866.667
210.59	1475.000
210.96	-537.500
211.34	3150.000
211.71	620.000
212.09	683.333
212.46	0.000
212.84	1833.333
213.22	1475.000
213.59	-5800.000
213.97	983.333
214.34	957.143
214.72	636.364
215.09	1300.000
215.47	-2800.000
215.84	-3000.000
216.22	1866.667
216.59	421.429
216.97	1475.000
217.34	581.818
217.72	-916.667
218.09	0.000
218.47	-5700.000
218.84	711.111
219.22	971.429
219.59	2333.333
219.97	-814.286
220.34	1240.000
220.72	-1733.333
221.09	392.857
221.47	1375.000
221.84	-900.000
222.22	0.000
222.59	1400.000
222.97	-3000.000
223.34	1240.000
223.72	446.154
224.09	1140.000
224.46	2300.000
224.84	-5300.000
225.21	-1120.000
225.59	-5000.000
225.96	670.000
226.34	370.000
226.71	3550.000
227.08	725.000
227.46	660.000
227.83	-1450.000
228.21	-2850.000
228.58	744.444
228.95	-2950.000
229.33	-2650.000
229.70	1966.667
230.08	885.714
230.45	-940.000
230.82	533.333
231.20	1050.000
231.57	714.286
231.95	608.333
232.32	322.727
232.69	472.727
233.07	785.714
233.44	423.077
233.81	-1900.000
234.19	331.579
234.56	475.000
234.93	483.333
235.31	581.818
235.68	453.846
236.05	342.857
236.43	218.182
236.80	342.105
237.17	5800.000
237.55	257.143
237.92	271.429
238.29	323.810
238.67	222.581
239.04	258.621
239.41	205.556
239.79	152.174
240.16	164.286
240.53	193.182
240.91	123.529
241.28	152.000
241.65	138.000
242.02	126.087
242.40	132.258
242.77	120.000
243.14	88.172
243.51	94.382
243.89	92.941
244.26	91.111
244.63	78.495
245.00	85.106
245.38	91.089
245.75	72.897
246.12	68.807
246.49	84.672
246.87	78.400
247.24	72.308
247.61	70.714
247.98	71.242
248.36	66.892
248.73	67.516
249.10	66.879
249.47	65.537
249.84	63.636
250.22	62.567
250.59	62.722
250.96	59.091
251.33	53.081
251.70	54.950
252.08	55.714
252.45	50.673
252.82	49.130
253.19	54.468
253.56	52.157
253.94	53.942
254.31	48.047
254.68	50.000
255.05	50.923
255.42	51.220
255.79	47.059
256.16	48.375
256.54	49.470
256.91	46.263
257.28	44.245
257.65	44.884
258.02	46.584
258.39	40.379
258.76	44.482
259.14	44.048
259.51	46.201
259.88	44.410
260.25	47.734
260.62	45.954
260.99	43.789
261.36	46.547
261.73	42.407
262.10	44.477
262.47	44.507
262.85	39.276
263.22	40.456
263.59	44.729
263.96	42.857
264.33	39.948
264.70	39.474
265.07	43.223
265.44	40.909
265.81	38.200
266.18	40.452
266.55	38.293
266.92	37.592
267.29	40.509
267.66	35.092
268.03	40.455
268.40	39.019
268.77	37.232
269.14	40.541
269.51	40.632
269.88	39.394
270.25	41.535
270.62	40.225
270.99	39.355
271.36	38.412
271.73	37.617
272.10	39.348
272.47	35.054
272.84	38.312
273.21	37.107
273.58	37.118
273.95	37.317
274.32	35.744
274.69	39.186
275.06	37.795
275.43	39.574
275.80	37.675
276.17	37.678
276.54	36.383
276.91	36.957
277.28	37.500
277.65	36.750
278.02	35.818
278.39	36.914
278.76	37.091
279.13	33.396
279.50	36.127
279.87	35.259
280.23	37.126
280.60	35.783
280.97	34.935
281.34	35.044
281.71	36.182
282.08	36.276
282.45	34.364
282.82	34.813
283.19	31.907
283.56	34.035
283.92	35.195
284.29	33.157
284.66	34.846
285.03	36.166
285.40	33.627
285.77	34.343
286.14	31.779
286.51	36.000
286.87	32.821
287.24	33.876
287.61	33.708
287.98	32.955
288.35	31.220
288.72	33.178
289.08	32.864
289.45	32.290
289.82	32.520
290.19	32.182
290.56	31.700
290.93	29.003
291.29	29.755
291.66	32.153
292.03	30.523
292.40	32.159
292.77	30.178
293.13	32.239
293.50	29.446
293.87	29.481
294.24	29.481
294.60	27.948
294.97	28.488
295.34	28.773
295.71	28.551
296.08	28.775
296.44	28.336
296.81	27.345
297.18	27.371
297.55	27.177
297.91	27.441
298.28	27.309
298.65	27.937
299.02	27.273
299.38	28.685
299.75	24.933
300.12	26.181
300.48	26.125
300.85	26.880
301.22	26.879
301.59	26.263
301.95	27.078
302.32	26.829
302.69	25.568
303.05	25.697
303.42	25.679
303.79	26.161
304.15	25.991
304.52	25.145
304.89	24.506
305.25	25.986
305.62	24.689
305.99	26.564
306.35	24.944
306.72	25.673
307.09	26.082
307.45	27.140
307.82	25.893
308.19	26.269
308.55	26.106
308.92	25.134
309.29	24.815
309.65	24.814
310.02	26.321
310.38	25.699
310.75	25.660
311.12	26.612
311.48	27.795
311.85	27.568
312.22	27.263
312.58	27.339
312.95	28.300
313.31	26.019
313.68	28.378
314.05	29.684
314.41	27.839
314.78	29.204
315.14	29.494
315.51	29.969
315.87	30.297
316.24	29.593
316.61	30.117
316.97	31.703
317.34	32.094
317.70	32.122
318.07	34.745
318.43	35.127
318.80	35.052
319.16	36.911
319.53	36.210
319.89	36.952
320.26	39.000
320.62	38.492
320.99	39.798
321.35	40.202
321.72	43.737
322.08	43.238
322.45	45.572
322.81	45.543
323.18	48.748
323.54	47.310
323.91	49.434
324.27	49.618
324.64	50.419
325.00	51.127
325.37	55.596
325.73	57.810
326.10	57.370
326.46	59.498
326.83	62.468
327.19	63.023
327.56	65.854
327.92	68.154
328.29	69.654
328.65	71.087
329.01	71.751
329.38	74.006
329.74	72.946
330.11	77.191
330.47	78.880
330.84	77.482
331.20	79.417
331.56	80.275
331.93	81.389
332.29	80.302
332.66	82.832
333.02	83.729
333.38	84.101
333.75	87.077
334.11	87.367
334.48	85.359
334.84	88.971
335.20	89.000
335.57	88.033
335.93	87.411
336.29	90.385
336.66	90.803
337.02	89.864
337.38	91.481
337.75	92.602
338.11	91.495
338.47	95.488
338.84	93.951
339.20	93.670
339.56	96.350
339.93	95.545
340.29	96.286
340.65	96.702
341.02	98.080
341.38	97.687
341.74	97.368
342.11	99.127
342.47	101.145
342.83	98.887
343.20	99.481
343.56	99.326
343.92	101.930
344.28	100.255
344.65	102.666
345.01	101.852
345.37	103.774
345.73	101.607
346.10	102.046
346.46	102.712
346.82	104.695
347.19	105.096
347.55	103.202
347.91	104.369
348.27	107.067
348.63	107.107
349.00	104.693
349.36	108.456
349.72	104.651
350.08	106.483
350.45	107.811
350.81	107.717
351.17	106.483
351.53	108.518
351.89	107.673
352.26	108.919
352.62	110.265
352.98	108.914
353.34	110.435
353.70	111.866
354.07	111.371
354.43	109.921
354.79	110.298
355.15	111.732
355.51	111.831
355.87	114.041
356.24	115.309
356.60	113.953
356.96	115.768
357.32	115.781
357.68	117.008
358.04	116.310
358.40	116.390
358.77	116.041
359.13	117.364
359.49	117.333
359.85	118.810
360.21	122.568
360.57	118.599
360.93	119.538
361.29	119.274
361.66	118.189
362.02	121.418
362.38	121.977
362.74	122.098
363.10	120.429
363.46	120.616
363.82	123.432
364.18	120.558
364.54	124.071
364.90	123.017
365.26	124.559
365.62	124.763
365.98	123.521
366.35	121.920
366.71	125.524
367.07	127.968
367.43	128.737
367.79	128.408
368.15	127.443
368.51	128.343
368.87	126.981
369.23	130.139
369.59	130.051
369.95	128.750
370.31	127.422
370.67	127.464
371.03	131.386
371.39	132.070
371.75	131.691
372.11	128.378
372.47	131.452
372.83	132.349
373.19	130.419
373.55	134.072
373.91	135.420
374.27	128.041
374.63	133.600
374.99	135.099
375.35	132.170
375.71	132.488
376.07	133.059
376.42	137.001
376.78	133.665
377.14	134.125
377.50	136.490
377.86	136.104
378.22	135.335
378.58	133.333
378.94	134.758
379.30	135.751
379.66	138.706
380.02	135.381
380.38	136.612
380.74	137.335
381.09	137.042
381.45	138.291
381.81	137.654
382.17	139.745
382.53	139.057
382.89	138.889
383.25	141.964
383.61	140.954
383.97	138.587
384.32	137.991
384.68	140.273
385.04	140.934
385.40	138.576
385.76	139.803
386.12	139.832
386.48	141.787
386.83	143.810
387.19	143.290
387.55	142.115
387.91	140.206
388.27	140.711
388.62	141.242
388.98	141.953
389.34	140.551
389.70	140.282
390.06	143.219
390.42	144.423
390.77	141.349
391.13	146.331
391.49	143.147
391.85	141.439
392.20	143.533
392.56	142.992
392.92	143.437
393.28	142.189
393.64	141.787
393.99	139.524
394.35	143.424
394.71	142.033
395.07	141.371
395.42	145.735
395.78	142.557
396.14	141.155
396.50	144.424
396.85	144.056
397.21	141.985
397.57	142.095
397.92	144.591
398.28	141.031
398.64	141.756
399.00	142.082
399.35	142.865
399.71	142.593
400.07	141.750
400.42	142.454
400.78	143.486
401.14	144.878
401.49	144.836
401.85	143.860
402.21	143.473
402.57	143.924
402.92	144.641
403.28	144.472
403.63	144.183
403.99	145.605
404.35	142.545
404.70	143.585
405.06	142.167
405.42	144.791
405.77	142.400
406.13	140.745
406.49	142.815
406.84	142.056
407.20	141.844
407.55	144.161
407.91	145.333
408.27	146.011
408.62	140.999
408.98	140.319
409.34	142.804
409.69	142.000
410.05	140.768
410.40	143.914
410.76	141.756
411.11	140.229
411.47	141.214
411.83	141.662
412.18	140.940
412.54	143.337
412.89	140.000
413.25	141.499
413.60	144.348
413.96	136.308
414.31	141.009
414.67	139.797
415.03	141.921
415.38	140.722
415.74	141.093
416.09	142.978
416.45	141.365
416.80	142.564
417.16	141.086
417.51	143.464
417.87	140.912
418.22	143.596
418.58	140.478
418.93	140.971
419.29	141.757
419.64	141.184
420.00	140.000
420.35	138.203
420.71	141.184
421.06	140.334
421.42	139.123
421.77	138.509
422.12	140.651
422.48	138.748
422.83	140.070
423.19	138.785
423.54	140.104
423.90	139.072
424.25	136.739
424.61	137.917
424.96	139.417
425.31	138.040
425.67	136.348
426.02	137.486
426.38	142.002
426.73	137.858
427.09	138.663
427.44	138.930
427.79	135.883
428.15	137.083
428.50	136.571
428.85	137.366
429.21	138.984
429.56	137.947
429.92	136.940
430.27	136.544
430.62	135.125
430.98	136.741
431.33	133.660
431.68	137.801
432.04	134.505
432.39	139.577
432.74	137.941
433.10	138.879
433.45	140.758
433.80	137.140
434.16	133.868
434.51	136.263
434.86	134.892
435.22	135.909
435.57	136.657
435.92	136.103
436.28	137.782
436.63	136.424
436.98	136.920
437.34	137.388
437.69	137.981
438.04	136.987
438.39	137.433
438.75	137.130
439.10	137.430
439.45	136.482
439.81	138.489
440.16	134.613
440.51	136.614
440.86	135.263
441.22	135.818
441.57	136.306
441.92	135.210
442.27	134.607
442.63	134.071
442.98	136.958
443.33	133.967
443.68	134.538
444.03	135.627
444.39	134.031
444.74	136.147
445.09	134.987
445.44	131.930
445.79	134.142
446.15	130.598
446.50	133.172
446.85	134.892
447.20	132.381
447.55	136.795
447.91	134.970
448.26	133.667
448.61	134.144
448.96	135.936
449.31	135.377
449.66	132.977
450.02	131.978
450.37	133.503
450.72	132.544
451.07	130.225
451.42	130.638
451.77	133.470
452.12	130.543
452.47	130.597
452.83	133.683
453.18	130.685
453.53	131.973
453.88	133.077
454.23	133.413
454.58	132.162
454.93	134.456
455.28	131.546
455.63	131.371
455.98	135.060
456.34	132.601
456.69	133.187
457.04	134.365
457.39	128.930
457.74	130.122
458.09	129.557
458.44	130.217
458.79	128.850
459.14	129.966
459.49	129.013
459.84	129.252
460.19	128.757
460.54	127.083
460.89	129.183
461.24	130.298
461.59	128.704
461.94	129.038
462.29	129.614
462.64	129.547
462.99	129.408
463.34	129.600
463.69	129.456
464.04	127.246
464.39	125.507
464.74	129.352
465.09	128.166
465.44	127.368
465.79	126.846
466.14	125.342
466.49	125.973
466.84	125.452
467.19	126.252
467.54	126.562
467.89	126.230
468.24	126.818
468.59	128.755
468.94	125.779
469.29	127.442
469.64	127.175
469.99	130.379
470.34	129.326
470.68	128.736
471.03	125.782
471.38	129.465
471.73	125.650
472.08	127.500
472.43	125.188
472.78	126.136
473.13	124.840
473.48	123.034
473.83	126.585
474.17	125.700
474.52	124.628
474.87	124.110
475.22	124.086
475.57	123.536
475.92	125.226
476.27	122.830
476.61	124.324
476.96	126.058
477.31	123.548
477.66	124.891
478.01	122.112
478.36	123.374
478.70	123.364
479.05	125.027
479.40	122.620
479.75	123.233
480.10	122.167
480.45	121.609
480.79	120.927
481.14	121.869
481.49	121.927
481.84	120.805
482.19	121.445
482.53	120.367
482.88	120.102
483.23	121.729
483.58	120.701
483.92	121.321
484.27	118.649
484.62	121.250
484.97	118.920
485.31	121.164
485.66	115.782
486.01	112.509
486.36	108.556
486.70	108.474
487.05	111.074
487.40	114.939
487.75	114.786
488.09	118.532
488.44	119.079
488.79	121.157
489.13	119.862
489.48	120.962
489.83	120.846
490.17	121.263
490.52	119.442
490.87	119.720
491.22	117.644
491.56	118.087
491.91	118.381
492.26	117.363
492.60	117.465
492.95	117.025
493.30	118.084
493.64	118.852
493.99	117.409
494.34	118.178
494.68	117.857
495.03	117.105
495.37	114.891
495.72	119.103
496.07	118.701
496.41	114.779
496.76	116.623
497.11	114.723
497.45	116.721
497.80	116.507
498.14	114.686
498.49	115.805
498.84	116.395
499.18	116.381
499.53	117.236
499.87	115.750
500.22	115.450
500.56	116.845
500.91	113.606
501.26	114.794
501.60	117.513
501.95	114.299
502.29	117.385
502.64	115.922
502.98	115.241
503.33	114.168
503.67	114.153
504.02	113.003
504.36	112.962
504.71	114.656
505.06	114.506
505.40	114.390
505.75	112.102
506.09	113.022
506.44	115.984
506.78	113.687
507.13	115.144
507.47	114.848
507.82	113.576
508.16	114.792
508.51	116.641
508.85	113.208
509.19	113.878
509.54	113.520
509.88	113.395
510.23	113.728
510.57	114.396
510.92	114.707
511.26	111.819
511.61	113.278
511.95	111.952
512.30	115.164
512.64	114.347
512.98	115.113
513.33	114.133
513.67	112.380
514.02	112.879
514.36	114.309
514.70	112.341
515.05	114.389
515.39	112.339
515.74	112.500
516.08	112.689
516.42	111.987
516.77	112.932
517.11	111.987
517.46	111.738
517.80	113.182
518.14	113.144
518.49	114.177
518.83	111.193
519.17	112.644
519.52	112.960
519.86	111.238
520.20	112.486
520.55	114.901
520.89	114.051
521.23	112.183
521.58	112.545
521.92	113.533
522.26	110.738
522.61	114.766
522.95	112.707
523.29	111.869
523.64	112.134
523.98	112.877
524.32	111.037
524.66	110.704
525.01	111.765
525.35	111.152
525.69	110.283
526.04	111.215
526.38	112.996
526.72	109.448
527.06	111.488
527.41	109.406
527.75	112.347
528.09	112.524
528.43	111.855
528.78	110.326
529.12	107.697
529.46	110.594
529.80	111.262
530.15	108.660
530.49	106.154
530.83	108.861
531.17	112.859
531.51	112.840
531.86	110.258
532.20	111.017
532.54	109.353
532.88	109.756
533.22	108.745
533.57	106.914
533.91	106.803
534.25	106.561
534.59	107.749
534.93	105.413
535.27	107.182
535.62	106.654
535.96	108.663
536.30	108.455
536.64	107.856
536.98	108.626
537.32	106.715
537.66	109.667
538.01	109.941
538.35	106.723
538.69	108.041
539.03	107.083
539.37	107.540
539.71	105.768
540.05	108.170
540.39	107.043
540.73	106.856
541.07	107.982
541.42	108.089
541.76	106.710
542.10	107.115
542.44	108.808
542.78	107.576
543.12	104.479
543.46	105.770
543.80	106.441
544.14	105.071
544.48	104.317
544.82	105.516
545.16	105.791
545.50	104.692
545.84	104.973
546.18	106.667
546.52	107.777
546.86	107.491
547.20	106.811
547.54	105.678
547.88	105.166
548.22	103.861
548.56	102.453
548.90	104.225
549.24	105.118
549.58	106.548
549.92	105.014
550.26	107.031
550.60	103.250
550.94	105.282
551.28	104.389
551.62	106.902
551.96	106.667
552.30	104.232
552.64	103.313
552.98	103.458
553.32	103.641
553.66	105.385
554.00	106.314
554.34	104.210
554.68	105.794
555.02	104.020
555.36	103.967
555.69	102.503
556.03	102.624
556.37	103.274
556.71	104.093
557.05	103.431
557.39	101.679
557.73	101.976
558.07	103.916
558.41	104.703
558.75	103.747
559.08	104.176
559.42	104.989
559.76	104.559
560.10	101.999
560.44	103.005
560.78	100.798
561.12	100.528
561.45	100.652
561.79	102.373
562.13	101.274
562.47	101.639
562.81	102.162
563.15	99.398
563.48	100.332
563.82	102.348
564.16	100.392
564.50	101.367
564.84	98.167
565.17	100.965
565.51	101.342
565.85	98.541
566.19	99.061
566.52	100.443
566.86	98.011
567.20	99.646
567.54	98.059
567.88	95.546
568.21	97.354
568.55	96.208
568.89	95.233
569.23	92.380
569.56	91.538
569.90	90.868
570.24	92.214
570.57	90.751
570.91	88.462
571.25	88.450
571.59	88.336
571.92	88.681
572.26	88.908
572.60	89.550
572.93	88.456
573.27	88.435
573.61	87.577
573.95	87.881
574.28	86.935
574.62	86.735
574.96	86.595
575.29	86.203
575.63	87.602
575.97	86.957
576.30	87.042
576.64	86.530
576.98	86.582
577.31	85.975
577.65	86.080
577.98	85.062
578.32	84.214
578.66	85.597
578.99	87.035
579.33	86.105
579.67	85.575
580.00	86.454
580.34	85.857
580.67	86.032
581.01	85.271
581.35	84.905
581.68	84.266
582.02	83.698
582.35	84.322
582.69	83.949
583.02	84.348
583.36	86.096
583.70	87.063
584.03	86.468
584.37	86.798
584.70	87.278
585.04	84.687
585.37	84.809
585.71	85.103
586.04	84.610
586.38	86.311
586.72	85.750
587.05	84.814
587.39	84.380
587.72	84.514
588.06	85.059
588.39	85.789
588.73	85.890
589.06	87.784
589.40	87.980
589.73	88.173
590.07	86.655
590.40	87.066
590.73	88.173
591.07	89.052
591.40	87.938
591.74	89.957
592.07	87.740
592.41	87.226
592.74	85.880
593.08	85.177
593.41	84.941
593.75	83.323
594.08	83.674
594.41	85.012
594.75	86.580
595.08	84.574
595.42	84.939
595.75	85.648
596.09	86.444
596.42	86.090
596.75	86.830
597.09	87.013
597.42	85.287
597.75	86.675
598.09	86.522
598.42	85.825
598.76	85.326
599.09	84.911
599.42	83.370
599.76	85.249
600.09	84.117
600.42	83.820
600.76	83.107
601.09	83.242
601.42	84.741
601.76	85.351
602.09	85.889
602.42	85.072
602.76	86.497
603.09	84.894
603.42	84.928
603.76	83.498
604.09	83.870
604.42	84.876
604.76	85.491
605.09	84.578
605.42	84.267
605.75	83.982
606.09	83.815
606.42	85.942
606.75	84.529
607.09	83.801
607.42	85.024
607.75	83.671
608.08	84.281
608.42	84.939
608.75	83.499
609.08	83.858
609.41	84.436
609.75	83.945
610.08	86.051
610.41	85.102
610.74	85.951
611.07	86.067
611.41	84.691
611.74	86.375
612.07	86.542
612.40	86.674
612.73	87.211
613.07	86.692
613.40	86.098
613.73	85.265
614.06	86.559
614.39	84.006
614.72	84.684
615.06	84.611
615.39	84.448
615.72	83.231
616.05	83.519
616.38	86.159
616.71	86.758
617.05	87.102
617.38	86.470
617.71	88.048
618.04	86.058
618.37	85.925
618.70	85.999
619.03	88.092
619.36	87.101
619.69	88.451
620.03	87.500
620.36	86.965
620.69	88.767
621.02	89.012
621.35	88.175
621.68	88.240
622.01	88.313
622.34	88.729
622.67	87.452
623.00	87.821
623.33	87.205
623.66	88.492
623.99	88.513
624.32	86.020
624.65	86.299
624.99	86.756
625.32	88.993
625.65	87.603
625.98	89.162
626.31	88.647
626.64	89.306
626.97	90.690
627.30	88.861
627.63	89.007
627.96	88.646
628.29	91.514
628.62	89.753
628.95	93.585
629.28	90.146
629.61	91.934
629.94	92.667
630.26	93.136
630.59	90.848
630.92	90.230
631.25	90.819
631.58	89.389
631.91	92.495
632.24	92.089
632.57	92.970
632.90	93.531
633.23	94.295
633.56	94.237
633.89	95.130
634.22	94.779
634.55	94.793
634.88	93.293
635.20	96.177
635.53	95.422
635.86	98.886
636.19	93.294
636.52	93.310
636.85	91.867
637.18	89.631
637.51	95.154
637.83	91.739
638.16	95.396
638.49	93.199
638.82	94.817
639.15	94.500
639.48	96.384
639.81	99.598
640.13	94.922
640.46	96.376
640.79	94.584
641.12	94.360
641.45	98.184
641.77	99.264
642.10	98.246
642.43	95.195
642.76	97.059
643.09	97.699
643.41	95.751
643.74	102.006
644.07	95.427
644.40	98.313
644.73	96.378
645.05	98.574
645.38	97.156
645.71	98.551
646.04	101.495
646.36	100.668
646.69	98.495
647.02	94.558
647.35	96.907
647.67	99.823
648.00	96.911
648.33	98.020
648.66	93.939
648.98	92.204
649.31	92.676
649.64	91.480
649.96	92.697
650.29	91.469
650.62	97.249
650.94	94.489
651.27	98.818
651.60	98.669
651.92	94.249
652.25	95.603
652.58	94.393
652.90	95.735
653.23	92.142
653.56	91.811
653.88	94.136
654.21	94.787
654.54	93.399
654.86	90.187
655.19	86.486
655.52	63.658
655.84	58.130
656.17	74.960
656.49	99.304
656.82	100.000
657.15	82.225
657.47	60.098
657.80	46.942
658.13	49.547
658.45	73.898
658.78	75.467
659.10	78.409
659.43	82.097
659.75	85.217
660.08	92.025
660.41	98.138
660.73	98.348
661.06	102.070
661.38	101.273
661.71	102.115
662.03	99.211
662.36	94.235
662.68	98.594
663.01	97.778
663.33	99.363
663.66	99.160
663.98	100.864
664.31	98.319
664.63	93.117
664.96	94.165
665.28	100.000
665.61	94.737
665.93	97.787
666.26	97.566
666.58	98.536
666.91	99.789
667.23	102.022
667.56	92.225
667.88	96.795
668.21	98.934
668.53	99.132
668.86	98.918
669.18	98.721
669.50	95.435
669.83	97.603
670.15	98.667
670.48	97.603
670.80	97.845
671.13	98.726
671.45	97.021
671.77	95.927
672.10	91.128
672.42	91.696
672.75	89.718
673.07	90.317
673.39	91.682
673.72	95.703
674.04	93.333
674.37	93.398
674.69	92.843
675.01	94.561
675.34	94.661
675.66	99.368
675.98	92.261
676.31	94.118
676.63	95.541
676.95	93.711
677.28	95.561
677.60	96.044
677.92	98.523
678.25	92.608
678.57	96.614
678.89	95.391
679.22	91.159
679.54	89.313
679.86	89.541
680.18	85.331
680.51	88.830
680.83	89.146
681.15	90.377
681.48	91.304
681.80	89.362
682.12	90.613
682.44	89.555
682.77	91.446
683.09	93.991
683.41	96.231
683.73	94.923
684.06	92.562
684.38	89.041
684.70	88.178
685.02	87.992
685.34	86.447
685.67	84.965
685.99	85.223
686.31	86.348
686.63	87.986
686.96	83.929
687.28	85.740
687.60	86.051
687.92	88.483
688.24	87.262
688.56	90.361
688.89	90.664
689.21	93.231
689.53	89.770
689.85	93.792
690.17	87.371
690.49	88.535
690.82	96.495
691.14	88.839
691.46	87.131
691.78	87.751
692.10	92.769
692.42	87.026
692.74	87.552
693.06	88.085
693.39	85.421
693.71	89.520
694.03	86.316
694.35	88.961
694.67	87.872
694.99	92.195
695.31	93.627
695.63	88.517
695.95	93.399
696.27	92.386
696.59	94.819
696.91	94.301
697.23	83.099
697.56	86.567
697.88	82.413
698.20	83.958
698.52	86.667
698.84	89.087
699.16	85.253
699.48	91.924
699.80	89.855
700.12	91.948
700.44	92.042
700.76	93.370
701.08	95.115
701.40	94.413
701.72	99.417
702.04	98.295
702.36	91.785
702.68	94.051
703.00	91.967
703.32	86.702
703.64	90.617
703.96	93.315
704.28	93.605
704.60	94.721
704.91	93.472
705.23	91.789
705.55	98.339
705.87	101.993
706.19	100.707
706.51	91.277
706.83	95.152
707.15	94.958
707.47	84.848
707.79	85.995
708.11	85.160
708.43	87.619
708.74	89.541
709.06	92.208
709.38	91.076
709.70	98.256
710.02	93.769
710.34	88.485
710.66	93.134
710.98	89.489
711.29	91.860
711.61	89.971
711.93	92.628
712.25	95.177
712.57	101.471
712.89	97.232
713.20	84.498
713.52	91.447
713.84	89.241
714.16	89.329
714.48	87.069
714.80	92.097
715.11	91.066
715.43	90.801
715.75	86.667
716.07	94.249
716.39	90.909
716.70	90.698
717.02	101.799
717.34	95.406
717.66	96.269
717.97	98.406
718.29	95.185
718.61	95.985
718.93	94.853
719.24	92.042
719.56	89.153
719.88	91.864
720.20	92.905
720.51	90.244
720.83	97.770
721.15	91.791
721.46	90.426
721.78	89.606
722.10	94.717
722.42	96.992
722.73	93.633
723.05	90.574
723.37	95.951
723.68	94.595
724.00	96.341
724.32	94.355
724.63	96.341
724.95	96.234
725.27	97.976
725.58	95.312
725.90	93.066
726.22	89.811
726.53	88.194
726.85	90.444
727.16	87.900
727.48	85.461
727.80	89.773
728.11	88.043
728.43	91.154
728.74	84.588
729.06	89.416
729.38	87.868
729.69	87.900
730.01	81.570
730.32	84.375
730.64	86.288
730.96	79.538
731.27	86.093
731.59	80.122
731.90	84.257
732.22	85.404
732.53	81.734
732.85	82.372
733.16	82.637
733.48	83.721
733.80	88.961
734.11	84.713
734.43	80.178
734.74	80.571
735.06	77.650
735.37	84.393
735.69	84.713
736.00	86.601
736.32	79.128
736.63	84.345
736.95	85.623
737.26	78.231
737.58	83.871
737.89	81.940
738.21	89.420
738.52	88.929
738.83	87.170
739.15	87.308
739.46	90.876
739.78	83.681
740.09	79.385
740.41	84.839
740.72	83.275
741.04	87.037
741.35	89.167
741.66	92.889
741.98	89.151
742.29	99.043
742.61	90.948
742.92	89.140
743.23	94.872
743.55	94.000
743.86	89.474
744.18	93.363
744.49	100.478
744.80	97.183
745.12	97.727
745.43	88.546
745.74	90.090
746.06	94.495
746.37	94.170
746.68	90.498
747.00	95.833
747.31	96.667
747.62	90.708
747.94	91.630
748.25	88.936
748.56	96.916
748.88	92.079
749.19	108.000
749.50	90.233
749.82	86.585
750.13	87.347
750.44	83.577
750.75	86.316
751.07	81.994
751.38	84.321
751.69	88.448
752.01	87.218
752.32	84.116
752.63	81.915
752.94	90.164
753.26	90.800
753.57	85.366
753.88	84.766
754.19	80.714
754.51	85.764
754.82	83.032
755.13	85.283
755.44	81.955
755.75	78.832
756.07	80.142
756.38	79.562
756.69	82.550
757.00	73.653
757.31	72.997
757.63	76.901
757.94	75.603
758.25	71.814
758.56	70.123
758.87	73.387
759.18	74.242
759.50	76.489
759.81	76.324
760.12	71.875
760.43	71.633
760.74	68.207
761.05	77.119
761.36	72.727
761.67	80.114
761.99	78.571
762.30	83.333
762.61	77.863
762.92	80.078
763.23	84.454
763.54	84.000
763.85	79.297
764.16	86.154
764.47	82.510
764.78	76.678
765.10	73.101
765.41	71.091
765.72	75.150
766.03	74.922
766.34	70.333
766.65	92.766
766.96	80.342
767.27	96.447
767.58	92.188
767.89	90.526
768.20	92.529
768.51	88.325
768.82	88.073
769.13	79.268
769.44	74.089
769.75	89.270
770.06	82.569
770.37	87.783
770.68	83.333
770.99	81.778
771.30	77.049
771.61	87.444
771.92	82.787
772.23	86.555
772.54	85.641
772.85	96.335
773.16	89.894
773.47	92.391
773.78	85.279
774.09	91.071
774.39	94.152
774.70	93.210
775.01	109.420
775.32	99.346
775.63	98.684
775.94	99.281
776.25	112.598
776.56	105.224
776.87	109.836
777.18	103.125
777.48	111.450
777.79	100.000
778.10	101.481
778.41	120.536
778.72	100.000
779.03	100.000
779.34	89.262
779.65	91.216
779.95	92.638
780.26	92.810
780.57	104.828
780.88	105.469
781.19	105.263
781.50	101.351
781.80	101.258
782.11	95.480
782.42	92.405
782.73	92.638
783.04	103.378
783.34	97.887
783.65	104.110
783.96	109.701
784.27	91.608
784.57	102.878
784.88	108.333
785.19	115.079
785.50	109.434
785.81	105.224
786.11	103.279
786.42	101.550
786.73	106.195
787.04	129.245
787.34	108.036
787.65	116.000
787.96	119.820
788.26	109.091
788.57	113.559
788.88	106.612
789.19	97.917
789.49	100.758
789.80	96.183
790.11	123.810
790.41	120.792
790.72	134.940
791.03	127.174
791.33	130.233
791.64	114.433
791.95	113.861
792.25	130.000
792.56	146.753
792.87	144.872
793.17	148.101
793.48	136.782
793.79	124.138
794.09	119.318
794.40	105.882
794.70	103.676
795.01	100.000
795.32	92.086
795.62	100.787
795.93	105.172
796.23	110.619
796.54	124.706
796.85	136.486
797.15	140.845
797.46	139.394
797.76	130.120
798.07	139.241
798.37	138.462
798.68	151.515
798.99	125.352
799.29	133.766
799.60	114.773
799.90	152.055
800.21	153.731
800.51	153.448
800.82	175.439
801.12	157.377
801.43	157.576
801.73	135.135
802.04	136.508
802.34	127.160
802.65	162.500
802.95	172.881
803.26	159.375
803.56	134.286
803.87	144.615
804.17	133.824
804.48	175.926
804.78	144.828
805.09	142.647
805.39	176.923
805.70	144.643
806.00	155.738
806.30	153.030
806.61	128.049
806.91	125.316
807.22	131.579
807.52	132.836
807.83	146.479
808.13	156.250
808.43	161.667
808.74	118.421
809.04	136.232
809.35	138.806
809.65	144.737
809.95	159.677
810.26	166.102
810.56	142.857
810.86	197.727
811.17	197.619
811.47	143.333
811.77	166.667
812.08	158.182
812.38	164.000
812.69	194.444
812.99	211.364
813.29	165.306
813.59	152.381
813.90	191.837
814.20	147.273
814.50	133.846
814.81	147.059
815.11	185.714
815.41	157.377
815.72	195.238
816.02	165.455
816.32	190.476
816.62	185.000
816.93	185.366
817.23	197.619
817.53	206.818
817.84	236.364
818.14	169.565
818.44	166.667
818.74	241.176
819.04	215.000
819.35	220.000
819.65	244.118
819.95	253.571
820.25	315.000
820.56	220.513
820.86	168.182
821.16	211.628
821.46	192.308
821.76	176.000
822.07	254.286
822.37	205.000
822.67	236.364
822.97	141.176
823.27	250.000
823.57	227.027
823.88	202.500
824.18	303.333
824.48	188.095
824.78	324.000
825.08	266.667
825.38	213.514
825.69	182.927
825.99	300.000
826.29	248.276
826.59	181.579
826.89	205.263
827.19	229.412
827.49	229.032
827.79	197.727
828.09	200.000
828.39	153.191
828.70	155.102
829.00	237.037
829.30	235.484
829.60	220.000
829.90	433.333
830.20	257.143
830.50	247.826
830.80	321.739
831.10	260.000
831.40	246.667
831.70	300.000
832.00	311.538
832.30	285.185
832.60	400.000
832.90	243.333
833.20	592.857
833.50	209.677
833.80	244.828
834.10	237.500
834.40	284.615
834.70	388.889
835.00	328.571
835.30	214.286
835.60	500.000
835.90	258.621
836.20	485.714
836.50	241.379
836.80	248.000
837.10	213.889
837.40	352.381
837.70	358.824
838.00	259.259
838.30	304.762
838.60	357.143
838.90	265.385
839.19	335.000
839.49	492.857
839.79	395.000
840.09	320.000
840.39	338.095
840.69	265.217
840.99	355.556
841.29	690.000
841.59	458.333
841.88	418.750
842.18	234.483
842.48	328.571
842.78	236.667
843.08	313.043
843.38	234.375
843.68	1133.333
843.97	288.462
844.27	237.931
844.57	400.000
844.87	418.750
845.17	255.556
845.47	2000.000
845.76	666.667
846.06	394.118
846.36	637.500
846.66	407.143
846.96	393.750
847.25	527.273
847.55	509.091
847.85	282.609
848.15	620.000
848.44	400.000
848.74	338.889
849.04	370.588
849.34	660.000
849.63	342.105
849.93	654.545
850.23	1480.000
850.53	421.429
850.82	2800.000
851.12	-6300.000
851.42	6100.000
851.71	300.000
852.01	-1800.000
852.31	308.333
852.61	2233.333
852.90	314.286
853.20	300.000
853.50	452.941
853.79	295.238
854.09	266.667
854.39	362.500
854.68	208.108
854.98	196.774
855.28	180.000
855.57	272.414
855.87	303.704
856.17	336.842
856.46	366.667
856.76	364.706
857.05	237.931
857.35	245.833
857.65	440.000
857.94	321.739
858.24	276.923
858.53	320.000
858.83	331.818
859.13	426.667
859.42	0.000
859.72	722.222
860.01	536.364
860.31	254.545
860.60	331.579
860.90	230.435
861.20	666.667
861.49	575.000
861.79	-6200.000
862.08	700.000
862.38	333.333
862.67	423.077
862.97	394.118
863.26	566.667
863.56	311.111
863.85	425.000
864.15	700.000
864.44	480.000
864.74	916.667
865.03	837.500
865.33	373.684
865.62	554.545
865.92	507.692
866.21	491.667
866.51	0.000
866.80	527.273
867.10	1260.000
867.39	530.769
867.69	563.636
867.98	321.053
868.27	600.000
868.57	347.368
868.86	-5500.000
869.16	431.250
869.45	2750.000
869.75	-5500.000
870.04	516.667
870.33	785.714
870.63	1525.000
870.92	3200.000
871.22	814.286
871.51	400.000
871.80	285.714
872.10	421.429
>>>>>End Processed Spectral Data<<<<<
