SpectraSuite Data File
++++++++++++++++++++++++++++++++++++
Date: Wed May 13 19:21:52 PDT 2015
User: schluterlab
Dark Spectrum Present: Yes
Reference Spectrum Present: Yes
Number of Sampled Component Spectra: 1
Spectrometers: USB2E3373
Integration Time (usec): 3000 (USB2E3373)
Spectra Averaged: 3 (USB2E3373)
Boxcar Smoothing: 0 (USB2E3373)
Correct for Electrical Dark: No (USB2E3373)
Strobe/Lamp Enabled: No (USB2E3373)
Correct for Detector Non-linearity: No (USB2E3373)
Correct for Stray Light: No (USB2E3373)
Number of Pixels in Processed Spectrum: 2048
>>>>>Begin Processed Spectral Data<<<<<
178.53	0.000
178.91	-1350.000
179.29	-1575.000
179.67	-233.333
180.04	-1625.000
180.42	3000.000
180.80	1200.000
181.18	-1275.000
181.56	842.857
181.94	0.000
182.31	-714.286
182.69	1533.333
183.07	-675.000
183.45	-600.000
183.83	527.273
184.20	-510.000
184.58	2800.000
184.96	6200.000
185.34	-940.000
185.72	-537.500
186.09	-2400.000
186.47	2700.000
186.85	2950.000
187.23	5000.000
187.61	-1900.000
187.98	1475.000
188.36	572.727
188.74	563.636
189.12	-1160.000
189.49	680.000
189.87	-5400.000
190.25	-1350.000
190.63	442.857
191.00	561.538
191.38	800.000
191.76	-1125.000
192.14	1400.000
192.51	837.500
192.89	1016.667
193.27	750.000
193.65	-1400.000
194.02	550.000
194.40	1040.000
194.78	590.000
195.15	641.667
195.53	560.000
195.91	-2450.000
196.29	400.000
196.66	315.789
197.04	-350.000
197.42	0.000
197.79	710.000
198.17	-4800.000
198.55	928.571
198.92	800.000
199.30	980.000
199.68	0.000
200.05	361.111
200.43	828.571
200.81	4500.000
201.18	2000.000
201.56	-1366.667
201.94	588.889
202.31	655.556
202.69	491.667
203.07	540.000
203.44	0.000
203.82	1475.000
204.19	728.571
204.57	485.714
204.95	737.500
205.32	1733.333
205.70	518.182
206.08	450.000
206.45	2500.000
206.83	393.750
207.20	1100.000
207.58	880.000
207.96	288.889
208.33	737.500
208.71	-900.000
209.08	928.571
209.46	644.444
209.84	554.545
210.21	-1933.333
210.59	1625.000
210.96	-525.000
211.34	2600.000
211.71	630.000
212.09	1000.000
212.46	0.000
212.84	2100.000
213.22	1475.000
213.59	-5100.000
213.97	1133.333
214.34	842.857
214.72	590.909
215.09	1380.000
215.47	-2700.000
215.84	-2550.000
216.22	1900.000
216.59	450.000
216.97	1350.000
217.34	490.909
217.72	-866.667
218.09	0.000
218.47	-5200.000
218.84	766.667
219.22	800.000
219.59	2166.667
219.97	-700.000
220.34	1160.000
220.72	-1966.667
221.09	392.857
221.47	1675.000
221.84	-900.000
222.22	0.000
222.59	1625.000
222.97	-3050.000
223.34	1200.000
223.72	538.462
224.09	1140.000
224.46	2900.000
224.84	-5000.000
225.21	-1080.000
225.59	-5300.000
225.96	670.000
226.34	320.000
226.71	2950.000
227.08	762.500
227.46	560.000
227.83	-1375.000
228.21	-2600.000
228.58	677.778
228.95	-2400.000
229.33	-2350.000
229.70	1933.333
230.08	685.714
230.45	-1040.000
230.82	450.000
231.20	866.667
231.57	785.714
231.95	458.333
232.32	268.182
232.69	509.091
233.07	757.143
233.44	484.615
233.81	-2100.000
234.19	315.789
234.56	583.333
234.93	400.000
235.31	509.091
235.68	361.538
236.05	428.571
236.43	206.061
236.80	289.474
237.17	4500.000
237.55	280.952
237.92	228.571
238.29	295.238
238.67	216.129
239.04	251.724
239.41	172.222
239.79	134.783
240.16	157.143
240.53	154.545
240.91	92.157
241.28	140.000
241.65	102.000
242.02	117.391
242.40	83.871
242.77	101.667
243.14	76.344
243.51	95.506
243.89	76.471
244.26	78.889
244.63	70.968
245.00	76.596
245.38	69.307
245.75	56.075
246.12	60.550
246.49	67.153
246.87	68.800
247.24	56.154
247.61	55.714
247.98	52.288
248.36	57.432
248.73	56.688
249.10	53.503
249.47	50.282
249.84	51.872
250.22	50.802
250.59	61.538
250.96	50.000
251.33	46.919
251.70	46.535
252.08	45.714
252.45	42.152
252.82	41.739
253.19	42.553
253.56	38.824
253.94	43.568
254.31	38.281
254.68	34.231
255.05	38.376
255.42	39.431
255.79	38.971
256.16	44.765
256.54	36.042
256.91	38.790
257.28	36.691
257.65	38.284
258.02	37.267
258.39	36.593
258.76	34.448
259.14	34.226
259.51	34.043
259.88	30.435
260.25	34.743
260.62	32.948
260.99	35.714
261.36	34.234
261.73	31.519
262.10	31.977
262.47	32.394
262.85	31.755
263.22	29.915
263.59	29.345
263.96	32.692
264.33	31.854
264.70	32.632
265.07	30.691
265.44	32.071
265.81	27.494
266.18	28.894
266.55	30.000
266.92	31.450
267.29	32.176
267.66	28.670
268.03	28.409
268.40	31.308
268.77	26.969
269.14	29.279
269.51	27.765
269.88	31.002
270.25	28.217
270.62	28.315
270.99	30.753
271.36	30.043
271.73	31.075
272.10	28.696
272.47	28.602
272.84	28.139
273.21	27.463
273.58	27.293
273.95	28.092
274.32	26.860
274.69	29.764
275.06	26.378
275.43	30.000
275.80	27.054
276.17	28.513
276.54	27.443
276.91	28.261
277.28	27.539
277.65	27.079
278.02	25.052
278.39	28.516
278.76	27.636
279.13	24.906
279.50	26.629
279.87	27.092
280.23	27.944
280.60	26.112
280.97	25.139
281.34	27.611
281.71	25.636
282.08	27.831
282.45	27.091
282.82	27.176
283.19	25.490
283.56	25.614
283.92	24.873
284.29	25.573
284.66	25.771
285.03	25.678
285.40	25.352
285.77	24.074
286.14	23.834
286.51	25.000
286.87	24.103
287.24	24.267
287.61	24.398
287.98	24.513
288.35	23.930
288.72	22.741
289.08	24.413
289.45	24.217
289.82	24.553
290.19	21.193
290.56	23.890
290.93	20.846
291.29	23.773
291.66	22.419
292.03	25.000
292.40	23.495
292.77	22.633
293.13	22.687
293.50	20.845
293.87	21.185
294.24	20.593
294.60	18.486
294.97	21.802
295.34	21.721
295.71	21.733
296.08	20.940
296.44	19.395
296.81	20.476
297.18	21.003
297.55	18.470
297.91	19.789
298.28	21.285
298.65	19.843
299.02	19.895
299.38	18.991
299.75	17.655
300.12	19.668
300.48	18.875
300.85	18.866
301.22	18.981
301.59	18.939
301.95	19.521
302.32	18.485
302.69	19.713
303.05	19.030
303.42	16.914
303.79	17.894
304.15	17.716
304.52	15.759
304.89	18.118
305.25	17.865
305.62	18.686
305.99	18.182
306.35	18.904
306.72	18.946
307.09	20.200
307.45	19.257
307.82	15.960
308.19	19.316
308.55	18.986
308.92	17.615
309.29	18.585
309.65	16.649
310.02	18.922
310.38	18.817
310.75	17.529
311.12	18.117
311.48	18.704
311.85	19.497
312.22	18.939
312.58	16.840
312.95	20.486
313.31	18.155
313.68	19.854
314.05	21.203
314.41	19.196
314.78	19.235
315.14	20.159
315.51	19.773
315.87	21.584
316.24	20.060
316.61	20.175
316.97	20.646
317.34	21.135
317.70	21.128
318.07	22.329
318.43	21.624
318.80	21.275
319.16	22.128
319.53	23.171
319.89	23.143
320.26	24.300
320.62	24.306
320.99	24.848
321.35	24.545
321.72	24.435
322.08	25.568
322.45	25.970
322.81	25.291
323.18	24.759
323.54	26.160
323.91	26.604
324.27	26.482
324.64	25.629
325.00	26.601
325.37	28.207
325.73	29.174
326.10	28.597
326.46	28.495
326.83	28.645
327.19	28.352
327.56	29.355
327.92	30.359
328.29	29.636
328.65	30.571
329.01	29.783
329.38	30.157
329.74	30.471
330.11	30.726
330.47	31.772
330.84	31.985
331.20	30.874
331.56	30.367
331.93	30.463
332.29	31.411
332.66	31.062
333.02	31.170
333.38	31.707
333.75	31.996
334.11	31.673
334.48	30.435
334.84	31.985
335.20	32.273
335.57	31.460
335.93	31.250
336.29	31.777
336.66	31.650
337.02	31.131
337.38	31.204
337.75	30.303
338.11	31.065
338.47	31.676
338.84	31.439
339.20	30.183
339.56	32.391
339.93	32.273
340.29	30.254
340.65	31.729
341.02	31.675
341.38	30.872
341.74	30.526
342.11	31.878
342.47	31.630
342.83	30.908
343.20	31.602
343.56	30.076
343.92	30.965
344.28	32.398
344.65	31.728
345.01	30.471
345.37	30.103
345.73	30.795
346.10	31.884
346.46	30.678
346.82	30.395
347.19	30.744
347.55	29.803
347.91	31.472
348.27	31.800
348.63	31.187
349.00	31.230
349.36	30.706
349.72	32.959
350.08	30.713
350.45	30.919
350.81	31.113
351.17	31.929
351.53	31.613
351.89	31.023
352.26	31.255
352.62	31.756
352.98	31.118
353.34	31.389
353.70	31.669
354.07	31.935
354.43	30.794
354.79	30.410
355.15	31.524
355.51	31.735
355.87	31.265
356.24	31.433
356.60	30.714
356.96	31.134
357.32	31.889
357.68	30.551
358.04	30.879
358.40	30.721
358.77	30.751
359.13	31.965
359.49	32.157
359.85	31.746
360.21	30.781
360.57	32.607
360.93	32.385
361.29	31.822
361.66	31.889
362.02	31.866
362.38	32.015
362.74	32.217
363.10	32.272
363.46	32.282
363.82	33.107
364.18	31.057
364.54	34.324
364.90	33.144
365.26	32.868
365.62	32.798
365.98	31.921
366.35	31.590
366.71	33.261
367.07	32.192
367.43	33.164
367.79	34.333
368.15	33.261
368.51	34.157
368.87	34.047
369.23	34.089
369.59	34.975
369.95	33.456
370.31	33.405
370.67	33.116
371.03	34.831
371.39	34.257
371.75	34.485
372.11	33.144
372.47	35.630
372.83	35.014
373.19	34.032
373.55	35.477
373.91	35.862
374.27	33.471
374.63	35.564
374.99	35.593
375.35	35.380
375.71	35.984
376.07	34.979
376.42	35.282
376.78	35.520
377.14	35.482
377.50	36.556
377.86	35.904
378.22	35.588
378.58	35.589
378.94	36.581
379.30	36.132
379.66	36.421
380.02	36.179
380.38	36.551
380.74	35.954
381.09	36.308
381.45	37.308
381.81	36.732
382.17	37.197
382.53	37.547
382.89	38.210
383.25	37.148
383.61	38.228
383.97	37.336
384.32	37.555
384.68	37.175
385.04	37.861
385.40	36.718
385.76	38.391
386.12	38.083
386.48	39.773
386.83	39.577
387.19	39.147
387.55	38.466
387.91	38.755
388.27	38.749
388.62	38.967
388.98	39.066
389.34	38.298
389.70	39.424
390.06	40.177
390.42	39.624
390.77	38.740
391.13	40.906
391.49	39.784
391.85	39.656
392.20	39.811
392.56	39.268
392.92	40.965
393.28	39.645
393.64	41.007
393.99	38.729
394.35	40.385
394.71	39.711
395.07	40.000
395.42	41.162
395.78	40.649
396.14	40.906
396.50	41.103
396.85	40.877
397.21	40.382
397.57	41.662
397.92	41.707
398.28	40.415
398.64	40.980
399.00	41.578
399.35	41.455
399.71	40.856
400.07	40.568
400.42	41.350
400.78	41.556
401.14	41.341
401.49	40.955
401.85	42.045
402.21	41.437
402.57	41.394
402.92	42.245
403.28	42.286
403.63	40.718
403.99	42.357
404.35	40.727
404.70	41.787
405.06	40.186
405.42	41.547
405.77	41.600
406.13	41.422
406.49	41.810
406.84	41.937
407.20	41.135
407.55	42.119
407.91	42.933
408.27	42.310
408.62	42.143
408.98	42.157
409.34	40.959
409.69	41.677
410.05	41.760
410.40	42.752
410.76	41.935
411.11	41.978
411.47	41.725
411.83	42.334
412.18	41.991
412.54	41.407
412.89	41.446
413.25	40.909
413.60	42.187
413.96	41.044
414.31	41.191
414.67	41.445
415.03	42.583
415.38	42.655
415.74	41.672
416.09	42.456
416.45	41.968
416.80	42.234
417.16	43.901
417.51	43.265
417.87	41.426
418.22	41.703
418.58	42.414
418.93	42.199
419.29	42.139
419.64	42.443
420.00	41.768
420.35	41.855
420.71	42.319
421.06	41.587
421.42	42.222
421.77	42.433
422.12	41.269
422.48	40.961
422.83	41.351
423.19	41.381
423.54	42.020
423.90	42.841
424.25	42.099
424.61	42.143
424.96	42.799
425.31	40.587
425.67	40.562
426.02	41.029
426.38	41.697
426.73	41.194
427.09	41.155
427.44	42.151
427.79	42.093
428.15	43.036
428.50	42.305
428.85	42.849
429.21	41.800
429.56	41.680
429.92	41.067
430.27	40.417
430.62	40.707
430.98	41.412
431.33	40.670
431.68	41.728
432.04	41.800
432.39	41.176
432.74	41.652
433.10	41.370
433.45	41.516
433.80	41.574
434.16	41.720
434.51	40.737
434.86	42.303
435.22	41.912
435.57	41.824
435.92	41.194
436.28	42.349
436.63	41.004
436.98	41.442
437.34	40.966
437.69	42.182
438.04	41.877
438.39	41.731
438.75	41.952
439.10	41.788
439.45	41.854
439.81	43.082
440.16	40.768
440.51	41.008
440.86	41.112
441.22	42.269
441.57	41.932
441.92	41.863
442.27	41.604
442.63	41.338
442.98	42.366
443.33	41.033
443.68	41.198
444.03	40.800
444.39	40.652
444.74	42.424
445.09	40.485
445.44	41.115
445.79	40.376
446.15	40.551
446.50	40.819
446.85	41.316
447.20	41.458
447.55	42.769
447.91	40.706
448.26	41.903
448.61	41.040
448.96	41.528
449.31	42.238
449.66	41.362
450.02	40.279
450.37	41.383
450.72	40.948
451.07	40.768
451.42	40.790
451.77	41.104
452.12	40.473
452.47	40.920
452.83	41.317
453.18	41.809
453.53	40.136
453.88	41.347
454.23	41.901
454.58	42.762
454.93	42.403
455.28	40.337
455.63	40.352
455.98	42.202
456.34	41.080
456.69	42.204
457.04	40.805
457.39	40.736
457.74	40.859
458.09	39.793
458.44	39.966
458.79	40.184
459.14	40.801
459.49	39.988
459.84	40.499
460.19	40.542
460.54	39.931
460.89	40.483
461.24	40.801
461.59	40.267
461.94	40.259
462.29	41.365
462.64	40.140
462.99	39.883
463.34	40.933
463.69	41.213
464.04	39.594
464.39	40.464
464.74	39.929
465.09	39.083
465.44	40.055
465.79	39.318
466.14	40.230
466.49	39.155
466.84	40.397
467.19	39.952
467.54	39.625
467.89	38.776
468.24	39.791
468.59	39.683
468.94	39.524
469.29	39.910
469.64	39.157
469.99	40.460
470.34	39.762
470.68	40.086
471.03	39.932
471.38	40.028
471.73	39.307
472.08	39.211
472.43	39.698
472.78	39.039
473.13	40.180
473.48	38.639
473.83	38.841
474.17	39.328
474.52	39.206
474.87	39.405
475.22	38.363
475.57	37.990
475.92	37.122
476.27	37.204
476.61	38.389
476.96	37.658
477.31	37.310
477.66	38.567
478.01	38.265
478.36	38.445
478.70	37.331
479.05	38.605
479.40	37.718
479.75	37.926
480.10	37.624
480.45	36.602
480.79	36.025
481.14	36.888
481.49	37.209
481.84	37.174
482.19	36.665
482.53	36.330
482.88	36.063
483.23	36.262
483.58	36.761
483.92	36.504
484.27	35.033
484.62	36.336
484.97	35.199
485.31	36.130
485.66	34.857
486.01	33.272
486.36	32.420
486.70	31.808
487.05	32.634
487.40	33.299
487.75	32.913
488.09	33.758
488.44	33.756
488.79	35.588
489.13	35.371
489.48	35.114
489.83	34.355
490.17	35.423
490.52	34.987
490.87	36.002
491.22	35.107
491.56	34.305
491.91	35.319
492.26	33.532
492.60	35.392
492.95	34.378
493.30	34.346
493.64	34.204
493.99	34.308
494.34	34.459
494.68	34.707
495.03	35.103
495.37	34.574
495.72	35.478
496.07	34.849
496.41	33.540
496.76	33.993
497.11	33.138
497.45	34.141
497.80	33.925
498.14	33.382
498.49	34.049
498.84	32.934
499.18	33.238
499.53	33.523
499.87	32.945
500.22	33.208
500.56	34.029
500.91	32.356
501.26	32.907
501.60	33.318
501.95	32.768
502.29	33.177
502.64	33.659
502.98	32.866
503.33	32.587
503.67	32.947
504.02	33.022
504.36	32.569
504.71	32.291
505.06	32.241
505.40	32.766
505.75	31.099
506.09	32.119
506.44	32.166
506.78	32.294
507.13	32.408
507.47	33.232
507.82	32.877
508.16	31.763
508.51	32.775
508.85	32.373
509.19	32.296
509.54	32.041
509.88	31.736
510.23	31.825
510.57	32.817
510.92	32.470
511.26	32.066
511.61	32.469
511.95	30.950
512.30	32.768
512.64	32.133
512.98	31.994
513.33	32.762
513.67	30.896
514.02	31.602
514.36	31.841
514.70	31.931
515.05	32.013
515.39	31.464
515.74	31.926
516.08	32.197
516.42	32.464
516.77	31.940
517.11	31.132
517.46	32.280
517.80	32.056
518.14	31.442
518.49	32.555
518.83	32.216
519.17	31.755
519.52	31.919
519.86	32.116
520.20	32.197
520.55	32.974
520.89	31.813
521.23	32.449
521.58	32.173
521.92	31.170
522.26	31.361
522.61	32.523
522.95	31.737
523.29	31.284
523.64	31.768
523.98	31.362
524.32	31.363
524.66	31.088
525.01	31.556
525.35	31.722
525.69	30.665
526.04	31.340
526.38	31.361
526.72	31.718
527.06	31.827
527.41	30.260
527.75	31.897
528.09	31.021
528.43	31.103
528.78	30.547
529.12	31.152
529.46	30.802
529.80	31.188
530.15	31.277
530.49	30.708
530.83	31.266
531.17	31.201
531.51	31.582
531.86	31.548
532.20	31.160
532.54	30.045
532.88	31.386
533.22	29.606
533.57	30.185
533.91	30.223
534.25	30.194
534.59	30.628
534.93	30.399
535.27	29.873
535.62	30.464
535.96	30.132
536.30	29.816
536.64	29.491
536.98	29.728
537.32	29.427
537.66	29.867
538.01	29.954
538.35	30.187
538.69	30.887
539.03	29.240
539.37	28.498
539.71	28.710
540.05	30.000
540.39	29.169
540.73	28.719
541.07	29.656
541.42	30.463
541.76	29.871
542.10	29.301
542.44	28.808
542.78	29.776
543.12	28.983
543.46	30.033
543.80	29.408
544.14	28.755
544.48	28.889
544.82	27.774
545.16	29.083
545.50	27.892
545.84	28.495
546.18	28.485
546.52	28.768
546.86	29.003
547.20	28.456
547.54	28.323
547.88	28.380
548.22	28.020
548.56	28.302
548.90	26.825
549.24	27.677
549.58	28.854
549.92	27.747
550.26	28.551
550.60	28.077
550.94	28.592
551.28	28.164
551.62	27.822
551.96	27.789
552.30	29.147
552.64	28.803
552.98	28.407
553.32	28.388
553.66	27.812
554.00	27.248
554.34	27.536
554.68	28.326
555.02	27.504
555.36	27.070
555.69	26.793
556.03	27.860
556.37	27.490
556.71	27.217
557.05	27.031
557.39	27.782
557.73	27.170
558.07	27.991
558.41	26.411
558.75	27.186
559.08	27.144
559.42	27.362
559.76	27.426
560.10	27.480
560.44	26.765
560.78	25.682
561.12	27.111
561.45	27.510
561.79	26.632
562.13	26.828
562.47	26.844
562.81	26.987
563.15	25.819
563.48	26.592
563.82	26.810
564.16	25.311
564.50	25.130
564.84	25.790
565.17	26.512
565.51	26.390
565.85	26.269
566.19	25.986
566.52	26.282
566.86	24.714
567.20	25.531
567.54	25.571
567.88	25.312
568.21	25.344
568.55	25.076
568.89	25.632
569.23	24.020
569.56	23.927
569.90	23.245
570.24	23.574
570.57	23.563
570.91	22.786
571.25	22.854
571.59	23.358
571.92	22.523
572.26	22.819
572.60	22.793
572.93	22.579
573.27	22.686
573.61	22.641
573.95	22.661
574.28	22.337
574.62	21.914
574.96	21.434
575.29	22.139
575.63	21.926
575.97	21.921
576.30	22.039
576.64	21.607
576.98	21.633
577.31	21.996
577.65	21.629
577.98	21.512
578.32	21.207
578.66	21.677
578.99	21.182
579.33	21.206
579.67	20.992
580.00	21.506
580.34	22.069
580.67	21.413
581.01	21.273
581.35	21.129
581.68	21.257
582.02	20.728
582.35	21.049
582.69	20.959
583.02	20.967
583.36	21.167
583.70	21.503
584.03	21.238
584.37	21.291
584.70	21.212
585.04	21.404
585.37	20.783
585.71	20.982
586.04	20.947
586.38	21.343
586.72	21.375
587.05	20.864
587.39	20.818
587.72	21.129
588.06	20.891
588.39	21.564
588.73	21.179
589.06	21.377
589.40	21.616
589.73	21.542
590.07	21.174
590.40	21.666
590.73	21.663
591.07	22.263
591.40	22.227
591.74	22.597
592.07	22.077
592.41	22.282
592.74	21.011
593.08	21.419
593.41	21.702
593.75	20.675
594.08	21.019
594.41	21.068
594.75	21.479
595.08	21.904
595.42	21.576
595.75	21.510
596.09	21.292
596.42	21.768
596.75	22.203
597.09	22.338
597.42	21.459
597.75	21.863
598.09	22.130
598.42	21.607
598.76	21.403
599.09	20.905
599.42	20.706
599.76	21.193
600.09	20.911
600.42	20.709
600.76	20.250
601.09	20.692
601.42	21.233
601.76	20.645
602.09	21.700
602.42	21.417
602.76	21.483
603.09	21.400
603.42	21.125
603.76	21.113
604.09	20.938
604.42	21.484
604.76	21.974
605.09	20.882
605.42	20.992
605.75	20.861
606.09	21.025
606.42	21.496
606.75	20.821
607.09	21.139
607.42	21.095
607.75	20.338
608.08	20.712
608.42	20.977
608.75	20.920
609.08	20.629
609.41	20.514
609.75	20.772
610.08	21.536
610.41	21.276
610.74	20.482
611.07	21.393
611.41	20.756
611.74	21.619
612.07	21.687
612.40	20.881
612.73	21.053
613.07	21.659
613.40	21.222
613.73	20.661
614.06	22.043
614.39	21.395
614.72	21.053
615.06	21.218
615.39	21.285
615.72	21.063
616.05	20.999
616.38	21.178
616.71	22.506
617.05	21.849
617.38	22.008
617.71	21.321
618.04	21.635
618.37	21.467
618.70	21.655
619.03	23.355
619.36	20.978
619.69	22.676
620.03	22.527
620.36	22.594
620.69	22.877
621.02	22.788
621.35	22.318
621.68	22.508
622.01	22.833
622.34	23.298
622.67	22.966
623.00	22.304
623.33	21.873
623.66	22.302
623.99	22.754
624.32	22.539
624.65	22.599
624.99	21.317
625.32	21.289
625.65	22.239
625.98	22.905
626.31	23.095
626.64	23.837
626.97	22.776
627.30	23.358
627.63	24.528
627.96	22.876
628.29	23.535
628.62	23.971
628.95	25.283
629.28	23.084
629.61	21.907
629.94	23.429
630.26	23.737
630.59	24.214
630.92	22.989
631.25	22.705
631.58	23.524
631.91	24.037
632.24	23.207
632.57	24.239
632.90	23.355
633.23	23.602
633.56	24.972
633.89	24.349
634.22	25.085
634.55	25.089
634.88	24.072
635.20	25.687
635.53	24.217
635.86	25.248
636.19	24.824
636.52	24.221
636.85	23.940
637.18	24.770
637.51	26.359
637.83	21.825
638.16	24.552
638.49	24.937
638.82	25.917
639.15	24.500
639.48	26.683
639.81	26.408
640.13	26.042
640.46	24.564
640.79	26.288
641.12	24.209
641.45	26.536
641.77	25.331
642.10	26.462
642.43	26.126
642.76	26.780
643.09	27.301
643.41	25.797
643.74	26.852
644.07	25.915
644.40	27.761
644.73	28.346
645.05	28.051
645.38	25.434
645.71	26.892
646.04	27.907
646.36	30.885
646.69	27.592
647.02	27.551
647.35	29.038
647.67	28.142
648.00	29.756
648.33	25.083
648.66	26.818
648.98	26.087
649.31	26.009
649.64	26.756
649.96	25.633
650.29	26.698
650.62	26.052
650.94	27.391
651.27	27.703
651.60	26.789
651.92	27.955
652.25	25.081
652.58	26.168
652.90	27.014
653.23	24.037
653.56	25.039
653.88	27.100
654.21	27.330
654.54	24.917
654.86	25.701
655.19	22.973
655.52	16.975
655.84	15.371
656.17	19.971
656.49	26.924
656.82	26.498
657.15	19.386
657.47	14.341
657.80	10.917
658.13	11.080
658.45	16.166
658.78	16.319
659.10	16.728
659.43	17.427
659.75	17.865
660.08	20.190
660.41	23.184
660.73	25.921
661.06	25.955
661.38	29.818
661.71	28.077
662.03	28.600
662.36	23.062
662.68	24.699
663.01	30.303
663.33	29.936
663.66	29.412
663.98	26.350
664.31	27.101
664.63	27.126
664.96	25.352
665.28	31.967
665.61	26.901
665.93	28.974
666.26	28.600
666.58	27.197
666.91	31.078
667.23	31.011
667.56	26.782
667.88	28.632
668.21	31.557
668.53	29.067
668.86	30.087
669.18	29.851
669.50	30.870
669.83	28.540
670.15	28.889
670.48	28.540
670.80	31.897
671.13	30.573
671.45	25.957
671.77	32.383
672.10	28.835
672.42	27.032
672.75	26.534
673.07	27.289
673.39	27.667
673.72	26.758
674.04	28.431
674.37	27.379
674.69	27.812
675.01	26.569
675.34	31.417
675.66	30.105
675.98	28.513
676.31	30.042
676.63	29.299
676.95	29.560
677.28	27.336
677.60	27.912
677.92	30.591
678.25	29.569
678.57	30.279
678.89	27.856
679.22	28.684
679.54	26.718
679.86	27.523
680.18	26.655
680.51	27.128
680.83	27.046
681.15	26.415
681.48	27.788
681.80	28.433
682.12	24.138
682.44	27.079
682.77	27.902
683.09	33.262
683.41	29.933
683.73	31.347
684.06	28.512
684.38	28.180
684.70	28.682
685.02	27.205
685.34	27.473
685.67	26.049
685.99	26.117
686.31	25.768
686.63	24.028
686.96	26.964
687.28	26.173
687.60	24.457
687.92	27.422
688.24	26.236
688.56	28.112
688.89	29.876
689.21	30.568
689.53	27.766
689.85	30.599
690.17	26.501
690.49	30.149
690.82	28.505
691.14	28.795
691.46	26.371
691.78	28.514
692.10	28.306
692.42	28.144
692.74	28.216
693.06	27.021
693.39	29.979
693.71	29.694
694.03	29.474
694.35	27.706
694.67	29.291
694.99	31.707
695.31	28.922
695.63	33.732
695.95	31.785
696.27	27.919
696.59	30.829
696.91	32.124
697.23	28.169
697.56	29.638
697.88	27.198
698.20	25.833
698.52	29.462
698.84	28.062
699.16	27.880
699.48	27.316
699.80	29.469
700.12	33.766
700.44	32.095
700.76	32.597
701.08	29.598
701.40	27.374
701.72	31.778
702.04	34.091
702.36	29.745
702.68	35.411
703.00	27.978
703.32	29.787
703.64	29.491
703.96	33.983
704.28	34.012
704.60	31.965
704.91	33.234
705.23	30.499
705.55	34.219
705.87	36.877
706.19	33.569
706.51	36.449
706.83	33.939
707.15	32.773
707.47	31.818
707.79	29.975
708.11	29.452
708.43	30.476
708.74	29.847
709.06	31.948
709.38	31.234
709.70	34.012
710.02	35.015
710.34	32.121
710.66	32.836
710.98	34.659
711.29	31.686
711.61	34.513
711.93	34.615
712.25	39.228
712.57	34.926
712.89	37.024
713.20	33.739
713.52	38.158
713.84	33.861
714.16	33.537
714.48	33.621
714.80	37.082
715.11	31.124
715.43	34.421
715.75	32.464
716.07	33.866
716.39	33.542
716.70	33.555
717.02	36.691
717.34	34.982
717.66	39.925
717.97	39.044
718.29	31.481
718.61	36.496
718.93	37.868
719.24	38.408
719.56	36.610
719.88	33.220
720.20	36.824
720.51	36.237
720.83	34.944
721.15	36.567
721.46	37.234
721.78	37.276
722.10	38.113
722.42	37.594
722.73	37.079
723.05	36.066
723.37	36.842
723.68	40.541
724.00	32.520
724.32	39.919
724.63	38.211
724.95	38.912
725.27	40.486
725.58	40.234
725.90	38.686
726.22	36.604
726.53	33.333
726.85	38.225
727.16	40.569
727.48	34.752
727.80	36.742
728.11	34.420
728.43	36.538
728.74	36.918
729.06	36.861
729.38	39.706
729.69	36.655
730.01	32.765
730.32	34.375
730.64	34.114
730.96	29.043
731.27	34.106
731.59	33.639
731.90	33.236
732.22	33.230
732.53	31.889
732.85	34.936
733.16	33.119
733.48	37.542
733.80	31.169
734.11	33.439
734.43	34.024
734.74	32.286
735.06	32.665
735.37	35.549
735.69	33.439
736.00	36.275
736.32	36.449
736.63	33.866
736.95	33.866
737.26	29.252
737.58	30.323
737.89	36.789
738.21	34.130
738.52	34.286
738.83	32.830
739.15	37.308
739.46	37.956
739.78	34.375
740.09	34.154
740.41	33.871
740.72	33.798
741.04	38.889
741.35	31.667
741.66	47.111
741.98	41.038
742.29	42.584
742.61	45.690
742.92	33.937
743.23	40.171
743.55	40.000
743.86	39.912
744.18	43.363
744.49	47.847
744.80	44.601
745.12	44.545
745.43	38.326
745.74	47.297
746.06	46.789
746.37	39.462
746.68	46.606
747.00	43.056
747.31	41.905
747.62	39.381
747.94	39.207
748.25	37.872
748.56	42.291
748.88	45.050
749.19	42.500
749.50	45.581
749.82	39.024
750.13	33.469
750.44	36.861
750.75	34.035
751.07	36.656
751.38	37.282
751.69	33.935
752.01	36.090
752.32	36.823
752.63	31.560
752.94	35.246
753.26	39.600
753.57	32.927
753.88	39.453
754.19	36.786
754.51	35.764
754.82	33.213
755.13	36.604
755.44	35.714
755.75	35.401
756.07	34.043
756.38	31.387
756.69	30.872
757.00	32.934
757.31	32.938
757.63	33.918
757.94	29.759
758.25	32.108
758.56	29.136
758.87	30.108
759.18	32.727
759.50	30.721
759.81	33.956
760.12	31.562
760.43	31.805
760.74	32.609
761.05	31.921
761.36	30.481
761.67	31.534
761.99	32.298
762.30	34.375
762.61	41.985
762.92	40.234
763.23	39.916
763.54	40.800
763.85	37.109
764.16	41.154
764.47	38.023
764.78	33.216
765.10	31.646
765.41	35.103
765.72	33.533
766.03	36.364
766.34	31.000
766.65	40.851
766.96	35.470
767.27	47.208
767.58	42.708
767.89	52.105
768.20	44.253
768.51	45.685
768.82	46.789
769.13	37.805
769.44	37.247
769.75	40.773
770.06	33.945
770.37	40.724
770.68	44.907
770.99	39.556
771.30	33.607
771.61	43.049
771.92	38.115
772.23	41.176
772.54	44.103
772.85	42.932
773.16	51.064
773.47	52.174
773.78	52.792
774.09	52.976
774.39	54.386
774.70	49.383
775.01	52.899
775.32	61.438
775.63	53.947
775.94	52.518
776.25	57.480
776.56	58.955
776.87	62.295
777.18	56.250
777.48	62.595
777.79	59.091
778.10	61.481
778.41	61.607
778.72	54.015
779.03	57.047
779.34	53.691
779.65	59.459
779.95	42.945
780.26	49.673
780.57	54.483
780.88	67.188
781.19	57.895
781.50	56.081
781.80	45.912
782.11	47.458
782.42	44.937
782.73	47.239
783.04	58.108
783.34	54.930
783.65	62.329
783.96	56.716
784.27	60.140
784.57	51.079
784.88	56.481
785.19	68.254
785.50	64.151
785.81	60.448
786.11	71.311
786.42	62.016
786.73	64.602
787.04	69.811
787.34	66.071
787.65	71.000
787.96	69.369
788.26	64.463
788.57	63.559
788.88	69.421
789.19	60.417
789.49	66.667
789.80	59.542
790.11	71.429
790.41	77.228
790.72	74.699
791.03	77.174
791.33	74.419
791.64	80.412
791.95	71.287
792.25	93.333
792.56	87.013
792.87	91.026
793.17	93.671
793.48	87.356
793.79	77.011
794.09	87.500
794.40	63.866
794.70	61.765
795.01	58.519
795.32	54.676
795.62	62.205
795.93	62.931
796.23	67.257
796.54	70.588
796.85	101.351
797.15	90.141
797.46	100.000
797.76	91.566
798.07	77.215
798.37	90.769
798.68	98.485
798.99	77.465
799.29	81.818
799.60	76.136
799.90	90.411
800.21	97.015
800.51	96.552
800.82	119.298
801.12	100.000
801.43	106.061
801.73	98.649
802.04	106.349
802.34	83.951
802.65	101.563
802.95	125.424
803.26	109.375
803.56	72.857
803.87	103.077
804.17	97.059
804.48	138.889
804.78	100.000
805.09	98.529
805.39	117.308
805.70	108.929
806.00	116.393
806.30	96.970
806.61	90.244
806.91	86.076
807.22	89.474
807.52	92.537
807.83	98.592
808.13	120.313
808.43	118.333
808.74	84.211
809.04	107.246
809.35	111.940
809.65	86.842
809.95	120.968
810.26	106.780
810.56	114.286
810.86	154.545
811.17	161.905
811.47	128.333
811.77	118.519
812.08	150.909
812.38	148.000
812.69	183.333
812.99	152.273
813.29	134.694
813.59	126.190
813.90	142.857
814.20	123.636
814.50	92.308
814.81	116.176
815.11	114.286
815.41	108.197
815.72	171.429
816.02	136.364
816.32	135.714
816.62	150.000
816.93	160.976
817.23	164.286
817.53	136.364
817.84	175.758
818.14	141.304
818.44	148.889
818.74	191.176
819.04	137.500
819.35	160.000
819.65	191.176
819.95	200.000
820.25	280.000
820.56	184.615
820.86	131.818
821.16	167.442
821.46	164.103
821.76	142.000
822.07	151.429
822.37	170.000
822.67	193.939
822.97	129.412
823.27	221.429
823.57	181.081
823.88	195.000
824.18	230.000
824.48	173.810
824.78	256.000
825.08	245.833
825.38	167.568
825.69	173.171
825.99	279.167
826.29	162.069
826.59	173.684
826.89	150.000
827.19	191.176
827.49	206.452
827.79	161.364
828.09	145.455
828.39	125.532
828.70	132.653
829.00	251.852
829.30	161.290
829.60	150.000
829.90	360.000
830.20	228.571
830.50	191.304
830.80	221.739
831.10	183.333
831.40	223.333
831.70	252.174
832.00	261.538
832.30	211.111
832.60	368.750
832.90	216.667
833.20	478.571
833.50	222.581
833.80	210.345
834.10	221.875
834.40	234.615
834.70	344.444
835.00	342.857
835.30	168.571
835.60	315.385
835.90	258.621
836.20	414.286
836.50	227.586
836.80	176.000
837.10	186.111
837.40	280.952
837.70	382.353
838.00	240.741
838.30	276.190
838.60	314.286
838.90	223.077
839.19	285.000
839.49	442.857
839.79	315.000
840.09	310.000
840.39	261.905
840.69	260.870
840.99	344.444
841.29	590.000
841.59	391.667
841.88	375.000
842.18	206.897
842.48	314.286
842.78	206.667
843.08	234.783
843.38	212.500
843.68	1016.667
843.97	273.077
844.27	227.586
844.57	242.857
844.87	418.750
845.17	274.074
845.47	1700.000
845.76	522.222
846.06	370.588
846.36	712.500
846.66	442.857
846.96	362.500
847.25	472.727
847.55	518.182
847.85	273.913
848.15	550.000
848.44	428.571
848.74	305.556
849.04	347.059
849.34	630.000
849.63	278.947
849.93	563.636
850.23	1020.000
850.53	528.571
850.82	2650.000
851.12	-4900.000
851.42	4900.000
851.71	320.000
852.01	-1366.667
852.31	229.167
852.61	1800.000
852.90	285.714
853.20	224.000
853.50	358.824
853.79	304.762
854.09	262.500
854.39	400.000
854.68	170.270
854.98	206.452
855.28	200.000
855.57	231.034
855.87	240.741
856.17	257.895
856.46	320.000
856.76	270.588
857.05	234.483
857.35	262.500
857.65	426.667
857.94	234.783
858.24	273.077
858.53	335.000
858.83	318.182
859.13	393.333
859.42	0.000
859.72	588.889
860.01	500.000
860.31	218.182
860.60	363.158
860.90	282.609
861.20	611.111
861.49	600.000
861.79	-5100.000
862.08	675.000
862.38	342.857
862.67	400.000
862.97	382.353
863.26	644.444
863.56	300.000
863.85	483.333
864.15	687.500
864.44	466.667
864.74	916.667
865.03	737.500
865.33	326.316
865.62	572.727
865.92	561.538
866.21	508.333
866.51	0.000
866.80	536.364
867.10	1300.000
867.39	484.615
867.69	463.636
867.98	284.211
868.27	527.273
868.57	347.368
868.86	-5400.000
869.16	425.000
869.45	2100.000
869.75	-4600.000
870.04	525.000
870.33	728.571
870.63	1275.000
870.92	2500.000
871.22	742.857
871.51	358.824
871.80	257.143
872.10	428.571
>>>>>End Processed Spectral Data<<<<<
