SpectraSuite Data File
++++++++++++++++++++++++++++++++++++
Date: Wed May 13 19:53:14 PDT 2015
User: schluterlab
Dark Spectrum Present: Yes
Reference Spectrum Present: Yes
Number of Sampled Component Spectra: 1
Spectrometers: USB2E3373
Integration Time (usec): 3000 (USB2E3373)
Spectra Averaged: 3 (USB2E3373)
Boxcar Smoothing: 0 (USB2E3373)
Correct for Electrical Dark: No (USB2E3373)
Strobe/Lamp Enabled: No (USB2E3373)
Correct for Detector Non-linearity: No (USB2E3373)
Correct for Stray Light: No (USB2E3373)
Number of Pixels in Processed Spectrum: 2048
>>>>>Begin Processed Spectral Data<<<<<
178.53	0.000
178.91	-1300.000
179.29	-1325.000
179.67	-250.000
180.04	-1150.000
180.42	2950.000
180.80	1040.000
181.18	-1200.000
181.56	642.857
181.94	0.000
182.31	-728.571
182.69	1866.667
183.07	-550.000
183.45	-533.333
183.83	600.000
184.20	-390.000
184.58	2100.000
184.96	5900.000
185.34	-800.000
185.72	-587.500
186.09	-2350.000
186.47	2400.000
186.85	2600.000
187.23	5300.000
187.61	-1600.000
187.98	1400.000
188.36	563.636
188.74	509.091
189.12	-860.000
189.49	540.000
189.87	-6000.000
190.25	-1400.000
190.63	435.714
191.00	430.769
191.38	966.667
191.76	-1400.000
192.14	1650.000
192.51	725.000
192.89	1000.000
193.27	625.000
193.65	-1400.000
194.02	640.000
194.40	920.000
194.78	570.000
195.15	525.000
195.53	610.000
195.91	-2450.000
196.29	337.500
196.66	300.000
197.04	-380.000
197.42	0.000
197.79	680.000
198.17	-5300.000
198.55	742.857
198.92	687.500
199.30	980.000
199.68	0.000
200.05	355.556
200.43	900.000
200.81	4000.000
201.18	1700.000
201.56	-1900.000
201.94	588.889
202.31	566.667
202.69	475.000
203.07	520.000
203.44	0.000
203.82	1350.000
204.19	800.000
204.57	414.286
204.95	662.500
205.32	1300.000
205.70	527.273
206.08	392.857
206.45	2700.000
206.83	343.750
207.20	933.333
207.58	900.000
207.96	327.778
208.33	687.500
208.71	-833.333
209.08	800.000
209.46	588.889
209.84	545.455
210.21	-1400.000
210.59	1350.000
210.96	-612.500
211.34	2950.000
211.71	620.000
212.09	766.667
212.46	0.000
212.84	1766.667
213.22	1400.000
213.59	-4600.000
213.97	950.000
214.34	642.857
214.72	563.636
215.09	940.000
215.47	-2400.000
215.84	-2400.000
216.22	1966.667
216.59	414.286
216.97	1725.000
217.34	518.182
217.72	-650.000
218.09	0.000
218.47	-5800.000
218.84	655.556
219.22	771.429
219.59	1666.667
219.97	-642.857
220.34	1080.000
220.72	-1600.000
221.09	414.286
221.47	1625.000
221.84	-1116.667
222.22	0.000
222.59	1475.000
222.97	-2900.000
223.34	1280.000
223.72	476.923
224.09	1200.000
224.46	2650.000
224.84	-4300.000
225.21	-1040.000
225.59	-5500.000
225.96	620.000
226.34	320.000
226.71	2400.000
227.08	687.500
227.46	540.000
227.83	-1025.000
228.21	-2600.000
228.58	622.222
228.95	-3150.000
229.33	-2650.000
229.70	1766.667
230.08	871.429
230.45	-940.000
230.82	391.667
231.20	833.333
231.57	685.714
231.95	533.333
232.32	231.818
232.69	445.455
233.07	771.429
233.44	384.615
233.81	-1933.333
234.19	289.474
234.56	475.000
234.93	416.667
235.31	454.545
235.68	330.769
236.05	371.429
236.43	187.879
236.80	263.158
237.17	4900.000
237.55	252.381
237.92	214.286
238.29	247.619
238.67	167.742
239.04	217.241
239.41	163.889
239.79	132.609
240.16	150.000
240.53	163.636
240.91	90.196
241.28	104.000
241.65	120.000
242.02	100.000
242.40	98.387
242.77	96.667
243.14	72.043
243.51	87.640
243.89	80.000
244.26	78.889
244.63	69.892
245.00	62.766
245.38	65.347
245.75	63.551
246.12	52.294
246.49	63.504
246.87	62.400
247.24	58.462
247.61	48.571
247.98	52.288
248.36	43.243
248.73	47.134
249.10	49.045
249.47	46.328
249.84	46.524
250.22	40.107
250.59	40.828
250.96	39.899
251.33	46.919
251.70	39.604
252.08	40.952
252.45	38.117
252.82	34.783
253.19	40.851
253.56	40.392
253.94	37.759
254.31	36.719
254.68	35.769
255.05	34.686
255.42	36.179
255.79	33.824
256.16	36.101
256.54	29.329
256.91	33.452
257.28	31.295
257.65	32.013
258.02	32.298
258.39	29.653
258.76	31.104
259.14	31.548
259.51	32.219
259.88	31.366
260.25	31.420
260.62	29.191
260.99	31.677
261.36	29.730
261.73	30.372
262.10	27.907
262.47	30.986
262.85	30.641
263.22	25.926
263.59	32.194
263.96	26.648
264.33	30.548
264.70	28.158
265.07	31.458
265.44	29.798
265.81	26.764
266.18	30.905
266.55	26.585
266.92	25.799
267.29	29.398
267.66	25.000
268.03	24.091
268.40	25.935
268.77	25.298
269.14	25.901
269.51	27.991
269.88	27.739
270.25	24.379
270.62	27.416
270.99	25.806
271.36	26.824
271.73	25.935
272.10	25.435
272.47	25.376
272.84	26.840
273.21	25.786
273.58	25.546
273.95	23.899
274.32	25.620
274.69	24.839
275.06	23.622
275.43	24.894
275.80	24.449
276.17	23.625
276.54	23.701
276.91	23.320
277.28	24.219
277.65	22.824
278.02	25.052
278.39	26.172
278.76	23.091
279.13	23.962
279.50	24.953
279.87	23.108
280.23	24.950
280.60	25.338
280.97	22.921
281.34	23.186
281.71	23.273
282.08	24.760
282.45	22.000
282.82	22.913
283.19	20.143
283.56	22.281
283.92	22.843
284.29	22.751
284.66	22.505
285.03	20.976
285.40	22.711
285.77	22.222
286.14	18.826
286.51	23.833
286.87	23.419
287.24	21.987
287.61	21.027
287.98	22.565
288.35	21.712
288.72	20.249
289.08	23.005
289.45	19.440
289.82	22.439
290.19	18.995
290.56	19.908
290.93	19.789
291.29	20.706
291.66	19.469
292.03	20.785
292.40	21.292
292.77	18.195
293.13	21.045
293.50	18.950
293.87	18.815
294.24	18.519
294.60	16.594
294.97	19.041
295.34	20.874
295.71	19.176
296.08	18.376
296.44	17.194
296.81	16.909
297.18	19.241
297.55	15.567
297.91	17.150
298.28	19.411
298.65	19.060
299.02	18.314
299.38	16.733
299.75	15.768
300.12	17.114
300.48	15.625
300.85	16.400
301.22	16.815
301.59	14.773
301.95	18.010
302.32	16.816
302.69	16.129
303.05	16.848
303.42	14.815
303.79	16.082
304.15	14.918
304.52	15.180
304.89	14.983
305.25	15.081
305.62	16.082
305.99	17.591
306.35	16.107
306.72	15.247
307.09	15.760
307.45	16.441
307.82	14.509
308.19	16.004
308.55	15.965
308.92	15.145
309.29	13.622
309.65	15.164
310.02	15.433
310.38	15.054
310.75	16.051
311.12	17.093
311.48	15.047
311.85	14.780
312.22	15.505
312.58	15.281
312.95	16.579
313.31	14.563
313.68	14.969
314.05	16.568
314.41	15.980
314.78	15.206
315.14	15.889
315.51	15.654
315.87	15.941
316.24	16.584
316.61	16.179
316.97	15.558
317.34	16.928
317.70	16.157
318.07	16.169
318.43	17.025
318.80	17.619
319.16	17.043
319.53	17.167
319.89	19.429
320.26	19.300
320.62	19.444
320.99	19.192
321.35	18.182
321.72	19.507
322.08	19.250
322.45	20.796
322.81	20.543
323.18	21.098
323.54	20.130
323.91	21.887
324.27	22.658
324.64	21.715
325.00	21.551
325.37	23.658
325.73	23.339
326.10	24.890
326.46	23.566
326.83	25.798
327.19	25.534
327.56	24.826
327.92	26.072
328.29	26.886
328.65	26.335
329.01	26.173
329.38	27.012
329.74	27.424
330.11	27.898
330.47	28.283
330.84	29.228
331.20	26.503
331.56	28.716
331.93	29.352
332.29	27.862
332.66	28.673
333.02	28.519
333.38	29.630
333.75	29.323
334.11	29.181
334.48	29.104
334.84	29.504
335.20	30.273
335.57	29.374
335.93	30.446
336.29	30.861
336.66	30.748
337.02	30.498
337.38	31.204
337.75	30.392
338.11	30.886
338.47	31.308
338.84	31.989
339.20	30.917
339.56	31.843
339.93	31.455
340.29	32.065
340.65	31.729
341.02	31.501
341.38	31.762
341.74	31.667
342.11	32.227
342.47	31.718
342.83	32.962
343.20	32.468
343.56	31.845
343.92	33.333
344.28	32.143
344.65	33.964
345.01	31.650
345.37	31.904
345.73	32.572
346.10	34.868
346.46	34.237
346.82	33.196
347.19	32.832
347.55	32.184
347.91	33.981
348.27	33.936
348.63	34.866
349.00	34.547
349.36	35.222
349.72	34.483
350.08	33.712
350.45	35.313
350.81	35.175
351.17	34.765
351.53	33.579
351.89	34.736
352.26	36.306
352.62	34.643
352.98	35.494
353.34	35.415
353.70	33.552
354.07	35.242
354.43	34.127
354.79	34.031
355.15	34.397
355.51	36.211
355.87	36.163
356.24	34.853
356.60	34.082
356.96	37.088
357.32	36.877
357.68	36.220
358.04	35.154
358.40	36.025
358.77	36.463
359.13	35.991
359.49	36.235
359.85	36.190
360.21	36.045
360.57	36.031
360.93	37.923
361.29	36.206
361.66	36.997
362.02	36.940
362.38	37.262
362.74	36.458
363.10	35.381
363.46	36.537
363.82	36.735
364.18	36.637
364.54	38.707
364.90	37.323
365.26	36.471
365.62	37.984
365.98	38.641
366.35	37.393
366.71	38.684
367.07	37.509
367.43	37.808
367.79	38.401
368.15	37.716
368.51	37.863
368.87	37.901
369.23	38.259
369.59	38.161
369.95	39.044
370.31	39.886
370.67	38.188
371.03	39.326
371.39	38.338
371.75	38.456
372.11	37.624
372.47	39.296
372.83	38.689
373.19	39.379
373.55	39.690
373.91	40.501
374.27	37.732
374.63	38.764
374.99	38.701
375.35	37.962
375.71	37.834
376.07	39.026
376.42	39.546
376.78	38.767
377.14	38.738
377.50	39.470
377.86	39.029
378.22	39.254
378.58	38.346
378.94	38.529
379.30	38.995
379.66	40.165
380.02	39.742
380.38	38.919
380.74	39.496
381.09	39.731
381.45	40.258
381.81	39.435
382.17	40.000
382.53	39.371
382.89	39.198
383.25	39.837
383.61	40.025
383.97	39.775
384.32	38.989
384.68	38.786
385.04	40.565
385.40	39.690
385.76	39.681
386.12	39.961
386.48	40.025
386.83	39.320
387.19	40.940
387.55	39.023
387.91	39.661
388.27	39.608
388.62	39.521
388.98	39.189
389.34	40.050
389.70	39.975
390.06	40.051
390.42	40.402
390.77	41.158
391.13	40.204
391.49	40.673
391.85	39.847
392.20	40.631
392.56	39.962
392.92	39.612
393.28	38.994
393.64	39.928
393.99	39.279
394.35	40.571
394.71	39.523
395.07	38.879
395.42	39.864
395.78	40.585
396.14	40.348
396.50	40.789
396.85	39.987
397.21	39.827
397.57	39.430
397.92	39.543
398.28	38.453
398.64	39.725
399.00	39.284
399.35	38.466
399.71	38.831
400.07	39.681
400.42	38.834
400.78	38.420
401.14	38.841
401.49	38.567
401.85	38.959
402.21	38.144
402.57	38.865
402.92	38.777
403.28	39.788
403.63	39.109
403.99	39.108
404.35	38.000
404.70	38.729
405.06	38.730
405.42	38.927
405.77	37.714
406.13	37.754
406.49	38.734
406.84	37.921
407.20	38.475
407.55	38.545
407.91	38.533
408.27	38.290
408.62	37.508
408.98	37.500
409.34	37.700
409.69	37.548
410.05	38.352
410.40	37.125
410.76	37.575
411.11	36.671
411.47	36.741
411.83	36.775
412.18	36.178
412.54	37.422
412.89	37.108
413.25	36.659
413.60	38.110
413.96	35.944
414.31	36.087
414.67	37.516
415.03	36.358
415.38	36.662
415.74	37.235
416.09	37.100
416.45	36.212
416.80	37.277
417.16	37.332
417.51	37.757
417.87	35.324
418.22	37.476
418.58	37.702
418.93	36.425
419.29	36.919
419.64	36.713
420.00	35.732
420.35	36.000
420.71	37.059
421.06	35.979
421.42	35.848
421.77	36.547
422.12	35.991
422.48	34.377
422.83	36.284
423.19	34.862
423.54	36.506
423.90	36.522
424.25	35.455
424.61	35.060
424.96	34.985
425.31	34.275
425.67	34.663
426.02	34.914
426.38	36.508
426.73	35.342
427.09	34.833
427.44	34.963
427.79	34.560
428.15	35.298
428.50	34.816
428.85	35.280
429.21	34.953
429.56	34.111
429.92	34.977
430.27	33.962
430.62	33.897
430.98	35.236
431.33	33.041
431.68	34.555
432.04	34.611
432.39	34.209
432.74	34.650
433.10	34.975
433.45	34.636
433.80	34.202
434.16	34.562
434.51	33.421
434.86	34.436
435.22	34.408
435.57	34.894
435.92	34.582
436.28	35.172
436.63	34.603
436.98	34.402
437.34	35.003
437.69	35.298
438.04	34.120
438.39	34.567
438.75	34.922
439.10	34.749
439.45	34.298
439.81	34.260
440.16	33.879
440.51	34.915
440.86	34.511
441.22	35.150
441.57	34.501
441.92	35.261
442.27	34.984
442.63	34.123
442.98	35.099
443.33	35.380
443.68	33.815
444.03	34.602
444.39	34.469
444.74	34.361
445.09	35.472
445.44	35.210
445.79	35.131
446.15	35.204
446.50	34.518
446.85	34.789
447.20	34.472
447.55	35.008
447.91	35.190
448.26	34.224
448.61	34.935
448.96	35.548
449.31	35.377
449.66	35.059
450.02	34.429
450.37	35.034
450.72	35.138
451.07	35.344
451.42	33.799
451.77	35.291
452.12	35.104
452.47	34.764
452.83	35.256
453.18	35.941
453.53	36.178
453.88	35.381
454.23	35.983
454.58	35.191
454.93	35.410
455.28	35.037
455.63	35.073
455.98	35.179
456.34	34.987
456.69	34.189
457.04	34.489
457.39	34.775
457.74	34.707
458.09	34.445
458.44	34.151
458.79	33.514
459.14	34.932
459.49	33.684
459.84	33.850
460.19	33.353
460.54	32.986
460.89	32.803
461.24	34.426
461.59	34.631
461.94	33.970
462.29	33.769
462.64	34.397
462.99	32.206
463.34	34.200
463.69	32.583
464.04	33.681
464.39	33.449
464.74	33.333
465.09	32.690
465.44	31.468
465.79	32.606
466.14	32.786
466.49	32.369
466.84	32.516
467.19	31.865
467.54	32.063
467.89	32.473
468.24	32.868
468.59	32.967
468.94	31.460
469.29	32.648
469.64	32.329
469.99	32.612
470.34	32.695
470.68	32.830
471.03	31.156
471.38	33.009
471.73	32.512
472.08	33.224
472.43	30.590
472.78	32.456
473.13	31.964
473.48	32.210
473.83	31.524
474.17	30.865
474.52	31.017
474.87	30.473
475.22	31.515
475.57	30.897
475.92	30.749
476.27	31.003
476.61	30.943
476.96	30.291
477.31	29.409
477.66	30.853
478.01	29.169
478.36	31.095
478.70	30.114
479.05	29.766
479.40	30.757
479.75	29.283
480.10	29.324
480.45	29.938
480.79	28.476
481.14	28.963
481.49	29.093
481.84	28.669
482.19	28.623
482.53	28.211
482.88	28.618
483.23	28.598
483.58	28.753
483.92	28.351
484.27	26.841
484.62	28.319
484.97	27.079
485.31	27.911
485.66	26.745
486.01	26.069
486.36	24.654
486.70	24.725
487.05	25.372
487.40	25.460
487.75	25.548
488.09	25.902
488.44	26.484
488.79	26.944
489.13	27.235
489.48	26.223
489.83	26.198
490.17	27.356
490.52	26.838
490.87	26.640
491.22	26.558
491.56	25.831
491.91	26.338
492.26	26.137
492.60	26.959
492.95	25.164
493.30	25.981
493.64	26.738
493.99	25.627
494.34	26.503
494.68	26.374
495.03	26.363
495.37	26.152
495.72	26.608
496.07	26.589
496.41	25.929
496.76	26.077
497.11	25.619
497.45	26.129
497.80	25.480
498.14	25.362
498.49	25.707
498.84	25.695
499.18	25.238
499.53	25.119
499.87	25.862
500.22	24.729
500.56	26.019
500.91	25.192
501.26	24.514
501.60	25.534
501.95	24.794
502.29	25.258
502.64	25.791
502.98	25.386
503.33	24.543
503.67	24.640
504.02	24.322
504.36	25.316
504.71	24.377
505.06	25.446
505.40	24.016
505.75	24.108
506.09	24.198
506.44	24.815
506.78	23.380
507.13	24.331
507.47	24.242
507.82	24.975
508.16	24.823
508.51	24.252
508.85	24.280
509.19	24.184
509.54	24.184
509.88	24.730
510.23	24.987
510.57	24.561
510.92	24.392
511.26	23.741
511.61	24.378
511.95	23.486
512.30	24.019
512.64	23.858
512.98	23.580
513.33	23.876
513.67	23.159
514.02	23.755
514.36	24.522
514.70	24.405
515.05	23.759
515.39	23.556
515.74	24.155
516.08	24.427
516.42	23.751
516.77	23.969
517.11	24.417
517.46	22.968
517.80	23.751
518.14	23.277
518.49	23.454
518.83	23.068
519.17	23.672
519.52	24.392
519.86	24.301
520.20	23.988
520.55	24.057
520.89	24.209
521.23	24.729
521.58	23.890
521.92	24.372
522.26	23.063
522.61	23.801
522.95	23.634
523.29	23.615
523.64	23.659
523.98	23.352
524.32	22.859
524.66	23.752
525.01	23.468
525.35	23.730
525.69	22.229
526.04	22.056
526.38	23.246
526.72	22.699
527.06	22.662
527.41	22.153
527.75	23.215
528.09	23.314
528.43	24.283
528.78	23.602
529.12	22.727
529.46	22.903
529.80	23.453
530.15	23.676
530.49	21.908
530.83	23.291
531.17	23.956
531.51	24.319
531.86	23.419
532.20	22.947
532.54	22.550
532.88	22.593
533.22	21.861
533.57	22.469
533.91	22.757
534.25	23.086
534.59	22.636
534.93	21.654
535.27	22.450
535.62	22.589
535.96	23.038
536.30	22.378
536.64	23.117
536.98	22.429
537.32	22.383
537.66	21.467
538.01	22.515
538.35	22.237
538.69	22.399
539.03	21.767
539.37	21.853
539.71	21.452
540.05	22.614
540.39	22.458
540.73	22.122
541.07	23.102
541.42	22.374
541.76	22.516
542.10	22.316
542.44	22.053
542.78	22.398
543.12	21.689
543.46	22.426
543.80	22.316
544.14	21.502
544.48	22.095
544.82	21.809
545.16	21.861
545.50	21.208
545.84	20.497
546.18	22.222
546.52	22.092
546.86	21.649
547.20	22.050
547.54	22.512
547.88	21.939
548.22	21.482
548.56	21.384
548.90	20.038
549.24	21.010
549.58	21.282
549.92	22.115
550.26	21.946
550.60	20.954
550.94	21.620
551.28	21.434
551.62	21.927
551.96	22.105
552.30	22.526
552.64	22.042
552.98	20.542
553.32	21.713
553.66	22.836
554.00	21.620
554.34	21.601
554.68	21.459
555.02	21.157
555.36	21.155
555.69	20.771
556.03	21.198
556.37	20.737
556.71	20.668
557.05	21.849
557.39	21.274
557.73	21.665
558.07	21.682
558.41	20.984
558.75	21.749
559.08	21.849
559.42	20.711
559.76	21.176
560.10	20.771
560.44	20.894
560.78	19.894
561.12	21.108
561.45	21.317
561.79	20.435
562.13	19.920
562.47	21.516
562.81	20.781
563.15	20.535
563.48	20.093
563.82	20.091
564.16	20.013
564.50	19.922
564.84	20.038
565.17	19.562
565.51	20.575
565.85	21.510
566.19	20.163
566.52	19.633
566.86	19.952
567.20	20.342
567.54	19.692
567.88	19.392
568.21	19.577
568.55	19.161
568.89	19.309
569.23	18.538
569.56	18.178
569.90	17.849
570.24	17.689
570.57	17.681
570.91	17.550
571.25	17.233
571.59	17.555
571.92	17.224
572.26	17.533
572.60	17.417
572.93	17.121
573.27	17.539
573.61	17.253
573.95	17.028
574.28	16.533
574.62	16.715
574.96	16.440
575.29	16.586
575.63	16.667
575.97	16.740
576.30	16.861
576.64	16.452
576.98	16.626
577.31	16.959
577.65	16.156
577.98	16.365
578.32	15.667
578.66	16.352
578.99	16.457
579.33	16.630
579.67	16.152
580.00	16.711
580.34	16.754
580.67	16.568
581.01	16.888
581.35	16.281
581.68	16.254
582.02	16.075
582.35	16.203
582.69	16.430
583.02	16.091
583.36	16.878
583.70	16.558
584.03	16.719
584.37	16.733
584.70	16.405
585.04	16.707
585.37	16.682
585.71	16.424
586.04	16.453
586.38	16.588
586.72	16.957
587.05	16.083
587.39	16.227
587.72	16.259
588.06	16.649
588.39	16.927
588.73	17.072
589.06	17.077
589.40	16.633
589.73	17.283
590.07	16.762
590.40	16.624
590.73	17.564
591.07	17.460
591.40	17.798
591.74	17.922
592.07	17.757
592.41	17.363
592.74	16.854
593.08	17.388
593.41	17.146
593.75	16.271
594.08	16.929
594.41	17.427
594.75	16.821
595.08	16.858
595.42	17.163
595.75	16.809
596.09	17.048
596.42	17.289
596.75	17.813
597.09	18.225
597.42	17.243
597.75	17.163
598.09	17.391
598.42	17.741
598.76	17.146
599.09	16.686
599.42	16.921
599.76	17.167
600.09	16.685
600.42	16.581
600.76	16.964
601.09	16.393
601.42	17.047
601.76	17.040
602.09	16.443
602.42	17.237
602.76	17.453
603.09	17.034
603.42	16.907
603.76	16.845
604.09	17.138
604.42	16.918
604.76	17.672
605.09	17.169
605.42	17.187
605.75	16.970
606.09	16.917
606.42	16.960
606.75	17.420
607.09	16.953
607.42	17.202
607.75	16.709
608.08	16.630
608.42	17.391
608.75	16.862
609.08	17.484
609.41	16.468
609.75	17.246
610.08	17.813
610.41	16.201
610.74	17.408
611.07	17.540
611.41	17.468
611.74	17.597
612.07	18.012
612.40	18.048
612.73	16.947
613.07	17.565
613.40	18.273
613.73	16.518
614.06	17.581
614.39	17.829
614.72	17.421
615.06	17.805
615.39	16.879
615.72	16.769
616.05	16.853
616.38	17.899
616.71	18.112
617.05	18.257
617.38	17.378
617.71	18.078
618.04	17.909
618.37	18.037
618.70	17.797
619.03	18.947
619.36	18.330
619.69	18.239
620.03	19.780
620.36	18.449
620.69	18.425
621.02	19.395
621.35	18.403
621.68	18.069
622.01	19.040
622.34	19.592
622.67	18.175
623.00	18.415
623.33	17.798
623.66	18.585
623.99	18.189
624.32	18.402
624.65	18.573
624.99	18.059
625.32	17.958
625.65	18.557
625.98	19.370
626.31	18.585
626.64	19.755
626.97	20.033
627.30	18.703
627.63	19.770
627.96	20.269
628.29	20.385
628.62	19.396
628.95	20.189
629.28	19.252
629.61	20.440
629.94	19.524
630.26	20.114
630.59	20.305
630.92	19.540
631.25	19.447
631.58	20.320
631.91	20.081
632.24	20.886
632.57	20.567
632.90	21.382
633.23	22.260
633.56	20.226
633.89	20.612
634.22	22.020
634.55	22.130
634.88	19.401
635.20	22.103
635.53	22.771
635.86	21.782
636.19	19.412
636.52	20.531
636.85	20.619
637.18	20.507
637.51	21.868
637.83	19.359
638.16	20.205
638.49	22.922
638.82	21.871
639.15	21.625
639.48	22.569
639.81	21.850
640.13	22.526
640.46	23.758
640.79	22.193
641.12	22.146
641.45	22.346
641.77	23.564
642.10	22.076
642.43	23.874
642.76	22.446
643.09	23.926
643.41	20.941
643.74	25.154
644.07	21.494
644.40	23.620
644.73	24.094
645.05	24.406
645.38	22.591
645.71	24.477
646.04	24.751
646.36	25.209
646.69	23.913
647.02	23.299
647.35	24.055
647.67	23.186
648.00	23.740
648.33	22.937
648.66	23.485
648.98	23.688
649.31	22.571
649.64	22.720
649.96	22.057
650.29	22.907
650.62	22.492
650.94	24.797
651.27	23.480
651.60	23.794
651.92	22.045
652.25	22.964
652.58	22.586
652.90	23.223
653.23	21.572
653.56	22.835
653.88	22.821
654.21	24.645
654.54	23.597
654.86	23.676
655.19	20.946
655.52	13.449
655.84	12.160
656.17	15.615
656.49	21.188
656.82	21.507
657.15	16.087
657.47	11.889
657.80	9.254
658.13	9.431
658.45	13.887
658.78	13.969
659.10	14.588
659.43	15.180
659.75	15.766
660.08	17.215
660.41	19.739
660.73	21.347
661.06	22.134
661.38	24.182
661.71	25.000
662.03	24.655
662.36	21.869
662.68	24.699
663.01	26.263
663.33	26.115
663.66	23.109
663.98	27.214
664.31	25.210
664.63	24.291
664.96	23.340
665.28	26.025
665.61	25.731
665.93	24.748
666.26	25.761
666.58	24.895
666.91	24.947
667.23	27.191
667.56	22.894
667.88	27.564
668.21	25.373
668.53	25.163
668.86	25.758
669.18	28.145
669.50	26.087
669.83	28.540
670.15	28.667
670.48	28.758
670.80	27.155
671.13	26.964
671.45	25.319
671.77	23.422
672.10	26.063
672.42	22.792
672.75	23.881
673.07	21.831
673.39	23.327
673.72	22.656
674.04	24.118
674.37	24.466
674.69	23.926
675.01	22.803
675.34	27.105
675.66	29.263
675.98	26.273
676.31	24.580
676.63	28.025
676.95	25.786
677.28	24.065
677.60	25.055
677.92	25.527
678.25	25.667
678.57	23.108
678.89	25.451
679.22	24.558
679.54	25.382
679.86	24.587
680.18	21.825
680.51	24.291
680.83	23.310
681.15	26.038
681.48	25.709
681.80	23.598
682.12	22.605
682.44	22.050
682.77	24.440
683.09	27.682
683.41	26.164
683.73	24.724
684.06	25.000
684.38	23.092
684.70	25.000
685.02	24.578
685.34	21.795
685.67	20.280
685.99	20.447
686.31	21.843
686.63	21.378
686.96	22.143
687.28	22.924
687.60	21.920
687.92	24.497
688.24	22.433
688.56	24.699
688.89	23.444
689.21	25.983
689.53	26.931
689.85	27.051
690.17	24.224
690.49	26.752
690.82	25.000
691.14	22.768
691.46	24.262
691.78	24.297
692.10	23.967
692.42	24.351
692.74	22.407
693.06	24.894
693.39	25.051
693.71	23.581
694.03	24.211
694.35	24.892
694.67	26.087
694.99	24.634
695.31	24.510
695.63	24.641
695.95	27.384
696.27	26.396
696.59	24.611
696.91	27.979
697.23	23.944
697.56	25.373
697.88	22.086
698.20	24.167
698.52	26.882
698.84	24.053
699.16	24.654
699.48	23.515
699.80	25.121
700.12	28.571
700.44	26.790
700.76	30.663
701.08	28.736
701.40	27.933
701.72	30.029
702.04	30.966
702.36	28.045
702.68	28.895
703.00	26.870
703.32	24.468
703.64	26.542
703.96	28.691
704.28	29.070
704.60	27.566
704.91	27.300
705.23	28.152
705.55	32.226
705.87	36.545
706.19	30.035
706.51	29.283
706.83	29.697
707.15	29.412
707.47	25.505
707.79	26.781
708.11	25.114
708.43	25.952
708.74	22.449
709.06	24.935
709.38	28.346
709.70	30.523
710.02	30.267
710.34	28.182
710.66	28.657
710.98	29.830
711.29	25.872
711.61	30.973
711.93	25.641
712.25	30.225
712.57	33.088
712.89	29.412
713.20	29.787
713.52	32.237
713.84	32.911
714.16	29.268
714.48	27.586
714.80	32.827
715.11	29.107
715.43	24.036
715.75	29.565
716.07	27.796
716.39	28.527
716.70	31.561
717.02	33.094
717.34	33.922
717.66	31.343
717.97	39.841
718.29	30.370
718.61	35.766
718.93	31.618
719.24	30.104
719.56	32.203
719.88	32.881
720.20	33.784
720.51	31.359
720.83	33.829
721.15	29.478
721.46	30.496
721.78	34.050
722.10	29.811
722.42	34.586
722.73	29.963
723.05	29.508
723.37	29.960
723.68	32.819
724.00	33.740
724.32	32.661
724.63	34.959
724.95	35.565
725.27	39.676
725.58	35.937
725.90	32.117
726.22	33.585
726.53	34.028
726.85	30.717
727.16	33.452
727.48	31.915
727.80	30.682
728.11	30.072
728.43	32.692
728.74	27.957
729.06	35.036
729.38	35.294
729.69	34.520
730.01	30.034
730.32	32.986
730.64	31.104
730.96	25.743
731.27	31.788
731.59	26.911
731.90	29.155
732.22	29.814
732.53	29.102
732.85	30.769
733.16	31.511
733.48	29.236
733.80	27.922
734.11	28.344
734.43	30.769
734.74	24.286
735.06	26.074
735.37	29.769
735.69	28.025
736.00	32.353
736.32	31.153
736.63	32.268
736.95	30.032
737.26	25.510
737.58	25.484
737.89	29.766
738.21	30.375
738.52	31.071
738.83	29.057
739.15	27.692
739.46	31.752
739.78	26.736
740.09	28.923
740.41	33.226
740.72	31.010
741.04	36.667
741.35	30.000
741.66	38.667
741.98	37.736
742.29	39.234
742.61	40.086
742.92	34.389
743.23	34.615
743.55	30.800
743.86	36.842
744.18	39.823
744.49	37.321
744.80	40.376
745.12	40.455
745.43	34.802
745.74	41.892
746.06	36.239
746.37	35.874
746.68	36.199
747.00	35.648
747.31	34.762
747.62	34.071
747.94	32.599
748.25	35.745
748.56	37.445
748.88	34.158
749.19	38.000
749.50	36.744
749.82	33.333
750.13	28.980
750.44	31.022
750.75	30.877
751.07	31.511
751.38	34.146
751.69	28.881
752.01	31.203
752.32	31.769
752.63	33.333
752.94	33.197
753.26	36.800
753.57	33.740
753.88	36.328
754.19	28.214
754.51	32.292
754.82	30.686
755.13	36.604
755.44	33.835
755.75	33.577
756.07	32.624
756.38	27.372
756.69	28.523
757.00	28.743
757.31	30.564
757.63	30.994
757.94	27.614
758.25	27.451
758.56	25.679
758.87	26.344
759.18	30.000
759.50	30.094
759.81	30.218
760.12	27.187
760.43	26.361
760.74	26.359
761.05	27.401
761.36	25.401
761.67	28.125
761.99	27.640
762.30	32.292
762.61	33.206
762.92	35.547
763.23	34.874
763.54	40.000
763.85	28.516
764.16	38.077
764.47	31.559
764.78	32.862
765.10	26.266
765.41	29.794
765.72	26.647
766.03	29.781
766.34	32.667
766.65	37.447
766.96	38.034
767.27	43.147
767.58	40.104
767.89	43.684
768.20	44.828
768.51	39.594
768.82	35.321
769.13	35.772
769.44	30.364
769.75	36.481
770.06	29.358
770.37	38.009
770.68	35.185
770.99	35.111
771.30	33.197
771.61	32.287
771.92	38.115
772.23	39.496
772.54	36.923
772.85	38.743
773.16	43.085
773.47	50.543
773.78	41.117
774.09	41.667
774.39	40.936
774.70	45.062
775.01	47.826
775.32	53.595
775.63	46.053
775.94	51.079
776.25	55.118
776.56	58.209
776.87	45.902
777.18	44.531
777.48	54.198
777.79	56.818
778.10	56.296
778.41	58.929
778.72	46.715
779.03	53.020
779.34	46.309
779.65	42.568
779.95	38.650
780.26	49.020
780.57	57.931
780.88	59.375
781.19	54.135
781.50	52.703
781.80	47.170
782.11	44.633
782.42	42.405
782.73	40.491
783.04	54.730
783.34	50.704
783.65	61.644
783.96	53.731
784.27	42.657
784.57	50.360
784.88	47.222
785.19	54.762
785.50	53.774
785.81	56.716
786.11	57.377
786.42	50.388
786.73	53.982
787.04	59.434
787.34	55.357
787.65	66.000
787.96	54.054
788.26	56.198
788.57	53.390
788.88	61.157
789.19	52.778
789.49	61.364
789.80	62.595
790.11	65.714
790.41	61.386
790.72	71.084
791.03	66.304
791.33	63.953
791.64	68.041
791.95	75.248
792.25	75.556
792.56	83.117
792.87	100.000
793.17	97.468
793.48	72.414
793.79	77.011
794.09	75.000
794.40	55.462
794.70	58.088
795.01	53.333
795.32	54.676
795.62	53.543
795.93	61.207
796.23	58.407
796.54	70.588
796.85	72.973
797.15	85.915
797.46	86.364
797.76	86.747
798.07	70.886
798.37	92.308
798.68	69.697
798.99	64.789
799.29	81.818
799.60	71.591
799.90	98.630
800.21	88.060
800.51	91.379
800.82	92.982
801.12	103.279
801.43	103.030
801.73	62.162
802.04	95.238
802.34	74.074
802.65	98.437
802.95	105.085
803.26	96.875
803.56	84.286
803.87	89.231
804.17	86.765
804.48	114.815
804.78	82.759
805.09	89.706
805.39	90.385
805.70	91.071
806.00	103.279
806.30	75.758
806.61	84.146
806.91	72.152
807.22	85.526
807.52	79.104
807.83	87.324
808.13	106.250
808.43	103.333
808.74	73.684
809.04	92.754
809.35	92.537
809.65	96.053
809.95	125.806
810.26	94.915
810.56	92.063
810.86	145.455
811.17	126.190
811.47	105.000
811.77	124.074
812.08	110.909
812.38	120.000
812.69	138.889
812.99	129.545
813.29	116.327
813.59	107.143
813.90	142.857
814.20	120.000
814.50	96.923
814.81	95.588
815.11	124.490
815.41	108.197
815.72	135.714
816.02	125.455
816.32	150.000
816.62	137.500
816.93	136.585
817.23	119.048
817.53	120.455
817.84	178.788
818.14	156.522
818.44	117.778
818.74	182.353
819.04	142.500
819.35	171.429
819.65	185.294
819.95	185.714
820.25	220.000
820.56	179.487
820.86	175.000
821.16	134.884
821.46	158.974
821.76	126.000
822.07	145.714
822.37	135.000
822.67	184.848
822.97	111.765
823.27	225.000
823.57	191.892
823.88	147.500
824.18	203.333
824.48	157.143
824.78	224.000
825.08	200.000
825.38	172.973
825.69	146.341
825.99	208.333
826.29	155.172
826.59	123.684
826.89	115.789
827.19	173.529
827.49	190.323
827.79	131.818
828.09	140.909
828.39	134.043
828.70	116.327
829.00	162.963
829.30	148.387
829.60	147.500
829.90	306.667
830.20	189.286
830.50	200.000
830.80	221.739
831.10	203.333
831.40	186.667
831.70	208.696
832.00	226.923
832.30	211.111
832.60	306.250
832.90	210.000
833.20	392.857
833.50	206.452
833.80	196.552
834.10	181.250
834.40	219.231
834.70	277.778
835.00	290.476
835.30	165.714
835.60	238.462
835.90	168.966
836.20	342.857
836.50	189.655
836.80	168.000
837.10	188.889
837.40	247.619
837.70	311.765
838.00	207.407
838.30	257.143
838.60	285.714
838.90	253.846
839.19	255.000
839.49	392.857
839.79	320.000
840.09	275.000
840.39	257.143
840.69	265.217
840.99	322.222
841.29	430.000
841.59	350.000
841.88	356.250
842.18	196.552
842.48	257.143
842.78	150.000
843.08	247.826
843.38	175.000
843.68	1000.000
843.97	250.000
844.27	217.241
844.57	347.619
844.87	387.500
845.17	211.111
845.47	1866.667
845.76	511.111
846.06	311.765
846.36	500.000
846.66	371.429
846.96	331.250
847.25	436.364
847.55	481.818
847.85	278.261
848.15	550.000
848.44	421.429
848.74	250.000
849.04	358.824
849.34	590.000
849.63	305.263
849.93	445.455
850.23	1240.000
850.53	428.571
850.82	2700.000
851.12	-4900.000
851.42	4900.000
851.71	290.000
852.01	-1133.333
852.31	229.167
852.61	1733.333
852.90	280.952
853.20	220.000
853.50	294.118
853.79	328.571
854.09	233.333
854.39	331.250
854.68	170.270
854.98	209.677
855.28	190.000
855.57	196.552
855.87	200.000
856.17	215.789
856.46	260.000
856.76	311.765
857.05	213.793
857.35	250.000
857.65	346.667
857.94	273.913
858.24	242.308
858.53	290.000
858.83	259.091
859.13	386.667
859.42	0.000
859.72	588.889
860.01	409.091
860.31	286.364
860.60	284.211
860.90	213.043
861.20	600.000
861.49	533.333
861.79	-5100.000
862.08	650.000
862.38	314.286
862.67	323.077
862.97	329.412
863.26	611.111
863.56	338.889
863.85	466.667
864.15	587.500
864.44	386.667
864.74	950.000
865.03	587.500
865.33	284.211
865.62	463.636
865.92	461.538
866.21	258.333
866.51	0.000
866.80	445.455
867.10	1060.000
867.39	430.769
867.69	490.909
867.98	321.053
868.27	509.091
868.57	315.789
868.86	-4900.000
869.16	381.250
869.45	2100.000
869.75	-4100.000
870.04	483.333
870.33	757.143
870.63	1100.000
870.92	3050.000
871.22	857.143
871.51	352.941
871.80	223.810
872.10	457.143
>>>>>End Processed Spectral Data<<<<<
