SpectraSuite Data File
++++++++++++++++++++++++++++++++++++
Date: Wed May 13 19:50:55 PDT 2015
User: schluterlab
Dark Spectrum Present: Yes
Reference Spectrum Present: Yes
Number of Sampled Component Spectra: 1
Spectrometers: USB2E3373
Integration Time (usec): 3000 (USB2E3373)
Spectra Averaged: 3 (USB2E3373)
Boxcar Smoothing: 0 (USB2E3373)
Correct for Electrical Dark: No (USB2E3373)
Strobe/Lamp Enabled: No (USB2E3373)
Correct for Detector Non-linearity: No (USB2E3373)
Correct for Stray Light: No (USB2E3373)
Number of Pixels in Processed Spectrum: 2048
>>>>>Begin Processed Spectral Data<<<<<
178.53	0.000
178.91	-1475.000
179.29	-1300.000
179.67	-233.333
180.04	-1375.000
180.42	2750.000
180.80	1140.000
181.18	-1325.000
181.56	685.714
181.94	0.000
182.31	-642.857
182.69	1866.667
183.07	-512.500
183.45	-644.444
183.83	581.818
184.20	-500.000
184.58	2450.000
184.96	6400.000
185.34	-1000.000
185.72	-562.500
186.09	-2450.000
186.47	2750.000
186.85	2500.000
187.23	5700.000
187.61	-1733.333
187.98	1500.000
188.36	554.545
188.74	472.727
189.12	-1180.000
189.49	530.000
189.87	-5700.000
190.25	-1400.000
190.63	385.714
191.00	423.077
191.38	933.333
191.76	-1300.000
192.14	1550.000
192.51	725.000
192.89	933.333
193.27	612.500
193.65	-1275.000
194.02	590.000
194.40	1120.000
194.78	590.000
195.15	550.000
195.53	690.000
195.91	-2100.000
196.29	331.250
196.66	326.316
197.04	-350.000
197.42	0.000
197.79	640.000
198.17	-4500.000
198.55	771.429
198.92	762.500
199.30	960.000
199.68	0.000
200.05	338.889
200.43	957.143
200.81	5600.000
201.18	1500.000
201.56	-1533.333
201.94	544.444
202.31	666.667
202.69	400.000
203.07	650.000
203.44	0.000
203.82	1075.000
204.19	785.714
204.57	428.571
204.95	600.000
205.32	1666.667
205.70	490.909
206.08	421.429
206.45	3050.000
206.83	381.250
207.20	933.333
207.58	960.000
207.96	305.556
208.33	737.500
208.71	-1033.333
209.08	828.571
209.46	677.778
209.84	590.909
210.21	-1400.000
210.59	1375.000
210.96	-637.500
211.34	3050.000
211.71	560.000
212.09	783.333
212.46	0.000
212.84	1800.000
213.22	1500.000
213.59	-4500.000
213.97	1000.000
214.34	985.714
214.72	627.273
215.09	1240.000
215.47	-2150.000
215.84	-2650.000
216.22	1666.667
216.59	407.143
216.97	1400.000
217.34	490.909
217.72	-750.000
218.09	0.000
218.47	-5000.000
218.84	644.444
219.22	771.429
219.59	2300.000
219.97	-671.429
220.34	1180.000
220.72	-1933.333
221.09	385.714
221.47	1375.000
221.84	-933.333
222.22	0.000
222.59	1675.000
222.97	-2600.000
223.34	880.000
223.72	423.077
224.09	960.000
224.46	2550.000
224.84	-5000.000
225.21	-1160.000
225.59	-5100.000
225.96	570.000
226.34	305.000
226.71	2850.000
227.08	775.000
227.46	640.000
227.83	-1125.000
228.21	-2200.000
228.58	711.111
228.95	-2600.000
229.33	-2400.000
229.70	2066.667
230.08	785.714
230.45	-900.000
230.82	450.000
231.20	983.333
231.57	785.714
231.95	458.333
232.32	290.909
232.69	409.091
233.07	857.143
233.44	407.692
233.81	-2066.667
234.19	342.105
234.56	541.667
234.93	425.000
235.31	463.636
235.68	276.923
236.05	357.143
236.43	184.848
236.80	257.895
237.17	5400.000
237.55	242.857
237.92	228.571
238.29	238.095
238.67	193.548
239.04	206.897
239.41	166.667
239.79	132.609
240.16	138.095
240.53	154.545
240.91	109.804
241.28	134.000
241.65	138.000
242.02	111.594
242.40	112.903
242.77	118.333
243.14	86.022
243.51	95.506
243.89	87.059
244.26	88.889
244.63	81.720
245.00	76.596
245.38	80.198
245.75	60.748
246.12	56.881
246.49	72.993
246.87	73.600
247.24	63.846
247.61	62.143
247.98	67.974
248.36	55.405
248.73	57.962
249.10	64.968
249.47	57.627
249.84	56.150
250.22	52.406
250.59	57.988
250.96	56.061
251.33	52.607
251.70	57.921
252.08	56.190
252.45	46.188
252.82	49.565
253.19	49.362
253.56	44.314
253.94	47.718
254.31	50.000
254.68	49.231
255.05	48.339
255.42	44.715
255.79	48.897
256.16	43.321
256.54	42.756
256.91	44.128
257.28	43.525
257.65	42.904
258.02	39.130
258.39	42.587
258.76	41.472
259.14	41.667
259.51	41.945
259.88	41.615
260.25	41.994
260.62	39.017
260.99	41.925
261.36	41.742
261.73	39.828
262.10	38.953
262.47	43.662
262.85	42.618
263.22	38.746
263.59	39.601
263.96	34.890
264.33	40.731
264.70	36.579
265.07	40.153
265.44	38.384
265.81	38.200
266.18	39.950
266.55	35.366
266.92	39.066
267.29	37.731
267.66	36.468
268.03	36.136
268.40	36.449
268.77	32.220
269.14	36.261
269.51	34.989
269.88	38.228
270.25	37.246
270.62	35.056
270.99	37.849
271.36	39.485
271.73	35.981
272.10	36.087
272.47	37.634
272.84	36.797
273.21	35.639
273.58	33.624
273.95	33.333
274.32	35.537
274.69	35.546
275.06	30.315
275.43	33.404
275.80	34.669
276.17	33.809
276.54	35.551
276.91	33.399
277.28	34.375
277.65	33.849
278.02	31.470
278.39	35.742
278.76	32.727
279.13	33.019
279.50	30.540
279.87	33.466
280.23	33.333
280.60	33.462
280.97	32.717
281.34	32.920
281.71	32.545
282.08	33.973
282.45	32.000
282.82	34.103
283.19	29.055
283.56	32.982
283.92	31.303
284.29	30.511
284.66	31.942
285.03	30.922
285.40	30.634
285.77	30.640
286.14	31.088
286.51	31.833
286.87	31.111
287.24	31.922
287.61	31.461
287.98	31.169
288.35	30.428
288.72	30.218
289.08	31.455
289.45	28.171
289.82	30.569
290.19	26.531
290.56	28.790
290.93	29.456
291.29	28.988
291.66	28.466
292.03	28.343
292.40	27.900
292.77	27.663
293.13	28.806
293.50	29.155
293.87	26.222
294.24	26.963
294.60	25.619
294.97	25.436
295.34	27.221
295.71	27.273
296.08	26.781
296.44	27.510
296.81	26.420
297.18	26.423
297.55	23.747
297.91	24.670
298.28	25.971
298.65	24.021
299.02	25.823
299.38	25.232
299.75	21.968
300.12	23.116
300.48	23.250
300.85	24.414
301.22	24.204
301.59	23.359
301.95	24.181
302.32	24.904
302.69	23.178
303.05	23.030
303.42	21.481
303.79	23.443
304.15	22.145
304.52	22.711
304.89	22.997
305.25	23.086
305.62	24.009
305.99	22.432
306.35	22.931
306.72	21.973
307.09	23.196
307.45	24.662
307.82	21.429
308.19	22.185
308.55	22.546
308.92	22.234
309.29	22.281
309.65	22.800
310.02	22.410
310.38	22.796
310.75	21.964
311.12	22.723
311.48	22.257
311.85	22.432
312.22	22.477
312.58	20.478
312.95	22.386
313.31	20.583
313.68	22.973
314.05	22.584
314.41	22.412
314.78	21.752
315.14	21.946
315.51	22.451
315.87	22.673
316.24	22.443
316.61	21.735
316.97	22.505
317.34	22.309
317.70	22.849
318.07	22.714
318.43	22.896
318.80	24.461
319.16	23.258
319.53	22.608
319.89	22.952
320.26	24.100
320.62	23.512
320.99	24.141
321.35	23.636
321.72	24.025
322.08	23.791
322.45	25.970
322.81	23.740
323.18	24.085
323.54	22.635
323.91	24.151
324.27	23.231
324.64	22.740
325.00	22.813
325.37	25.023
325.73	25.045
326.10	23.301
326.46	23.746
326.83	25.022
327.19	24.594
327.56	24.739
327.92	25.022
328.29	25.200
328.65	25.783
329.01	24.188
329.38	24.422
329.74	24.561
330.11	26.202
330.47	25.253
330.84	24.632
331.20	25.137
331.56	25.413
331.93	26.852
332.29	24.224
332.66	26.106
333.02	24.863
333.38	25.655
333.75	26.114
334.11	25.000
334.48	24.667
334.84	25.735
335.20	25.636
335.57	24.841
335.93	23.929
336.29	25.366
336.66	25.879
337.02	24.615
337.38	25.463
337.75	24.688
338.11	25.425
338.47	25.046
338.84	25.206
339.20	23.670
339.56	25.821
339.93	24.455
340.29	25.634
340.65	25.490
341.02	26.178
341.38	26.246
341.74	24.561
342.11	25.590
342.47	24.229
342.83	24.914
343.20	25.022
343.56	24.937
343.92	24.474
344.28	25.000
344.65	24.764
345.01	24.074
345.37	23.928
345.73	24.619
346.10	24.382
346.46	24.322
346.82	23.970
347.19	24.478
347.55	23.974
347.91	24.757
348.27	25.062
348.63	23.829
349.00	25.000
349.36	24.713
349.72	24.459
350.08	24.392
350.45	24.817
350.81	25.020
351.17	24.716
351.53	24.079
351.89	23.432
352.26	24.625
352.62	25.581
352.98	24.797
353.34	23.583
353.70	24.223
354.07	24.435
354.43	23.810
354.79	24.618
355.15	24.102
355.51	24.301
355.87	24.490
356.24	25.163
356.60	23.897
356.96	24.055
357.32	24.939
357.68	24.331
358.04	24.624
358.40	25.178
358.77	24.570
359.13	23.520
359.49	25.020
359.85	23.175
360.21	24.561
360.57	24.903
360.93	24.846
361.29	23.885
361.66	23.297
362.02	24.179
362.38	24.183
362.74	23.363
363.10	24.130
363.46	23.258
363.82	25.094
364.18	24.449
364.54	24.963
364.90	25.283
365.26	23.676
365.62	24.690
365.98	24.178
366.35	23.711
366.71	25.307
367.07	24.690
367.43	25.036
367.79	25.910
368.15	26.006
368.51	23.910
368.87	23.697
369.23	24.360
369.59	25.416
369.95	24.926
370.31	24.288
370.67	23.768
371.03	26.742
371.39	25.219
371.75	25.294
372.11	24.893
372.47	25.733
372.83	25.793
373.19	24.783
373.55	26.090
373.91	25.405
374.27	24.467
374.63	25.964
374.99	25.706
375.35	24.145
375.71	24.606
376.07	26.063
376.42	25.172
376.78	24.520
377.14	25.373
377.50	25.762
377.86	24.136
378.22	25.980
378.58	25.063
378.94	25.833
379.30	25.509
379.66	26.650
380.02	25.614
380.38	25.197
380.74	26.170
381.09	26.161
381.45	26.675
381.81	27.088
382.17	26.561
382.53	26.038
382.89	26.914
383.25	26.016
383.61	27.261
383.97	26.892
384.32	26.201
384.68	25.836
385.04	26.306
385.40	27.121
385.76	26.536
386.12	27.137
386.48	27.816
386.83	27.197
387.19	27.644
387.55	27.335
387.91	27.509
388.27	27.590
388.62	28.396
388.98	26.781
389.34	28.411
389.70	27.406
390.06	28.834
390.42	28.534
390.77	28.690
391.13	28.271
391.49	28.680
391.85	29.535
392.20	28.328
392.56	28.914
392.92	29.488
393.28	28.166
393.64	28.417
393.99	28.772
394.35	29.467
394.71	30.552
395.07	28.660
395.42	29.295
395.78	29.771
396.14	28.864
396.50	29.887
396.85	29.943
397.21	29.162
397.57	30.564
397.92	29.808
398.28	29.821
398.64	29.570
399.00	30.050
399.35	30.288
399.71	31.250
400.07	30.396
400.42	31.595
400.78	31.001
401.14	31.098
401.49	32.119
401.85	30.611
402.21	30.719
402.57	30.907
402.92	32.535
403.28	32.292
403.63	31.498
403.99	31.210
404.35	32.242
404.70	31.655
405.06	32.324
405.42	32.626
405.77	31.829
406.13	32.167
406.49	32.880
406.84	32.369
407.20	31.324
407.55	32.865
407.91	34.733
408.27	33.184
408.62	32.631
408.98	33.211
409.34	33.395
409.69	35.161
410.05	33.457
410.40	34.128
410.76	34.110
411.11	33.414
411.47	33.866
411.83	34.881
412.18	34.632
412.54	34.807
412.89	35.120
413.25	35.065
413.60	36.628
413.96	35.216
414.31	35.115
414.67	35.868
415.03	34.834
415.38	36.662
415.74	37.106
416.09	37.296
416.45	36.613
416.80	36.682
417.16	37.936
417.51	37.624
417.87	37.187
418.22	37.350
418.58	37.637
418.93	36.978
419.29	37.619
419.64	38.602
420.00	37.561
420.35	37.565
420.71	38.434
421.06	37.291
421.42	37.719
421.77	38.061
422.12	37.395
422.48	37.938
422.83	39.313
423.19	39.006
423.54	39.756
423.90	38.609
424.25	38.917
424.61	38.810
424.96	39.650
425.31	39.535
425.67	38.539
426.02	38.800
426.38	40.598
426.73	39.731
427.09	40.426
427.44	39.275
427.79	39.333
428.15	40.714
428.50	41.077
428.85	41.061
429.21	39.536
429.56	41.161
429.92	40.614
430.27	39.424
430.62	39.631
430.98	39.803
431.33	40.825
431.68	40.681
432.04	40.202
432.39	41.805
432.74	41.532
433.10	42.275
433.45	41.516
433.80	41.020
434.16	41.720
434.51	40.895
434.86	41.448
435.22	42.357
435.57	42.432
435.92	41.194
436.28	42.883
436.63	42.770
436.98	43.102
437.34	43.351
437.69	43.816
438.04	43.170
438.39	42.866
438.75	42.940
439.10	42.402
439.45	42.621
439.81	42.840
440.16	42.744
440.51	42.414
440.86	43.949
441.22	42.770
441.57	43.471
441.92	42.579
442.27	42.357
442.63	42.865
442.98	43.380
443.33	42.826
443.68	42.540
444.03	43.387
444.39	43.281
444.74	42.911
445.09	43.342
445.44	42.428
445.79	43.345
446.15	42.933
446.50	43.619
446.85	43.525
447.20	43.039
447.55	44.165
447.91	43.795
448.26	44.185
448.61	43.584
448.96	45.238
449.31	45.276
449.66	43.500
450.02	44.401
450.37	43.254
450.72	43.204
451.07	44.790
451.42	43.769
451.77	44.627
452.12	44.111
452.47	44.279
452.83	44.872
453.18	43.215
453.53	45.083
453.88	43.946
454.23	44.172
454.58	43.973
454.93	45.137
455.28	44.327
455.63	44.296
455.98	46.429
456.34	44.158
456.69	44.897
457.04	45.511
457.39	44.360
457.74	43.529
458.09	45.486
458.44	44.470
458.79	42.950
459.14	44.187
459.49	44.542
459.84	43.878
460.19	43.547
460.54	43.519
460.89	44.981
461.24	45.598
461.59	45.322
461.94	45.129
462.29	44.095
462.64	44.990
462.99	44.567
463.34	45.533
463.69	44.966
464.04	44.638
464.39	43.246
464.74	44.444
465.09	44.029
465.44	43.546
465.79	44.407
466.14	44.061
466.49	44.939
466.84	45.009
467.19	43.935
467.54	44.438
467.89	44.478
468.24	44.095
468.59	45.421
468.94	44.227
469.29	45.694
469.64	45.315
469.99	46.076
470.34	44.782
470.68	45.977
471.03	44.422
471.38	46.560
471.73	44.970
472.08	46.316
472.43	45.415
472.78	44.898
473.13	44.801
473.48	46.255
473.83	44.573
474.17	44.306
474.52	45.658
474.87	44.950
475.22	45.096
475.57	43.471
475.92	44.397
476.27	44.194
476.61	44.512
476.96	44.310
477.31	43.747
477.66	44.639
478.01	44.381
478.36	44.950
478.70	43.873
479.05	43.610
479.40	44.422
479.75	44.382
480.10	43.539
480.45	43.265
480.79	43.669
481.14	43.738
481.49	44.328
481.84	43.530
482.19	44.298
482.53	43.028
482.88	43.741
483.23	43.318
483.58	43.722
483.92	42.877
484.27	42.440
484.62	43.017
484.97	41.703
485.31	42.774
485.66	40.855
486.01	39.001
486.36	37.754
486.70	37.189
487.05	38.588
487.40	39.479
487.75	40.498
488.09	41.371
488.44	41.561
488.79	42.966
489.13	42.590
489.48	42.781
489.83	43.116
490.17	43.621
490.52	43.003
490.87	43.103
491.22	43.338
491.56	42.597
491.91	43.509
492.26	42.030
492.60	43.318
492.95	42.563
493.30	43.131
493.64	44.377
493.99	42.526
494.34	42.553
494.68	42.903
495.03	43.280
495.37	42.950
495.72	43.567
496.07	43.248
496.41	42.743
496.76	42.436
497.11	42.909
497.45	42.105
497.80	42.802
498.14	42.271
498.49	43.220
498.84	42.905
499.18	41.857
499.53	42.972
499.87	42.218
500.22	42.252
500.56	43.010
500.91	42.019
501.26	42.485
501.60	42.762
501.95	42.530
502.29	43.440
502.64	43.017
502.98	43.151
503.33	42.230
503.67	42.413
504.02	41.628
504.36	42.536
504.71	42.648
505.06	43.325
505.40	42.100
505.75	41.948
506.09	41.448
506.44	43.069
506.78	42.669
507.13	43.160
507.47	43.081
507.82	42.401
508.16	43.060
508.51	42.364
508.85	42.403
509.19	43.010
509.54	41.786
509.88	42.658
510.23	42.982
510.57	43.808
510.92	42.776
511.26	42.395
511.61	42.531
511.95	42.484
512.30	42.789
512.64	43.041
512.98	43.194
513.33	42.987
513.67	41.942
514.02	42.154
514.36	43.528
514.70	43.221
515.05	43.112
515.39	44.307
515.74	43.581
516.08	43.991
516.42	43.896
516.77	43.088
517.11	41.787
517.46	42.889
517.80	43.728
518.14	42.444
518.49	42.824
518.83	43.920
519.17	42.956
519.52	43.237
519.86	43.126
520.20	43.988
520.55	43.926
520.89	43.978
521.23	43.848
521.58	43.577
521.92	42.621
522.26	42.831
522.61	43.614
522.95	42.296
523.29	42.544
523.64	43.537
523.98	43.685
524.32	43.727
524.66	42.213
525.01	43.137
525.35	43.618
525.69	42.549
526.04	43.489
526.38	43.807
526.72	42.515
527.06	43.628
527.41	42.327
527.75	44.695
528.09	43.995
528.43	43.212
528.78	43.085
529.12	42.061
529.46	42.192
529.80	43.564
530.15	42.679
530.49	42.215
530.83	43.924
531.17	44.648
531.51	45.266
531.86	43.355
532.20	43.807
532.54	43.177
532.88	43.389
533.22	42.411
533.57	42.222
533.91	42.384
534.25	41.252
534.59	41.611
534.93	41.582
535.27	41.038
535.62	41.697
535.96	42.185
536.30	41.068
536.64	42.112
536.98	43.530
537.32	42.199
537.66	42.933
538.01	42.462
538.35	42.599
538.69	42.693
539.03	41.780
539.37	40.639
539.71	41.866
540.05	41.961
540.39	41.595
540.73	40.427
541.07	41.986
541.42	42.270
541.76	42.581
542.10	41.915
542.44	41.854
542.78	42.951
543.12	40.755
543.46	41.705
543.80	40.924
544.14	40.436
544.48	41.270
544.82	41.052
545.16	41.574
545.50	39.781
545.84	41.667
546.18	41.549
546.52	41.844
546.86	41.375
547.20	42.009
547.54	41.750
547.88	42.730
548.22	39.290
548.56	40.189
548.90	39.629
549.24	41.751
549.58	40.859
549.92	40.797
550.26	42.401
550.60	40.456
550.94	41.056
551.28	42.209
551.62	42.056
551.96	41.754
552.30	40.683
552.64	41.244
552.98	40.542
553.32	40.593
553.66	40.559
554.00	42.141
554.34	40.994
554.68	42.203
555.02	40.973
555.36	40.292
555.69	40.257
556.03	40.713
556.37	39.836
556.71	40.518
557.05	40.476
557.39	40.588
557.73	39.802
558.07	42.277
558.41	40.666
558.75	41.881
559.08	41.760
559.42	42.479
559.76	40.882
560.10	39.615
560.44	39.762
560.78	38.323
561.12	39.578
561.45	39.635
561.79	39.420
562.13	38.900
562.47	40.437
562.81	40.865
563.15	39.331
563.48	39.390
563.82	39.400
564.16	38.653
564.50	38.281
564.84	37.737
565.17	39.125
565.51	39.617
565.85	38.198
566.19	37.758
566.52	38.695
566.86	37.673
567.20	38.208
567.54	37.557
567.88	36.176
568.21	37.354
568.55	36.552
568.89	35.846
569.23	34.804
569.56	34.089
569.90	34.226
570.24	33.477
570.57	33.526
570.91	32.579
571.25	32.489
571.59	31.811
571.92	32.258
572.26	32.236
572.60	32.613
572.93	32.324
573.27	31.884
573.61	31.770
573.95	31.421
574.28	31.935
574.62	31.317
574.96	30.800
575.29	30.577
575.63	31.504
575.97	31.034
576.30	30.988
576.64	30.579
576.98	31.235
577.31	30.823
577.65	30.206
577.98	30.177
578.32	30.401
578.66	29.811
578.99	30.609
579.33	30.453
579.67	29.506
580.00	30.712
580.34	30.683
580.67	30.489
581.01	30.560
581.35	30.088
581.68	29.645
582.02	28.949
582.35	29.711
582.69	29.468
583.02	29.588
583.36	30.113
583.70	30.894
584.03	31.165
584.37	31.199
584.70	30.512
585.04	30.333
585.37	30.359
585.71	30.075
586.04	29.379
586.38	31.008
586.72	30.958
587.05	29.802
587.39	29.789
587.72	30.121
588.06	30.630
588.39	30.535
588.73	30.126
589.06	31.287
589.40	31.111
589.73	32.066
590.07	31.566
590.40	31.604
590.73	32.162
591.07	32.234
591.40	32.265
591.74	33.030
592.07	32.199
592.41	32.575
592.74	30.637
593.08	30.180
593.41	30.117
593.75	29.107
594.08	30.037
594.41	30.223
594.75	30.314
595.08	30.959
595.42	30.508
595.75	30.057
596.09	30.605
596.42	30.806
596.75	31.068
597.09	31.255
597.42	30.354
597.75	31.350
598.09	31.913
598.42	30.670
598.76	30.158
599.09	29.456
599.42	29.731
599.76	29.941
600.09	29.545
600.42	29.584
600.76	30.036
601.09	29.836
601.42	30.061
601.76	29.867
602.09	29.881
602.42	30.374
602.76	30.028
603.09	30.291
603.42	30.223
603.76	29.687
604.09	29.469
604.42	30.453
604.76	30.578
605.09	31.280
605.42	29.671
605.75	30.174
606.09	29.443
606.42	29.873
606.75	30.112
607.09	29.552
607.42	29.354
607.75	29.620
608.08	29.831
608.42	30.255
608.75	29.576
609.08	30.111
609.41	30.747
609.75	30.919
610.08	30.160
610.41	29.702
610.74	29.612
611.07	30.435
611.41	29.833
611.74	30.568
612.07	31.470
612.40	31.007
612.73	30.789
613.07	30.927
613.40	30.911
613.73	29.208
614.06	30.914
614.39	29.942
614.72	29.737
615.06	30.882
615.39	31.104
615.72	29.703
616.05	29.771
616.38	30.573
616.71	31.057
617.05	31.684
617.38	31.028
617.71	30.150
618.04	31.190
618.37	30.751
618.70	31.923
619.03	31.974
619.36	30.957
619.69	31.620
620.03	32.005
620.36	32.219
620.69	32.466
621.02	31.858
621.35	32.341
621.68	31.075
622.01	33.437
622.34	31.770
622.67	31.939
623.00	32.282
623.33	30.522
623.66	31.665
623.99	32.474
624.32	31.312
624.65	31.568
624.99	31.303
625.32	31.861
625.65	32.156
625.98	32.437
626.31	31.960
626.64	33.306
626.97	32.336
627.30	31.920
627.63	32.978
627.96	33.137
628.29	32.896
628.62	34.492
628.95	35.094
629.28	34.124
629.61	34.097
629.94	35.333
630.26	33.937
630.59	34.223
630.92	34.866
631.25	33.366
631.58	34.434
631.91	33.164
632.24	34.494
632.57	35.572
632.90	35.855
633.23	35.011
633.56	37.853
633.89	36.920
634.22	35.868
634.55	35.858
634.88	34.611
635.20	36.559
635.53	35.904
635.86	36.262
636.19	35.529
636.52	37.140
636.85	34.479
637.18	33.986
637.51	35.461
637.83	34.895
638.16	35.678
638.49	36.272
638.82	36.536
639.15	38.125
639.48	36.783
639.81	37.802
640.13	36.589
640.46	36.242
640.79	36.724
641.12	35.076
641.45	36.173
641.77	38.586
642.10	34.942
642.43	36.186
642.76	36.997
643.09	39.724
643.41	36.267
643.74	37.963
644.07	37.500
644.40	39.724
644.73	38.425
645.05	37.876
645.38	39.336
645.71	38.808
646.04	40.033
646.36	40.568
646.69	40.301
647.02	41.497
647.35	39.519
647.67	38.761
648.00	38.862
648.33	36.799
648.66	36.667
648.98	37.781
649.31	36.024
649.64	35.426
649.96	35.618
650.29	37.125
650.62	37.217
650.94	39.546
651.27	39.189
651.60	39.434
651.92	37.859
652.25	37.134
652.58	35.358
652.90	36.809
653.23	36.210
653.56	37.638
653.88	34.865
654.21	38.073
654.54	36.469
654.86	35.670
655.19	32.027
655.52	23.192
655.84	18.943
656.17	24.412
656.49	32.898
656.82	34.315
657.15	26.264
657.47	19.518
657.80	15.107
658.13	15.952
658.45	24.335
658.78	24.819
659.10	26.718
659.43	28.012
659.75	29.388
660.08	32.089
660.41	36.127
660.73	38.374
661.06	36.306
661.38	42.545
661.71	38.846
662.03	42.209
662.36	37.376
662.68	40.562
663.01	39.798
663.33	42.463
663.66	40.756
663.98	41.253
664.31	38.655
664.63	38.259
664.96	39.034
665.28	41.803
665.61	38.207
665.93	38.431
666.26	37.525
666.58	37.657
666.91	38.055
667.23	40.899
667.56	39.741
667.88	39.744
668.21	39.872
668.53	39.046
668.86	36.797
669.18	40.299
669.50	40.652
669.83	42.484
670.15	39.778
670.48	41.830
670.80	38.147
671.13	41.826
671.45	39.787
671.77	40.937
672.10	36.784
672.42	35.336
672.75	35.323
673.07	36.268
673.39	33.996
673.72	37.109
674.04	39.608
674.37	38.641
674.69	37.628
675.01	37.657
675.34	39.220
675.66	41.895
675.98	35.845
676.31	38.866
676.63	39.490
676.95	37.317
677.28	40.421
677.60	38.242
677.92	38.397
678.25	39.014
678.57	39.641
678.89	36.874
679.22	36.542
679.54	36.069
679.86	36.697
680.18	33.453
680.51	36.348
680.83	36.121
681.15	39.057
681.48	37.618
681.80	37.718
682.12	36.973
682.44	34.236
682.77	38.493
683.09	40.558
683.41	40.133
683.73	40.839
684.06	38.430
684.38	35.812
684.70	34.884
685.02	35.460
685.34	34.432
685.67	33.741
685.99	34.192
686.31	33.447
686.63	32.862
686.96	33.393
687.28	33.213
687.60	34.783
687.92	37.112
688.24	33.270
688.56	36.948
688.89	37.967
689.21	38.865
689.53	36.117
689.85	38.581
690.17	34.990
690.49	37.580
690.82	39.486
691.14	34.375
691.46	36.287
691.78	37.751
692.10	36.364
692.42	34.930
692.74	34.440
693.06	36.170
693.39	35.524
693.71	35.808
694.03	36.421
694.35	37.229
694.67	36.842
694.99	41.951
695.31	39.951
695.63	35.885
695.95	39.609
696.27	37.563
696.59	38.342
696.91	40.933
697.23	34.038
697.56	36.674
697.88	34.356
698.20	35.417
698.52	37.419
698.84	37.194
699.16	33.871
699.48	35.867
699.80	36.473
700.12	41.039
700.44	40.318
700.76	38.398
701.08	39.080
701.40	38.547
701.72	39.942
702.04	45.170
702.36	36.827
702.68	41.076
703.00	40.166
703.32	36.436
703.64	37.802
703.96	39.554
704.28	42.442
704.60	43.695
704.91	43.620
705.23	40.469
705.55	47.176
705.87	46.844
706.19	42.756
706.51	44.237
706.83	43.939
707.15	40.616
707.47	36.869
707.79	37.592
708.11	35.616
708.43	36.190
708.74	36.990
709.06	40.260
709.38	39.370
709.70	41.570
710.02	40.653
710.34	39.697
710.66	39.701
710.98	40.909
711.29	39.535
711.61	43.363
711.93	40.385
712.25	44.051
712.57	44.485
712.89	43.599
713.20	45.897
713.52	40.132
713.84	41.139
714.16	38.720
714.48	37.644
714.80	41.337
715.11	40.058
715.43	41.246
715.75	37.971
716.07	41.214
716.39	39.498
716.70	45.847
717.02	43.885
717.34	42.756
717.66	46.269
717.97	44.622
718.29	40.000
718.61	43.431
718.93	45.588
719.24	41.176
719.56	37.966
719.88	42.373
720.20	45.270
720.51	44.251
720.83	47.212
721.15	42.164
721.46	41.135
721.78	41.935
722.10	44.906
722.42	45.113
722.73	43.446
723.05	44.672
723.37	46.559
723.68	45.946
724.00	41.057
724.32	43.145
724.63	47.154
724.95	49.372
725.27	46.154
725.58	48.437
725.90	44.161
726.22	41.132
726.53	40.278
726.85	40.956
727.16	44.128
727.48	44.326
727.80	41.288
728.11	43.116
728.43	40.769
728.74	40.143
729.06	43.796
729.38	48.162
729.69	43.060
730.01	37.884
730.32	37.153
730.64	39.799
730.96	38.284
731.27	40.066
731.59	37.309
731.90	37.609
732.22	40.994
732.53	34.365
732.85	39.423
733.16	37.299
733.48	36.877
733.80	37.013
734.11	44.904
734.43	36.095
734.74	34.286
735.06	34.670
735.37	36.416
735.69	36.943
736.00	43.137
736.32	37.695
736.63	37.700
736.95	41.214
737.26	35.034
737.58	35.484
737.89	40.803
738.21	40.956
738.52	40.357
738.83	42.264
739.15	38.846
739.46	42.701
739.78	36.806
740.09	41.538
740.41	41.290
740.72	35.889
741.04	42.593
741.35	39.167
741.66	42.222
741.98	46.226
742.29	54.067
742.61	50.862
742.92	45.701
743.23	48.291
743.55	45.200
743.86	42.982
744.18	49.558
744.49	51.196
744.80	44.131
745.12	53.182
745.43	45.374
745.74	48.649
746.06	47.706
746.37	44.843
746.68	45.249
747.00	50.463
747.31	49.524
747.62	46.460
747.94	44.934
748.25	44.255
748.56	46.696
748.88	41.089
749.19	50.000
749.50	44.651
749.82	43.902
750.13	42.857
750.44	41.241
750.75	38.947
751.07	42.765
751.38	40.767
751.69	42.960
752.01	44.737
752.32	38.628
752.63	39.362
752.94	39.754
753.26	45.200
753.57	38.618
753.88	47.266
754.19	38.929
754.51	45.486
754.82	39.711
755.13	39.623
755.44	39.850
755.75	40.146
756.07	39.362
756.38	36.131
756.69	41.946
757.00	35.629
757.31	32.641
757.63	36.257
757.94	34.048
758.25	34.069
758.56	29.383
758.87	33.065
759.18	37.576
759.50	36.364
759.81	35.826
760.12	32.188
760.43	36.676
760.74	33.696
761.05	38.701
761.36	33.690
761.67	36.364
761.99	34.783
762.30	39.931
762.61	36.641
762.92	40.234
763.23	43.697
763.54	42.800
763.85	42.578
764.16	45.385
764.47	44.867
764.78	36.749
765.10	33.861
765.41	33.333
765.72	37.725
766.03	38.245
766.34	40.000
766.65	41.702
766.96	45.726
767.27	50.254
767.58	51.042
767.89	55.263
768.20	54.598
768.51	43.655
768.82	44.037
769.13	39.837
769.44	40.486
769.75	40.343
770.06	40.367
770.37	44.344
770.68	49.074
770.99	38.667
771.30	42.623
771.61	43.049
771.92	44.262
772.23	47.059
772.54	46.667
772.85	44.503
773.16	53.723
773.47	48.370
773.78	51.269
774.09	50.000
774.39	57.310
774.70	50.000
775.01	58.696
775.32	56.209
775.63	48.684
775.94	61.871
776.25	68.504
776.56	64.925
776.87	65.574
777.18	60.938
777.48	67.176
777.79	61.364
778.10	60.741
778.41	61.607
778.72	54.745
779.03	59.060
779.34	51.678
779.65	58.784
779.95	46.012
780.26	60.131
780.57	60.000
780.88	64.062
781.19	62.406
781.50	57.432
781.80	53.459
782.11	51.412
782.42	50.000
782.73	50.920
783.04	61.486
783.34	54.225
783.65	64.384
783.96	58.209
784.27	53.846
784.57	56.115
784.88	62.037
785.19	62.698
785.50	71.698
785.81	59.701
786.11	76.230
786.42	63.566
786.73	64.602
787.04	73.585
787.34	67.857
787.65	74.000
787.96	72.072
788.26	62.810
788.57	75.424
788.88	65.289
789.19	55.556
789.49	63.636
789.80	62.595
790.11	80.000
790.41	73.267
790.72	83.133
791.03	77.174
791.33	86.047
791.64	74.227
791.95	79.208
792.25	83.333
792.56	81.818
792.87	89.744
793.17	96.203
793.48	89.655
793.79	80.460
794.09	72.727
794.40	66.387
794.70	62.500
795.01	57.778
795.32	53.957
795.62	59.843
795.93	64.655
796.23	62.832
796.54	84.706
796.85	79.730
797.15	112.676
797.46	90.909
797.76	83.133
798.07	92.405
798.37	103.077
798.68	87.879
798.99	92.958
799.29	87.013
799.60	87.500
799.90	98.630
800.21	104.478
800.51	101.724
800.82	112.281
801.12	104.918
801.43	106.061
801.73	77.027
802.04	123.810
802.34	91.358
802.65	109.375
802.95	116.949
803.26	110.938
803.56	92.857
803.87	87.692
804.17	101.471
804.48	118.519
804.78	113.793
805.09	104.412
805.39	117.308
805.70	107.143
806.00	101.639
806.30	87.879
806.61	102.439
806.91	81.013
807.22	85.526
807.52	88.060
807.83	105.634
808.13	85.938
808.43	105.000
808.74	76.316
809.04	102.899
809.35	97.015
809.65	88.158
809.95	101.613
810.26	115.254
810.56	101.587
810.86	145.455
811.17	166.667
811.47	115.000
811.77	107.407
812.08	125.455
812.38	116.000
812.69	166.667
812.99	138.636
813.29	132.653
813.59	126.190
813.90	144.898
814.20	112.727
814.50	92.308
814.81	100.000
815.11	118.367
815.41	131.148
815.72	138.095
816.02	121.818
816.32	145.238
816.62	162.500
816.93	148.780
817.23	133.333
817.53	140.909
817.84	203.030
818.14	152.174
818.44	131.111
818.74	158.824
819.04	150.000
819.35	177.143
819.65	188.235
819.95	200.000
820.25	245.000
820.56	179.487
820.86	154.545
821.16	148.837
821.46	169.231
821.76	134.000
822.07	151.429
822.37	140.000
822.67	224.242
822.97	125.490
823.27	207.143
823.57	172.973
823.88	157.500
824.18	196.667
824.48	145.238
824.78	240.000
825.08	195.833
825.38	189.189
825.69	148.780
825.99	254.167
826.29	172.414
826.59	186.842
826.89	173.684
827.19	188.235
827.49	212.903
827.79	143.182
828.09	138.636
828.39	134.043
828.70	124.490
829.00	192.593
829.30	180.645
829.60	157.500
829.90	366.667
830.20	217.857
830.50	256.522
830.80	273.913
831.10	190.000
831.40	193.333
831.70	239.130
832.00	238.462
832.30	200.000
832.60	312.500
832.90	213.333
833.20	414.286
833.50	203.226
833.80	227.586
834.10	209.375
834.40	246.154
834.70	305.556
835.00	309.524
835.30	188.571
835.60	346.154
835.90	213.793
836.20	350.000
836.50	203.448
836.80	180.000
837.10	188.889
837.40	285.714
837.70	335.294
838.00	259.259
838.30	247.619
838.60	276.190
838.90	230.769
839.19	235.000
839.49	400.000
839.79	285.000
840.09	255.000
840.39	280.952
840.69	247.826
840.99	261.111
841.29	440.000
841.59	383.333
841.88	356.250
842.18	244.828
842.48	285.714
842.78	173.333
843.08	282.609
843.38	190.625
843.68	816.667
843.97	238.462
844.27	186.207
844.57	328.571
844.87	400.000
845.17	222.222
845.47	1666.667
845.76	455.556
846.06	305.882
846.36	637.500
846.66	392.857
846.96	337.500
847.25	409.091
847.55	518.182
847.85	247.826
848.15	510.000
848.44	364.286
848.74	238.889
849.04	311.765
849.34	600.000
849.63	300.000
849.93	490.909
850.23	920.000
850.53	507.143
850.82	2550.000
851.12	-4400.000
851.42	4700.000
851.71	285.000
852.01	-1600.000
852.31	291.667
852.61	1800.000
852.90	271.429
853.20	248.000
853.50	347.059
853.79	252.381
854.09	237.500
854.39	343.750
854.68	172.973
854.98	193.548
855.28	193.333
855.57	189.655
855.87	225.926
856.17	289.474
856.46	320.000
856.76	300.000
857.05	206.897
857.35	241.667
857.65	400.000
857.94	269.565
858.24	296.154
858.53	340.000
858.83	268.182
859.13	360.000
859.42	0.000
859.72	488.889
860.01	500.000
860.31	240.909
860.60	236.842
860.90	252.174
861.20	655.556
861.49	508.333
861.79	-4700.000
862.08	775.000
862.38	295.238
862.67	453.846
862.97	352.941
863.26	588.889
863.56	283.333
863.85	366.667
864.15	600.000
864.44	453.333
864.74	850.000
865.03	800.000
865.33	268.421
865.62	454.545
865.92	461.538
866.21	383.333
866.51	0.000
866.80	500.000
867.10	1240.000
867.39	453.846
867.69	527.273
867.98	268.421
868.27	545.455
868.57	321.053
868.86	-3800.000
869.16	375.000
869.45	2550.000
869.75	-4600.000
870.04	466.667
870.33	714.286
870.63	1025.000
870.92	2500.000
871.22	700.000
871.51	376.471
871.80	219.048
872.10	392.857
>>>>>End Processed Spectral Data<<<<<
