SpectraSuite Data File
++++++++++++++++++++++++++++++++++++
Date: Wed May 13 19:39:55 PDT 2015
User: schluterlab
Dark Spectrum Present: Yes
Reference Spectrum Present: Yes
Number of Sampled Component Spectra: 1
Spectrometers: USB2E3373
Integration Time (usec): 3000 (USB2E3373)
Spectra Averaged: 3 (USB2E3373)
Boxcar Smoothing: 0 (USB2E3373)
Correct for Electrical Dark: No (USB2E3373)
Strobe/Lamp Enabled: No (USB2E3373)
Correct for Detector Non-linearity: No (USB2E3373)
Correct for Stray Light: No (USB2E3373)
Number of Pixels in Processed Spectrum: 2048
>>>>>Begin Processed Spectral Data<<<<<
178.53	0.000
178.91	-1425.000
179.29	-1475.000
179.67	-227.778
180.04	-1300.000
180.42	2650.000
180.80	1040.000
181.18	-1150.000
181.56	657.143
181.94	0.000
182.31	-600.000
182.69	1800.000
183.07	-762.500
183.45	-555.556
183.83	563.636
184.20	-520.000
184.58	2750.000
184.96	6300.000
185.34	-940.000
185.72	-600.000
186.09	-2750.000
186.47	2850.000
186.85	2550.000
187.23	4800.000
187.61	-1866.667
187.98	1400.000
188.36	536.364
188.74	554.545
189.12	-1020.000
189.49	580.000
189.87	-6300.000
190.25	-1325.000
190.63	457.143
191.00	453.846
191.38	966.667
191.76	-1275.000
192.14	1200.000
192.51	812.500
192.89	933.333
193.27	612.500
193.65	-1325.000
194.02	590.000
194.40	1020.000
194.78	530.000
195.15	483.333
195.53	610.000
195.91	-2650.000
196.29	337.500
196.66	278.947
197.04	-470.000
197.42	0.000
197.79	700.000
198.17	-5800.000
198.55	614.286
198.92	675.000
199.30	1100.000
199.68	0.000
200.05	338.889
200.43	714.286
200.81	4600.000
201.18	1466.667
201.56	-1633.333
201.94	566.667
202.31	666.667
202.69	566.667
203.07	600.000
203.44	0.000
203.82	1175.000
204.19	814.286
204.57	428.571
204.95	725.000
205.32	1766.667
205.70	618.182
206.08	364.286
206.45	2800.000
206.83	337.500
207.20	800.000
207.58	840.000
207.96	355.556
208.33	687.500
208.71	-750.000
209.08	971.429
209.46	722.222
209.84	500.000
210.21	-1433.333
210.59	1350.000
210.96	-687.500
211.34	2650.000
211.71	580.000
212.09	766.667
212.46	0.000
212.84	1800.000
213.22	1275.000
213.59	-4700.000
213.97	900.000
214.34	685.714
214.72	590.909
215.09	1300.000
215.47	-1850.000
215.84	-2400.000
216.22	1766.667
216.59	450.000
216.97	1375.000
217.34	463.636
217.72	-750.000
218.09	0.000
218.47	-5400.000
218.84	688.889
219.22	742.857
219.59	1866.667
219.97	-628.571
220.34	1100.000
220.72	-1933.333
221.09	407.143
221.47	1400.000
221.84	-983.333
222.22	0.000
222.59	1550.000
222.97	-3000.000
223.34	1180.000
223.72	484.615
224.09	1140.000
224.46	2200.000
224.84	-5700.000
225.21	-1040.000
225.59	-5500.000
225.96	540.000
226.34	335.000
226.71	2900.000
227.08	712.500
227.46	710.000
227.83	-1275.000
228.21	-2450.000
228.58	622.222
228.95	-2800.000
229.33	-2200.000
229.70	1900.000
230.08	857.143
230.45	-860.000
230.82	500.000
231.20	883.333
231.57	700.000
231.95	533.333
232.32	281.818
232.69	463.636
233.07	714.286
233.44	353.846
233.81	-1766.667
234.19	347.368
234.56	508.333
234.93	433.333
235.31	490.909
235.68	423.077
236.05	500.000
236.43	206.061
236.80	336.842
237.17	5300.000
237.55	280.952
237.92	253.571
238.29	304.762
238.67	212.903
239.04	265.517
239.41	191.667
239.79	167.391
240.16	171.429
240.53	186.364
240.91	135.294
241.28	176.000
241.65	152.000
242.02	137.681
242.40	146.774
242.77	126.667
243.14	109.677
243.51	120.225
243.89	114.118
244.26	107.778
244.63	109.677
245.00	105.319
245.38	105.941
245.75	100.935
246.12	99.083
246.49	94.161
246.87	109.600
247.24	103.077
247.61	90.000
247.98	83.007
248.36	84.459
248.73	86.624
249.10	93.631
249.47	90.960
249.84	89.305
250.22	75.401
250.59	90.533
250.96	78.283
251.33	78.673
251.70	81.683
252.08	81.905
252.45	74.439
252.82	73.478
253.19	76.596
253.56	72.941
253.94	81.328
254.31	74.609
254.68	76.154
255.05	74.539
255.42	72.764
255.79	75.000
256.16	74.729
256.54	71.378
256.91	75.089
257.28	71.583
257.65	72.277
258.02	72.050
258.39	71.609
258.76	66.890
259.14	69.940
259.51	65.350
259.88	65.839
260.25	73.112
260.62	66.185
260.99	70.186
261.36	68.769
261.73	65.903
262.10	70.640
262.47	70.141
262.85	66.852
263.22	70.085
263.59	66.097
263.96	64.560
264.33	63.185
264.70	67.105
265.07	67.263
265.44	64.646
265.81	61.314
266.18	65.075
266.55	60.732
266.92	63.145
267.29	66.204
267.66	59.633
268.03	63.409
268.40	60.047
268.77	63.007
269.14	60.811
269.51	62.302
269.88	67.366
270.25	60.722
270.62	63.596
270.99	62.151
271.36	60.730
271.73	64.019
272.10	62.391
272.47	63.656
272.84	62.338
273.21	61.426
273.58	56.332
273.95	57.862
274.32	60.124
274.69	62.099
275.06	60.827
275.43	62.128
275.80	61.523
276.17	58.859
276.54	59.667
276.91	63.241
277.28	59.570
277.65	58.801
278.02	63.561
278.39	59.180
278.76	61.091
279.13	60.000
279.50	57.542
279.87	61.952
280.23	60.279
280.60	58.414
280.97	60.444
281.34	60.000
281.71	60.182
282.08	59.693
282.45	56.364
282.82	57.371
283.19	54.545
283.56	57.895
283.92	56.345
284.29	58.377
284.66	56.080
285.03	57.143
285.40	57.394
285.77	58.586
286.14	54.577
286.51	56.333
286.87	57.778
287.24	56.678
287.61	52.970
287.98	55.032
288.35	53.883
288.72	51.558
289.08	51.330
289.45	52.224
289.82	51.870
290.19	51.805
290.56	52.833
290.93	50.755
291.29	51.687
291.66	49.558
292.03	50.872
292.40	51.542
292.77	47.633
293.13	49.552
293.50	48.980
293.87	47.704
294.24	48.444
294.60	47.453
294.97	47.384
295.34	46.685
295.71	47.869
296.08	45.442
296.44	46.355
296.81	45.046
297.18	47.154
297.55	42.612
297.91	44.195
298.28	46.319
298.65	43.864
299.02	45.059
299.38	44.754
299.75	42.992
300.12	41.762
300.48	41.500
300.85	42.787
301.22	42.038
301.59	40.909
301.95	43.073
302.32	42.362
302.69	41.458
303.05	42.061
303.42	41.235
303.79	39.751
304.15	38.112
304.52	39.629
304.89	40.767
305.25	40.835
305.62	39.411
305.99	40.024
306.35	39.821
306.72	41.031
307.09	39.512
307.45	41.329
307.82	39.063
308.19	39.625
308.55	39.374
308.92	39.957
309.29	39.493
309.65	38.070
310.02	38.055
310.38	40.000
310.75	38.965
311.12	37.462
311.48	38.245
311.85	38.889
312.22	38.085
312.58	37.630
312.95	40.549
313.31	36.408
313.68	38.462
314.05	39.053
314.41	38.693
314.78	37.664
315.14	38.232
315.51	38.517
315.87	38.614
316.24	37.438
316.61	36.550
316.97	37.476
317.34	36.888
317.70	37.763
318.07	37.921
318.43	37.671
318.80	36.739
319.16	36.535
319.53	36.398
319.89	37.619
320.26	38.900
320.62	37.401
320.99	38.485
321.35	38.485
321.72	38.501
322.08	36.130
322.45	38.010
322.81	38.178
323.18	38.536
323.54	36.549
323.91	34.906
324.27	36.807
324.64	36.813
325.00	35.257
325.37	37.853
325.73	38.241
326.10	36.187
326.46	36.290
326.83	36.066
327.19	36.721
327.56	36.498
327.92	36.308
328.29	36.469
328.65	36.740
329.01	35.740
329.38	36.725
329.74	35.549
330.11	36.664
330.47	36.088
330.84	37.040
331.20	36.157
331.56	36.881
331.93	36.204
332.29	35.492
332.66	34.956
333.02	36.563
333.38	35.501
333.75	35.294
334.11	35.854
334.48	35.492
334.84	36.029
335.20	36.091
335.57	34.270
335.93	34.018
336.29	36.264
336.66	34.986
337.02	35.023
337.38	34.074
337.75	34.403
338.11	34.557
338.47	34.254
338.84	35.472
339.20	33.303
339.56	35.584
339.93	34.091
340.29	35.326
340.65	34.670
341.02	34.380
341.38	34.520
341.74	35.614
342.11	35.022
342.47	34.185
342.83	35.103
343.20	33.593
343.56	32.687
343.92	34.298
344.28	32.483
344.65	33.878
345.01	32.407
345.37	33.705
345.73	33.587
346.10	33.845
346.46	33.729
346.82	34.020
347.19	33.835
347.55	32.594
347.91	34.142
348.27	33.854
348.63	34.448
349.00	32.848
349.36	33.580
349.72	33.681
350.08	32.820
350.45	34.011
350.81	34.119
351.17	33.955
351.53	31.777
351.89	32.673
352.26	34.333
352.62	33.841
352.98	32.820
353.34	33.032
353.70	33.633
354.07	32.661
354.43	31.667
354.79	31.617
355.15	32.243
355.51	33.253
355.87	32.571
356.24	32.492
356.60	31.836
356.96	33.628
357.32	32.461
357.68	32.992
358.04	31.433
358.40	32.462
358.77	32.160
359.13	30.624
359.49	30.824
359.85	30.556
360.21	31.978
360.57	32.763
360.93	32.154
361.29	31.519
361.66	30.108
362.02	30.970
362.38	32.167
362.74	32.068
363.10	31.606
363.46	30.301
363.82	31.897
364.18	31.571
364.54	32.244
364.90	31.586
365.26	31.029
365.62	30.533
365.98	31.191
366.35	30.301
366.71	31.453
367.07	31.245
367.43	32.003
367.79	31.906
368.15	31.106
368.51	30.669
368.87	31.263
369.23	31.456
369.59	31.427
369.95	30.147
370.31	31.054
370.67	30.797
371.03	31.311
371.39	30.977
371.75	30.956
372.11	30.868
372.47	31.012
372.83	31.052
373.19	30.058
373.55	31.116
373.91	31.664
374.27	30.172
374.63	31.200
374.99	29.802
375.35	30.565
375.71	30.775
376.07	30.864
376.42	29.505
376.78	30.285
377.14	29.444
377.50	30.066
377.86	28.790
378.22	29.962
378.58	29.135
378.94	29.981
379.30	30.089
379.66	29.378
380.02	30.590
380.38	29.144
380.74	29.592
381.09	30.073
381.45	29.748
381.81	29.853
382.17	29.490
382.53	29.182
382.89	29.074
383.25	28.518
383.61	30.050
383.97	29.456
384.32	29.195
384.68	28.996
385.04	29.379
385.40	29.721
385.76	29.361
386.12	28.368
386.48	29.012
386.83	29.699
387.19	29.808
387.55	29.190
387.91	29.927
388.27	29.062
388.62	29.625
388.98	29.361
389.34	29.912
389.70	29.859
390.06	29.341
390.42	29.507
390.77	29.008
391.13	29.738
391.49	29.378
391.85	28.835
392.20	27.950
392.56	29.419
392.92	29.665
393.28	27.988
393.64	29.137
393.99	29.750
394.35	28.784
394.71	28.482
395.07	27.414
395.42	28.986
395.78	29.198
396.14	29.112
396.50	29.887
396.85	28.608
397.21	28.607
397.57	28.518
397.92	28.906
398.28	27.971
398.64	29.391
399.00	28.539
399.35	27.750
399.71	28.414
400.07	28.622
400.42	29.202
400.78	29.011
401.14	28.841
401.49	28.776
401.85	28.796
402.21	27.665
402.57	27.822
402.92	28.436
403.28	28.607
403.63	27.661
403.99	28.471
404.35	28.667
404.70	27.638
405.06	27.839
405.42	28.322
405.77	27.257
406.13	27.596
406.49	27.972
406.84	27.939
407.20	28.073
407.55	28.973
407.91	28.267
408.27	28.015
408.62	28.055
408.98	28.125
409.34	28.167
409.69	28.065
410.05	28.563
410.40	28.257
410.76	28.495
411.11	28.408
411.47	27.923
411.83	28.467
412.18	28.262
412.54	28.705
412.89	28.373
413.25	28.453
413.60	28.104
413.96	27.565
414.31	27.886
414.67	28.327
415.03	28.344
415.38	28.286
415.74	28.039
416.09	28.347
416.45	28.581
416.80	28.553
417.16	29.290
417.51	28.401
417.87	27.681
418.22	28.644
418.58	28.664
418.93	27.211
419.29	28.071
419.64	27.960
420.00	27.866
420.35	28.000
420.71	28.332
421.06	28.162
421.42	28.070
421.77	27.859
422.12	27.962
422.48	27.415
422.83	28.305
423.19	27.348
423.54	28.381
423.90	27.826
424.25	28.085
424.61	27.738
424.96	28.338
425.31	28.073
425.67	27.135
426.02	27.829
426.38	28.571
426.73	27.794
427.09	28.693
427.44	26.797
427.79	28.292
428.15	27.500
428.50	28.379
428.85	27.771
429.21	27.664
429.56	28.097
429.92	27.277
430.27	27.160
430.62	26.984
430.98	28.127
431.33	27.680
431.68	27.539
432.04	27.529
432.39	28.555
432.74	28.247
433.10	27.957
433.45	28.863
433.80	27.661
434.16	28.686
434.51	27.789
434.86	27.594
435.22	27.293
435.57	27.903
435.92	27.092
436.28	28.766
436.63	29.194
436.98	27.934
437.34	28.086
437.69	28.180
438.04	27.544
438.39	28.179
438.75	28.414
439.10	27.989
439.45	28.217
439.81	27.674
440.16	27.781
440.51	28.354
440.86	27.736
441.22	28.142
441.57	27.919
441.92	28.454
442.27	28.471
442.63	27.804
442.98	28.732
443.33	27.772
443.68	28.549
444.03	28.258
444.39	27.945
444.74	27.976
445.09	28.464
445.44	28.103
445.79	27.610
446.15	28.375
446.50	28.056
446.85	27.801
447.20	28.506
447.55	29.090
447.91	28.296
448.26	29.104
448.61	28.265
448.96	29.014
449.31	27.840
449.66	28.531
450.02	27.967
450.37	27.664
450.72	27.975
451.07	27.666
451.42	27.720
451.77	28.303
452.12	27.714
452.47	29.104
452.83	28.730
453.18	29.584
453.53	29.437
453.88	27.289
454.23	28.332
454.58	29.194
454.93	30.134
455.28	29.052
455.63	29.066
455.98	30.000
456.34	29.020
456.69	28.992
457.04	28.978
457.39	28.171
457.74	28.439
458.09	28.292
458.44	28.563
458.79	27.223
459.14	29.063
459.49	28.546
459.84	28.310
460.19	28.874
460.54	27.141
460.89	27.921
461.24	29.083
461.59	29.460
461.94	27.928
462.29	29.496
462.64	28.653
462.99	27.716
463.34	29.533
463.69	28.705
464.04	29.159
464.39	28.754
464.74	28.580
465.09	28.649
465.44	27.922
465.79	29.251
466.14	28.352
466.49	28.532
466.84	28.313
467.19	28.606
467.54	28.500
467.89	29.052
468.24	28.854
468.59	29.182
468.94	28.711
469.29	30.141
469.64	29.652
469.99	29.432
470.34	28.798
470.68	29.454
471.03	28.912
471.38	29.743
471.73	28.781
472.08	29.605
472.43	30.088
472.78	28.242
473.13	29.012
473.48	29.026
473.83	28.902
474.17	28.189
474.52	28.536
474.87	29.189
475.22	28.729
475.57	27.458
475.92	28.253
476.27	28.636
476.61	28.351
476.96	28.257
477.31	27.839
477.66	27.298
478.01	27.496
478.36	29.455
478.70	27.778
479.05	28.275
479.40	28.403
479.75	28.419
480.10	28.380
480.45	28.843
480.79	28.046
481.14	28.327
481.49	27.907
481.84	27.938
482.19	28.669
482.53	27.844
482.88	28.618
483.23	28.411
483.58	27.889
483.92	28.069
484.27	26.928
484.62	27.672
484.97	27.710
485.31	27.671
485.66	27.581
486.01	26.455
486.36	26.023
486.70	25.220
487.05	25.891
487.40	26.507
487.75	26.314
488.09	26.448
488.44	26.651
488.79	27.269
489.13	27.082
489.48	27.814
489.83	26.975
490.17	27.751
490.52	27.414
490.87	27.996
491.22	27.967
491.56	27.426
491.91	28.153
492.26	28.158
492.60	27.558
492.95	28.110
493.30	26.916
493.64	27.531
493.99	27.484
494.34	27.336
494.68	28.022
495.03	28.289
495.37	28.153
495.72	28.265
496.07	28.677
496.41	26.681
496.76	27.880
497.11	28.186
497.45	27.620
497.80	28.359
498.14	27.826
498.49	28.488
498.84	28.571
499.18	27.667
499.53	27.445
499.87	28.006
500.22	27.555
500.56	28.641
500.91	27.933
501.26	28.781
501.60	28.239
501.95	27.589
502.29	28.351
502.64	27.654
502.98	27.957
503.33	27.925
503.67	28.167
504.02	27.736
504.36	27.562
504.71	28.676
505.06	28.048
505.40	28.099
505.75	27.387
506.09	28.086
506.44	27.676
506.78	27.764
507.13	28.319
507.47	28.434
507.82	29.179
508.16	29.230
508.51	27.905
508.85	27.805
509.19	27.500
509.54	27.296
509.88	27.718
510.23	28.175
510.57	28.999
510.92	28.379
511.26	28.160
511.61	27.801
511.95	28.027
512.30	28.049
512.64	29.070
512.98	27.814
513.33	29.336
513.67	27.801
514.02	27.922
514.36	28.673
514.70	28.058
515.05	28.221
515.39	28.660
515.74	28.604
516.08	29.290
516.42	28.524
516.77	29.041
517.11	27.469
517.46	28.894
517.80	28.804
518.14	28.199
518.49	29.522
518.83	27.784
519.17	29.099
519.52	29.372
519.86	29.036
520.20	28.382
520.55	30.102
520.89	28.589
521.23	29.735
521.58	29.352
521.92	29.945
522.26	28.127
522.61	29.595
522.95	28.852
523.29	29.580
523.64	29.146
523.98	29.821
524.32	29.131
524.66	28.563
525.01	29.167
525.35	28.315
525.69	28.264
526.04	28.847
526.38	28.493
526.72	29.080
527.06	28.625
527.41	28.403
527.75	29.196
528.09	29.351
528.43	29.382
528.78	29.441
529.12	30.121
529.46	29.516
529.80	30.074
530.15	29.533
530.49	28.738
530.83	29.873
531.17	29.765
531.51	29.831
531.86	29.935
532.20	30.313
532.54	29.917
532.88	29.782
533.22	28.670
533.57	29.877
533.91	29.440
534.25	29.405
534.59	29.286
534.93	29.506
535.27	28.968
535.62	28.694
535.96	29.755
536.30	28.862
536.64	29.491
536.98	29.595
537.32	30.217
537.66	29.533
538.01	30.415
538.35	30.252
538.69	30.632
539.03	29.825
539.37	29.585
539.71	28.451
540.05	29.673
540.39	30.565
540.73	28.719
541.07	30.629
541.42	29.811
541.76	30.387
542.10	29.884
542.44	29.007
542.78	30.237
543.12	28.727
543.46	30.689
543.80	30.059
544.14	28.819
544.48	29.651
544.82	28.544
545.16	28.887
545.50	30.013
545.84	29.839
546.18	29.562
546.52	30.626
546.86	30.172
547.20	30.074
547.54	31.329
547.88	31.250
548.22	29.328
548.56	29.811
548.90	29.193
549.24	29.832
549.58	30.286
549.92	30.632
550.26	30.824
550.60	29.945
550.94	29.366
551.28	29.700
551.62	30.338
551.96	30.316
552.30	29.761
552.64	30.561
552.98	30.576
553.32	30.479
553.66	30.879
554.00	31.091
554.34	30.573
554.68	31.402
555.02	30.183
555.36	29.506
555.69	29.770
556.03	29.744
556.37	30.082
556.71	30.150
557.05	30.462
557.39	30.861
557.73	29.640
558.07	31.690
558.41	30.029
558.75	31.521
559.08	31.245
559.42	31.519
559.76	30.515
560.10	30.835
560.44	30.678
560.78	30.605
561.12	30.343
561.45	30.313
561.79	28.609
562.13	29.577
562.47	30.738
562.81	30.195
563.15	29.431
563.48	30.040
563.82	29.941
564.16	30.412
564.50	30.273
564.84	30.152
565.17	30.438
565.51	30.671
565.85	29.886
566.19	29.931
566.52	29.829
566.86	29.898
567.20	30.248
567.54	29.795
567.88	29.278
568.21	30.159
568.55	28.665
568.89	29.232
569.23	28.520
569.56	28.947
569.90	28.528
570.24	27.951
570.57	28.222
570.91	27.990
571.25	27.733
571.59	28.012
571.92	27.333
572.26	27.759
572.60	27.958
572.93	27.556
573.27	28.039
573.61	27.638
573.95	28.243
574.28	27.035
574.62	27.332
574.96	27.384
575.29	26.916
575.63	27.287
575.97	27.024
576.30	27.748
576.64	27.041
576.98	26.689
577.31	26.848
577.65	27.275
577.98	27.121
578.32	26.807
578.66	26.981
578.99	27.049
579.33	26.991
579.67	26.806
580.00	26.900
580.34	27.219
580.67	27.299
581.01	27.524
581.35	27.777
581.68	27.264
582.02	26.867
582.35	27.089
582.69	26.852
583.02	26.868
583.36	27.092
583.70	27.198
584.03	26.985
584.37	27.404
584.70	27.769
585.04	27.495
585.37	27.213
585.71	27.162
586.04	27.495
586.38	27.769
586.72	28.114
587.05	27.411
587.39	27.045
587.72	27.441
588.06	27.508
588.39	27.764
588.73	28.102
589.06	28.077
589.40	28.990
589.73	28.018
590.07	28.363
590.40	27.914
590.73	28.532
591.07	29.223
591.40	28.132
591.74	28.788
592.07	29.145
592.41	28.731
592.74	28.727
593.08	28.148
593.41	28.187
593.75	27.639
594.08	28.093
594.41	27.996
594.75	28.207
595.08	28.024
595.42	27.986
595.75	28.561
596.09	28.877
596.42	29.548
596.75	29.337
597.09	29.307
597.42	28.078
597.75	28.590
598.09	29.174
598.42	28.565
598.76	28.172
599.09	27.822
599.42	28.457
599.76	28.441
600.09	27.796
600.42	28.013
600.76	27.714
601.09	27.832
601.42	28.881
601.76	28.159
602.09	28.458
602.42	28.782
602.76	28.779
603.09	28.560
603.42	29.559
603.76	28.049
604.09	28.383
604.42	29.066
604.76	28.806
605.09	28.615
605.42	28.174
605.75	28.601
606.09	27.938
606.42	28.239
606.75	29.117
607.09	29.050
607.42	29.226
607.75	28.397
608.08	28.267
608.42	28.956
608.75	28.314
609.08	28.770
609.41	29.748
609.75	28.252
610.08	29.029
610.41	29.097
610.74	28.666
611.07	29.348
611.41	29.146
611.74	30.015
612.07	29.710
612.40	30.325
612.73	29.158
613.07	30.819
613.40	29.437
613.73	28.526
614.06	29.194
614.39	29.103
614.72	29.000
615.06	29.254
615.39	30.042
615.72	28.988
616.05	28.814
616.38	29.238
616.71	29.929
617.05	31.095
617.38	30.126
617.71	29.550
618.04	29.687
618.37	30.337
618.70	29.932
619.03	30.395
619.36	31.025
619.69	30.493
620.03	31.319
620.36	30.214
620.69	30.479
621.02	30.678
621.35	30.227
621.68	30.062
622.01	30.728
622.34	30.938
622.67	31.103
623.00	31.108
623.33	30.522
623.66	31.022
623.99	30.265
624.32	29.315
624.65	30.438
624.99	30.028
625.32	30.702
625.65	31.255
625.98	31.360
626.31	30.949
626.64	32.327
626.97	31.588
627.30	30.590
627.63	32.240
627.96	31.960
628.29	32.546
628.62	31.290
628.95	32.830
629.28	30.748
629.61	31.806
629.94	31.905
630.26	32.793
630.59	32.698
630.92	31.322
631.25	30.997
631.58	32.132
631.91	31.643
632.24	31.646
632.57	32.529
632.90	32.895
633.23	31.544
633.56	33.559
633.89	33.749
634.22	32.804
634.55	35.148
634.88	31.976
635.20	33.931
635.53	34.217
635.86	34.406
636.19	32.000
636.52	33.218
636.85	32.990
637.18	33.065
637.51	33.688
637.83	30.826
638.16	33.760
638.49	33.501
638.82	32.743
639.15	34.500
639.48	33.915
639.81	35.523
640.13	35.547
640.46	33.020
640.79	33.289
641.12	34.525
641.45	33.101
641.77	36.524
642.10	35.526
642.43	34.384
642.76	36.068
643.09	35.429
643.41	33.839
643.74	36.111
644.07	34.756
644.40	37.730
644.73	36.063
645.05	36.609
645.38	36.019
645.71	34.622
646.04	35.714
646.36	37.730
646.69	35.619
647.02	34.864
647.35	36.942
647.67	35.575
648.00	35.935
648.33	34.818
648.66	34.091
648.98	35.382
649.31	34.978
649.64	35.874
649.96	34.724
650.29	34.913
650.62	33.819
650.94	37.439
651.27	37.162
651.60	37.604
651.92	35.144
652.25	34.039
652.58	37.072
652.90	36.335
653.23	34.361
653.56	37.165
653.88	36.133
654.21	38.705
654.54	34.818
654.86	34.112
655.19	33.378
655.52	25.344
655.84	23.985
656.17	31.680
656.49	42.673
656.82	43.176
657.15	32.242
657.47	23.574
657.80	18.246
658.13	18.549
658.45	27.489
658.78	26.905
659.10	27.326
659.43	28.523
659.75	29.120
660.08	30.696
660.41	33.520
660.73	34.816
661.06	34.395
661.38	37.818
661.71	36.538
662.03	40.237
662.36	34.394
662.68	39.960
663.01	37.576
663.33	36.943
663.66	37.815
663.98	37.365
664.31	37.815
664.63	34.615
664.96	34.809
665.28	35.656
665.61	37.232
665.93	38.028
666.26	38.540
666.58	37.448
666.91	37.421
667.23	41.348
667.56	35.205
667.88	39.316
668.21	39.872
668.53	36.443
668.86	37.446
669.18	39.446
669.50	38.478
669.83	41.830
670.15	39.333
670.48	38.126
670.80	39.009
671.13	38.854
671.45	38.511
671.77	38.697
672.10	36.969
672.42	34.099
672.75	33.831
673.07	34.507
673.39	34.539
673.72	35.742
674.04	37.451
674.37	34.951
674.69	35.787
675.01	35.146
675.34	38.398
675.66	39.789
675.98	34.623
676.31	38.235
676.63	40.977
676.95	36.897
677.28	35.748
677.60	37.582
677.92	38.608
678.25	39.425
678.57	37.052
678.89	37.675
679.22	35.756
679.54	35.687
679.86	35.596
680.18	35.778
680.51	34.220
680.83	37.189
681.15	36.981
681.48	35.728
681.80	38.685
682.12	36.207
682.44	36.557
682.77	39.308
683.09	39.700
683.41	39.468
683.73	38.190
684.06	39.256
684.38	34.834
684.70	38.566
685.02	36.773
685.34	36.447
685.67	35.315
685.99	36.426
686.31	33.788
686.63	36.749
686.96	36.607
687.28	33.574
687.60	36.775
687.92	36.015
688.24	35.932
688.56	36.747
688.89	39.004
689.21	38.210
689.53	37.161
689.85	37.916
690.17	35.404
690.49	39.703
690.82	39.720
691.14	36.384
691.46	36.920
691.78	39.157
692.10	37.810
692.42	38.124
692.74	33.195
693.06	39.574
693.39	39.014
693.71	37.991
694.03	38.105
694.35	38.312
694.67	38.444
694.99	41.707
695.31	36.029
695.63	41.148
695.95	40.098
696.27	36.294
696.59	41.192
696.91	39.637
697.23	35.446
697.56	37.740
697.88	34.356
698.20	37.708
698.52	35.484
698.84	36.526
699.16	37.558
699.48	38.717
699.80	41.063
700.12	40.000
700.44	41.379
700.76	41.713
701.08	41.092
701.40	39.665
701.72	46.939
702.04	47.443
702.36	39.660
702.68	39.943
703.00	42.382
703.32	39.628
703.64	39.946
703.96	40.669
704.28	36.919
704.60	42.815
704.91	39.169
705.23	41.349
705.55	45.183
705.87	46.179
706.19	46.290
706.51	45.171
706.83	43.939
707.15	41.737
707.47	39.394
707.79	37.346
708.11	39.269
708.43	39.286
708.74	36.224
709.06	42.857
709.38	39.370
709.70	40.988
710.02	40.653
710.34	43.333
710.66	46.866
710.98	42.045
711.29	42.733
711.61	42.478
711.93	41.346
712.25	44.051
712.57	49.265
712.89	46.367
713.20	40.426
713.52	42.434
713.84	43.354
714.16	41.463
714.48	42.529
714.80	47.112
715.11	42.939
715.43	37.092
715.75	40.290
716.07	44.089
716.39	42.006
716.70	45.847
717.02	46.763
717.34	49.117
717.66	47.388
717.97	47.809
718.29	42.963
718.61	41.971
718.93	45.956
719.24	47.405
719.56	46.441
719.88	42.712
720.20	45.946
720.51	47.735
720.83	48.699
721.15	41.045
721.46	41.489
721.78	45.878
722.10	46.792
722.42	53.008
722.73	43.820
723.05	46.721
723.37	46.559
723.68	46.332
724.00	47.154
724.32	48.387
724.63	45.528
724.95	49.791
725.27	48.988
725.58	46.094
725.90	46.715
726.22	47.547
726.53	40.278
726.85	44.027
727.16	50.178
727.48	40.426
727.80	44.318
728.11	44.928
728.43	43.846
728.74	44.086
729.06	49.635
729.38	48.897
729.69	45.196
730.01	38.908
730.32	43.403
730.64	41.806
730.96	38.944
731.27	47.682
731.59	48.012
731.90	42.857
732.22	45.031
732.53	41.796
732.85	41.667
733.16	39.228
733.48	45.183
733.80	43.831
734.11	42.994
734.43	42.012
734.74	37.429
735.06	42.120
735.37	46.532
735.69	43.312
736.00	44.771
736.32	44.860
736.63	44.409
736.95	42.812
737.26	36.054
737.58	40.968
737.89	47.492
738.21	44.027
738.52	42.143
738.83	40.755
739.15	45.000
739.46	47.445
739.78	46.181
740.09	42.154
740.41	40.968
740.72	42.857
741.04	44.815
741.35	46.250
741.66	52.000
741.98	45.755
742.29	51.675
742.61	52.155
742.92	48.416
743.23	49.145
743.55	48.000
743.86	46.930
744.18	50.885
744.49	52.153
744.80	51.643
745.12	55.455
745.43	47.137
745.74	54.054
746.06	52.752
746.37	56.951
746.68	49.321
747.00	52.778
747.31	48.571
747.62	47.345
747.94	47.137
748.25	46.383
748.56	52.423
748.88	48.515
749.19	61.500
749.50	46.977
749.82	41.870
750.13	46.122
750.44	43.066
750.75	44.912
751.07	47.588
751.38	44.948
751.69	52.708
752.01	43.985
752.32	45.126
752.63	46.454
752.94	49.180
753.26	49.600
753.57	41.870
753.88	49.609
754.19	43.929
754.51	48.264
754.82	41.877
755.13	45.283
755.44	47.744
755.75	42.701
756.07	43.262
756.38	44.891
756.69	44.966
757.00	41.018
757.31	40.653
757.63	38.889
757.94	39.946
758.25	36.275
758.56	37.284
758.87	40.323
759.18	39.697
759.50	38.871
759.81	41.121
760.12	41.875
760.43	43.553
760.74	38.859
761.05	43.785
761.36	42.513
761.67	43.182
761.99	43.789
762.30	43.403
762.61	45.802
762.92	50.781
763.23	46.218
763.54	51.200
763.85	46.094
764.16	48.846
764.47	46.388
764.78	45.230
765.10	41.772
765.41	42.478
765.72	41.916
766.03	41.066
766.34	42.333
766.65	50.638
766.96	50.427
767.27	55.330
767.58	56.771
767.89	57.368
768.20	54.598
768.51	53.299
768.82	57.339
769.13	41.870
769.44	48.178
769.75	41.631
770.06	38.532
770.37	54.299
770.68	53.704
770.99	46.222
771.30	40.574
771.61	55.157
771.92	44.672
772.23	50.000
772.54	55.385
772.85	58.639
773.16	56.383
773.47	55.978
773.78	54.822
774.09	48.810
774.39	61.988
774.70	61.111
775.01	64.493
775.32	68.627
775.63	65.132
775.94	56.835
776.25	77.953
776.56	66.418
776.87	72.131
777.18	68.750
777.48	70.992
777.79	64.394
778.10	65.185
778.41	75.000
778.72	56.934
779.03	60.403
779.34	65.772
779.65	63.514
779.95	58.896
780.26	61.438
780.57	69.655
780.88	73.437
781.19	62.406
781.50	71.622
781.80	59.119
782.11	61.017
782.42	62.025
782.73	52.147
783.04	68.919
783.34	65.493
783.65	67.123
783.96	66.418
784.27	65.734
784.57	62.590
784.88	69.444
785.19	76.984
785.50	68.868
785.81	70.896
786.11	74.590
786.42	69.767
786.73	61.062
787.04	83.019
787.34	66.071
787.65	77.000
787.96	74.775
788.26	66.116
788.57	72.881
788.88	69.421
789.19	65.972
789.49	75.000
789.80	67.939
790.11	85.714
790.41	80.198
790.72	91.566
791.03	83.696
791.33	87.209
791.64	76.289
791.95	87.129
792.25	82.222
792.56	77.922
792.87	105.128
793.17	105.063
793.48	78.161
793.79	81.609
794.09	92.045
794.40	75.630
794.70	69.118
795.01	63.704
795.32	62.590
795.62	65.354
795.93	75.862
796.23	70.796
796.54	84.706
796.85	87.838
797.15	100.000
797.46	96.970
797.76	95.181
798.07	105.063
798.37	110.769
798.68	109.091
798.99	88.732
799.29	92.208
799.60	81.818
799.90	91.781
800.21	116.418
800.51	108.621
800.82	114.035
801.12	118.033
801.43	112.121
801.73	97.297
802.04	109.524
802.34	98.765
802.65	98.437
802.95	113.559
803.26	126.563
803.56	111.429
803.87	93.846
804.17	108.824
804.48	135.185
804.78	103.448
805.09	97.059
805.39	117.308
805.70	117.857
806.00	111.475
806.30	104.545
806.61	108.537
806.91	100.000
807.22	106.579
807.52	86.567
807.83	111.268
808.13	118.750
808.43	113.333
808.74	88.158
809.04	102.899
809.35	120.896
809.65	84.211
809.95	133.871
810.26	111.864
810.56	107.937
810.86	150.000
811.17	152.381
811.47	120.000
811.77	124.074
812.08	127.273
812.38	132.000
812.69	172.222
812.99	170.455
813.29	112.245
813.59	109.524
813.90	140.816
814.20	123.636
814.50	113.846
814.81	119.118
815.11	120.408
815.41	104.918
815.72	154.762
816.02	120.000
816.32	150.000
816.62	125.000
816.93	143.902
817.23	173.810
817.53	147.727
817.84	196.970
818.14	147.826
818.44	124.444
818.74	167.647
819.04	160.000
819.35	154.286
819.65	197.059
819.95	210.714
820.25	215.000
820.56	184.615
820.86	143.182
821.16	151.163
821.46	161.538
821.76	142.000
822.07	171.429
822.37	172.500
822.67	157.576
822.97	109.804
823.27	225.000
823.57	186.486
823.88	157.500
824.18	213.333
824.48	176.190
824.78	220.000
825.08	233.333
825.38	145.946
825.69	173.171
825.99	233.333
826.29	137.931
826.59	173.684
826.89	163.158
827.19	170.588
827.49	212.903
827.79	152.273
828.09	147.727
828.39	148.936
828.70	142.857
829.00	188.889
829.30	167.742
829.60	170.000
829.90	400.000
830.20	260.714
830.50	200.000
830.80	239.130
831.10	200.000
831.40	206.667
831.70	208.696
832.00	257.692
832.30	218.519
832.60	312.500
832.90	220.000
833.20	407.143
833.50	222.581
833.80	196.552
834.10	190.625
834.40	257.692
834.70	350.000
835.00	376.190
835.30	160.000
835.60	284.615
835.90	213.793
836.20	328.571
836.50	210.345
836.80	220.000
837.10	191.667
837.40	247.619
837.70	394.118
838.00	229.630
838.30	276.190
838.60	314.286
838.90	203.846
839.19	280.000
839.49	428.571
839.79	345.000
840.09	290.000
840.39	276.190
840.69	304.348
840.99	300.000
841.29	550.000
841.59	391.667
841.88	400.000
842.18	193.103
842.48	314.286
842.78	220.000
843.08	260.870
843.38	187.500
843.68	850.000
843.97	253.846
844.27	237.931
844.57	333.333
844.87	375.000
845.17	255.556
845.47	1733.333
845.76	633.333
846.06	294.118
846.36	562.500
846.66	371.429
846.96	281.250
847.25	436.364
847.55	409.091
847.85	247.826
848.15	500.000
848.44	414.286
848.74	283.333
849.04	341.176
849.34	460.000
849.63	289.474
849.93	481.818
850.23	980.000
850.53	457.143
850.82	2250.000
851.12	-5600.000
851.42	4800.000
851.71	285.000
852.01	-1333.333
852.31	266.667
852.61	1766.667
852.90	290.476
853.20	220.000
853.50	323.529
853.79	257.143
854.09	208.333
854.39	356.250
854.68	189.189
854.98	193.548
855.28	203.333
855.57	231.034
855.87	251.852
856.17	289.474
856.46	340.000
856.76	294.118
857.05	200.000
857.35	245.833
857.65	400.000
857.94	304.348
858.24	253.846
858.53	310.000
858.83	281.818
859.13	380.000
859.42	0.000
859.72	533.333
860.01	500.000
860.31	254.545
860.60	305.263
860.90	295.652
861.20	666.667
861.49	475.000
861.79	-4100.000
862.08	812.500
862.38	285.714
862.67	361.538
862.97	347.059
863.26	577.778
863.56	288.889
863.85	483.333
864.15	637.500
864.44	420.000
864.74	1133.333
865.03	675.000
865.33	315.789
865.62	518.182
865.92	461.538
866.21	408.333
866.51	0.000
866.80	481.818
867.10	1220.000
867.39	515.385
867.69	418.182
867.98	305.263
868.27	563.636
868.57	305.263
868.86	-4600.000
869.16	318.750
869.45	2050.000
869.75	-4900.000
870.04	466.667
870.33	700.000
870.63	1125.000
870.92	2800.000
871.22	842.857
871.51	323.529
871.80	261.905
872.10	385.714
>>>>>End Processed Spectral Data<<<<<
