SpectraSuite Data File
++++++++++++++++++++++++++++++++++++
Date: Wed May 13 19:54:17 PDT 2015
User: schluterlab
Dark Spectrum Present: Yes
Reference Spectrum Present: Yes
Number of Sampled Component Spectra: 1
Spectrometers: USB2E3373
Integration Time (usec): 3000 (USB2E3373)
Spectra Averaged: 3 (USB2E3373)
Boxcar Smoothing: 0 (USB2E3373)
Correct for Electrical Dark: No (USB2E3373)
Strobe/Lamp Enabled: No (USB2E3373)
Correct for Detector Non-linearity: No (USB2E3373)
Correct for Stray Light: No (USB2E3373)
Number of Pixels in Processed Spectrum: 2048
>>>>>Begin Processed Spectral Data<<<<<
178.53	0.000
178.91	-1375.000
179.29	-1150.000
179.67	-238.889
180.04	-1125.000
180.42	2600.000
180.80	1100.000
181.18	-1025.000
181.56	728.571
181.94	0.000
182.31	-842.857
182.69	2033.333
183.07	-500.000
183.45	-511.111
183.83	618.182
184.20	-480.000
184.58	2650.000
184.96	5300.000
185.34	-940.000
185.72	-600.000
186.09	-2300.000
186.47	2700.000
186.85	2850.000
187.23	4900.000
187.61	-1933.333
187.98	1525.000
188.36	527.273
188.74	536.364
189.12	-880.000
189.49	650.000
189.87	-5900.000
190.25	-1300.000
190.63	457.143
191.00	438.462
191.38	1000.000
191.76	-1175.000
192.14	1325.000
192.51	637.500
192.89	966.667
193.27	575.000
193.65	-1300.000
194.02	620.000
194.40	940.000
194.78	600.000
195.15	541.667
195.53	680.000
195.91	-2300.000
196.29	381.250
196.66	305.263
197.04	-360.000
197.42	0.000
197.79	640.000
198.17	-5800.000
198.55	828.571
198.92	687.500
199.30	1080.000
199.68	0.000
200.05	355.556
200.43	785.714
200.81	5300.000
201.18	1833.333
201.56	-1366.667
201.94	577.778
202.31	622.222
202.69	408.333
203.07	480.000
203.44	0.000
203.82	1200.000
204.19	914.286
204.57	464.286
204.95	612.500
205.32	1500.000
205.70	554.545
206.08	378.571
206.45	2700.000
206.83	343.750
207.20	966.667
207.58	760.000
207.96	361.111
208.33	812.500
208.71	-916.667
209.08	714.286
209.46	711.111
209.84	490.909
210.21	-1666.667
210.59	1225.000
210.96	-537.500
211.34	2300.000
211.71	690.000
212.09	816.667
212.46	0.000
212.84	1566.667
213.22	1525.000
213.59	-5000.000
213.97	950.000
214.34	800.000
214.72	545.455
215.09	1140.000
215.47	-2750.000
215.84	-2300.000
216.22	1766.667
216.59	400.000
216.97	1375.000
217.34	445.455
217.72	-750.000
218.09	0.000
218.47	-4800.000
218.84	622.222
219.22	857.143
219.59	1833.333
219.97	-671.429
220.34	840.000
220.72	-1900.000
221.09	450.000
221.47	1400.000
221.84	-916.667
222.22	0.000
222.59	1500.000
222.97	-2950.000
223.34	1140.000
223.72	461.538
224.09	1300.000
224.46	2350.000
224.84	-4800.000
225.21	-1020.000
225.59	-5500.000
225.96	670.000
226.34	325.000
226.71	2050.000
227.08	687.500
227.46	580.000
227.83	-1475.000
228.21	-2200.000
228.58	655.556
228.95	-2750.000
229.33	-2200.000
229.70	1933.333
230.08	785.714
230.45	-780.000
230.82	500.000
231.20	900.000
231.57	600.000
231.95	525.000
232.32	272.727
232.69	454.545
233.07	757.143
233.44	330.769
233.81	-1566.667
234.19	305.263
234.56	466.667
234.93	408.333
235.31	490.909
235.68	300.000
236.05	335.714
236.43	187.879
236.80	310.526
237.17	4000.000
237.55	247.619
237.92	217.857
238.29	285.714
238.67	170.968
239.04	231.034
239.41	180.556
239.79	134.783
240.16	147.619
240.53	165.909
240.91	105.882
241.28	142.000
241.65	116.000
242.02	100.000
242.40	96.774
242.77	103.333
243.14	81.720
243.51	88.764
243.89	90.588
244.26	80.000
244.63	83.871
245.00	64.894
245.38	72.277
245.75	74.766
246.12	67.890
246.49	62.044
246.87	76.000
247.24	70.769
247.61	69.286
247.98	54.248
248.36	61.486
248.73	54.140
249.10	57.962
249.47	54.802
249.84	60.428
250.22	53.476
250.59	52.071
250.96	56.566
251.33	50.711
251.70	46.535
252.08	46.190
252.45	43.498
252.82	40.000
253.19	47.660
253.56	44.314
253.94	42.739
254.31	44.531
254.68	49.615
255.05	41.697
255.42	40.650
255.79	44.485
256.16	43.682
256.54	41.696
256.91	38.790
257.28	39.209
257.65	40.594
258.02	40.062
258.39	37.224
258.76	36.455
259.14	43.750
259.51	36.170
259.88	37.578
260.25	38.973
260.62	39.306
260.99	40.994
261.36	36.036
261.73	40.688
262.10	37.791
262.47	36.338
262.85	38.719
263.22	37.037
263.59	41.595
263.96	35.714
264.33	38.120
264.70	36.316
265.07	37.340
265.44	35.606
265.81	33.333
266.18	38.442
266.55	34.146
266.92	36.855
267.29	35.417
267.66	34.174
268.03	34.318
268.40	35.981
268.77	34.368
269.14	32.658
269.51	35.440
269.88	36.597
270.25	33.409
270.62	35.056
270.99	34.839
271.36	33.476
271.73	35.280
272.10	35.435
272.47	35.484
272.84	31.818
273.21	32.914
273.58	32.969
273.95	31.447
274.32	33.678
274.69	32.548
275.06	30.906
275.43	35.106
275.80	32.265
276.17	34.420
276.54	33.680
276.91	33.202
277.28	30.859
277.65	31.141
278.02	31.677
278.39	34.570
278.76	32.727
279.13	32.830
279.50	32.216
279.87	32.271
280.23	33.134
280.60	31.335
280.97	30.869
281.34	32.566
281.71	31.091
282.08	32.246
282.45	30.727
282.82	31.083
283.19	29.234
283.56	30.877
283.92	30.795
284.29	30.335
284.66	30.127
285.03	30.018
285.40	29.754
285.77	30.471
286.14	30.225
286.51	32.167
286.87	29.744
287.24	29.479
287.61	28.892
287.98	29.545
288.35	27.100
288.72	27.414
289.08	28.169
289.45	29.160
289.82	29.431
290.19	26.531
290.56	28.025
290.93	26.435
291.29	28.681
291.66	26.991
292.03	27.907
292.40	27.900
292.77	25.592
293.13	25.373
293.50	27.405
293.87	24.444
294.24	24.889
294.60	24.891
294.97	24.709
295.34	27.504
295.71	25.994
296.08	24.786
296.44	25.172
296.81	23.910
297.18	25.474
297.55	22.559
297.91	25.462
298.28	24.096
298.65	22.977
299.02	24.374
299.38	24.170
299.75	22.102
300.12	21.073
300.48	22.375
300.85	23.058
301.22	22.803
301.59	21.843
301.95	22.670
302.32	21.694
302.69	21.744
303.05	21.576
303.42	20.617
303.79	22.084
304.15	21.329
304.52	19.930
304.89	20.093
305.25	22.042
305.62	21.291
305.99	21.960
306.35	21.253
306.72	20.628
307.09	22.087
307.45	22.297
307.82	20.089
308.19	22.296
308.55	20.604
308.92	20.408
309.29	20.591
309.65	21.103
310.02	20.930
310.38	21.183
310.75	20.591
311.12	20.266
311.48	20.376
311.85	22.222
312.22	20.083
312.58	19.854
312.95	22.809
313.31	20.194
313.68	22.245
314.05	21.400
314.41	20.704
314.78	20.846
315.14	20.159
315.51	20.906
315.87	20.297
316.24	21.053
316.61	20.955
316.97	19.276
317.34	19.667
317.70	22.467
318.07	22.233
318.43	22.701
318.80	21.931
319.16	22.599
319.53	21.857
319.89	22.381
320.26	22.800
320.62	23.115
320.99	22.828
321.35	23.939
321.72	24.025
322.08	23.889
322.45	25.572
322.81	25.678
323.18	24.759
323.54	24.397
323.91	24.528
324.27	25.239
324.64	25.163
325.00	23.625
325.37	26.843
325.73	27.199
326.10	26.743
326.46	26.792
326.83	28.214
327.19	28.437
327.56	27.787
327.92	27.384
328.29	29.281
328.65	29.098
329.01	29.513
329.38	29.880
329.74	30.656
330.11	30.443
330.47	30.762
330.84	30.331
331.20	30.328
331.56	30.734
331.93	31.019
332.29	30.878
332.66	32.566
333.02	31.079
333.38	31.617
333.75	32.531
334.11	30.427
334.48	32.387
334.84	31.526
335.20	32.636
335.57	30.734
335.93	30.536
336.29	32.143
336.66	32.552
337.02	32.760
337.38	32.870
337.75	32.264
338.11	32.140
338.47	31.215
338.84	31.897
339.20	32.202
339.56	33.577
339.93	32.455
340.29	32.428
340.65	32.709
341.02	33.072
341.38	32.562
341.74	32.193
342.11	31.616
342.47	32.863
342.83	32.791
343.20	33.506
343.56	31.340
343.92	32.632
344.28	33.078
344.65	31.986
345.01	30.219
345.37	31.389
345.73	33.418
346.10	32.566
346.46	31.610
346.82	33.608
347.19	31.913
347.55	31.773
347.91	34.223
348.27	33.443
348.63	33.946
349.00	32.767
349.36	32.348
349.72	32.318
350.08	32.658
350.45	33.523
350.81	33.631
351.17	33.468
351.53	32.432
351.89	31.931
352.26	32.833
352.62	33.440
352.98	33.468
353.34	33.936
353.70	32.406
354.07	33.952
354.43	34.206
354.79	33.709
355.15	32.482
355.51	33.333
355.87	34.939
356.24	33.876
356.60	33.841
356.96	33.709
357.32	34.342
357.68	33.228
358.04	34.204
358.40	34.046
358.77	34.664
359.13	34.175
359.49	33.333
359.85	33.651
360.21	34.769
360.57	33.930
360.93	34.077
361.29	34.618
361.66	34.365
362.02	33.731
362.38	34.677
362.74	34.673
363.10	33.753
363.46	34.189
363.82	34.165
364.18	34.435
364.54	33.655
364.90	34.703
365.26	35.441
365.62	35.720
365.98	35.720
366.35	34.527
366.71	35.358
367.07	34.960
367.43	35.849
367.79	35.832
368.15	36.351
368.51	34.956
368.87	36.545
369.23	35.625
369.59	37.219
369.95	35.221
370.31	36.254
370.67	35.290
371.03	37.154
371.39	36.953
371.75	36.765
372.11	35.491
372.47	37.023
372.83	38.256
373.19	36.344
373.55	37.398
373.91	37.850
374.27	36.151
374.63	38.109
374.99	38.277
375.35	35.799
375.71	38.725
376.07	38.066
376.42	37.276
376.78	38.237
377.14	38.670
377.50	39.272
377.86	36.702
378.22	38.180
378.58	38.158
378.94	37.649
379.30	38.868
379.66	39.086
380.02	37.776
380.38	38.555
380.74	39.016
381.09	38.875
381.45	40.258
381.81	39.128
382.17	40.382
382.53	39.623
382.89	39.136
383.25	40.338
383.61	40.582
383.97	39.712
384.32	40.362
384.68	40.211
385.04	40.074
385.40	40.495
385.76	40.479
386.12	41.386
386.48	40.780
386.83	41.886
387.19	42.733
387.55	41.929
387.91	42.080
388.27	41.692
388.62	42.225
388.98	42.445
389.34	42.428
389.70	42.428
390.06	42.776
390.42	42.802
390.77	43.193
391.13	43.969
391.49	43.338
391.85	43.921
392.20	43.281
392.56	44.255
392.92	43.849
393.28	42.899
393.64	43.825
393.99	43.922
394.35	44.045
394.71	44.479
395.07	44.174
395.42	45.056
395.78	44.020
396.14	45.003
396.50	46.241
396.85	46.217
397.21	44.205
397.57	44.947
397.92	45.433
398.28	44.563
398.64	45.161
399.00	45.831
399.35	45.742
399.71	45.544
400.07	46.304
400.42	46.319
400.78	46.502
401.14	46.768
401.49	47.164
401.85	46.340
402.21	47.006
402.57	47.131
402.92	48.298
403.28	47.470
403.63	47.710
403.99	46.943
404.35	47.152
404.70	47.302
405.06	48.748
405.42	48.472
405.77	47.714
406.13	48.138
406.49	46.895
406.84	48.848
407.20	48.995
407.55	50.606
407.91	50.267
408.27	50.351
408.62	49.247
408.98	49.449
409.34	50.677
409.69	50.516
410.05	50.558
410.40	51.315
410.76	50.418
411.11	49.578
411.47	50.735
411.83	51.374
412.18	50.216
412.54	52.179
412.89	51.988
413.25	51.181
413.60	51.575
413.96	52.641
414.31	52.005
414.67	52.725
415.03	52.781
415.38	52.448
415.74	53.248
416.09	54.082
416.45	52.677
416.80	54.329
417.16	54.223
417.51	53.152
417.87	52.858
418.22	54.890
418.58	53.906
418.93	54.423
419.29	54.997
419.64	55.730
420.00	56.280
420.35	54.377
420.71	53.616
421.06	54.475
421.42	55.088
421.77	54.933
422.12	54.351
422.48	54.290
422.83	55.271
423.19	55.028
423.54	55.833
423.90	55.420
424.25	57.119
424.61	55.833
424.96	55.685
425.31	55.482
425.67	54.101
426.02	55.886
426.38	57.509
426.73	55.764
427.09	56.960
427.44	57.447
427.79	57.102
428.15	56.964
428.50	56.349
428.85	58.105
429.21	56.985
429.56	55.988
429.92	55.209
430.27	56.356
430.62	56.631
430.98	56.461
431.33	56.392
431.68	57.592
432.04	54.739
432.39	57.167
432.74	56.852
433.10	58.404
433.45	59.184
433.80	56.818
434.16	57.585
434.51	55.526
434.86	57.526
435.22	58.255
435.57	58.116
435.92	58.397
436.28	59.015
436.63	57.947
436.98	56.898
437.34	58.199
437.69	58.460
438.04	58.628
438.39	58.388
438.75	58.803
439.10	57.430
439.45	58.205
439.81	58.731
440.16	57.143
440.51	59.520
440.86	58.483
441.22	57.508
441.57	58.652
441.92	59.314
442.27	58.396
442.63	57.925
442.98	58.535
443.33	56.957
443.68	58.183
444.03	58.614
444.39	58.130
444.74	58.820
445.09	59.299
445.44	58.338
445.79	58.733
446.15	57.332
446.50	57.458
446.85	58.530
447.20	58.491
447.55	59.185
447.91	58.136
448.26	59.154
448.61	59.808
448.96	59.081
449.31	58.549
449.66	59.876
450.02	58.942
450.37	58.447
450.72	58.319
451.07	57.465
451.42	57.143
451.77	58.661
452.12	58.199
452.47	58.644
452.83	60.315
453.18	58.007
453.53	60.235
453.88	58.771
454.23	58.279
454.58	58.995
454.93	59.886
455.28	58.042
455.63	58.981
455.98	58.810
456.34	59.171
456.69	59.987
457.04	59.876
457.39	58.796
457.74	58.096
458.09	59.114
458.44	57.925
458.79	57.158
459.14	57.449
459.49	58.494
459.84	56.953
460.19	58.220
460.54	56.944
460.89	57.981
461.24	58.774
461.59	58.571
461.94	58.076
462.29	59.466
462.64	58.519
462.99	57.450
463.34	57.600
463.69	58.474
464.04	58.377
464.39	57.449
464.74	57.992
465.09	58.263
465.44	57.285
465.79	57.327
466.14	56.869
466.49	56.563
466.84	57.034
467.19	55.763
467.54	58.375
467.89	57.563
468.24	57.068
468.59	57.692
468.94	58.277
469.29	58.548
469.64	58.166
469.99	58.322
470.34	58.190
470.68	58.621
471.03	58.163
471.38	59.903
471.73	58.294
472.08	58.882
472.43	56.784
472.78	58.130
473.13	57.317
473.48	58.052
473.83	57.073
474.17	56.938
474.52	57.320
474.87	56.276
475.22	56.703
475.57	56.314
475.92	56.771
476.27	57.046
476.61	56.371
476.96	56.240
477.31	55.782
477.66	56.510
478.01	55.463
478.36	57.430
478.70	55.971
479.05	56.550
479.40	55.476
479.75	55.618
480.10	54.622
480.45	55.212
480.79	54.754
481.14	55.724
481.49	56.431
481.84	55.098
482.19	55.066
482.53	55.963
482.88	55.375
483.23	55.000
483.58	55.096
483.92	55.248
484.27	53.290
484.62	55.000
484.97	54.001
485.31	55.171
485.66	52.409
486.01	51.566
486.36	49.887
486.70	49.634
487.05	50.564
487.40	51.685
487.75	52.382
488.09	53.352
488.44	53.102
488.79	55.009
489.13	54.240
489.48	54.364
489.83	54.208
490.17	55.853
490.52	54.074
490.87	53.505
491.22	53.706
491.56	54.260
491.91	52.955
492.26	53.698
492.60	53.641
492.95	52.853
493.30	53.785
493.64	54.410
493.99	54.085
494.34	53.423
494.68	53.388
495.03	53.571
495.37	53.188
495.72	53.850
496.07	54.153
496.41	52.743
496.76	53.254
497.11	52.859
497.45	53.843
497.80	52.927
498.14	53.913
498.49	53.951
498.84	52.972
499.18	52.190
499.53	53.609
499.87	53.355
500.22	51.766
500.56	53.786
500.91	52.692
501.26	52.015
501.60	53.963
501.95	52.337
502.29	53.796
502.64	52.793
502.98	52.828
503.33	52.879
503.67	52.529
504.02	51.731
504.36	52.129
504.71	51.783
505.06	52.193
505.40	52.358
505.75	51.977
506.09	52.672
506.44	52.343
506.78	52.655
507.13	53.306
507.47	52.020
507.82	52.736
508.16	52.837
508.51	53.881
508.85	51.440
509.19	52.296
509.54	51.837
509.88	51.984
510.23	52.442
510.57	53.818
510.92	52.149
511.26	51.490
511.61	52.230
511.95	50.626
512.30	51.538
512.64	52.015
512.98	52.626
513.33	52.409
513.67	51.227
514.02	50.812
514.36	51.939
514.70	52.463
515.05	51.255
515.39	51.823
515.74	51.971
516.08	51.425
516.42	52.331
516.77	53.344
517.11	51.554
517.46	51.580
517.80	53.600
518.14	52.287
518.49	52.917
518.83	51.534
519.17	51.848
519.52	51.217
519.86	51.968
520.20	52.890
520.55	51.466
520.89	52.494
521.23	52.413
521.58	52.101
521.92	52.541
522.26	51.556
522.61	51.838
522.95	51.074
523.29	50.639
523.64	51.768
523.98	51.633
524.32	50.965
524.66	51.533
525.01	51.103
525.35	51.301
525.69	50.800
526.04	51.277
526.38	51.068
526.72	51.043
527.06	52.605
527.41	49.257
527.75	51.833
528.09	51.638
528.43	51.625
528.78	50.584
529.12	49.939
529.46	51.255
529.80	51.547
530.15	51.464
530.49	50.215
530.83	50.570
531.17	51.958
531.51	51.556
531.86	50.129
532.20	51.565
532.54	51.570
532.88	50.963
533.22	50.031
533.57	50.494
533.91	49.127
534.25	49.696
534.59	49.237
534.93	48.602
535.27	50.332
535.62	49.206
535.96	49.466
536.30	49.078
536.64	49.453
536.98	50.365
537.32	48.782
537.66	50.333
538.01	49.901
538.35	49.127
538.69	50.606
539.03	49.513
539.37	48.946
539.71	47.959
540.05	49.150
540.39	49.169
540.73	48.318
541.07	49.903
541.42	49.315
541.76	49.484
542.10	48.254
542.44	48.742
542.78	49.144
543.12	48.305
543.46	47.869
543.80	48.536
544.14	47.433
544.48	48.825
544.82	48.493
545.16	47.625
545.50	47.301
545.84	48.253
546.18	49.360
546.52	49.897
546.86	49.278
547.20	48.550
547.54	48.363
547.88	48.214
548.22	49.191
548.56	46.855
548.90	47.439
549.24	45.724
549.58	48.158
549.92	47.871
550.26	48.509
550.60	48.340
550.94	49.014
551.28	47.915
551.62	47.807
551.96	47.860
552.30	47.099
552.64	47.465
552.98	47.729
553.32	47.674
553.66	48.466
554.00	46.259
554.34	45.894
554.68	48.212
555.02	48.096
555.36	47.669
555.69	46.414
556.03	46.501
556.37	46.726
556.71	46.112
557.05	47.409
557.39	47.446
557.73	46.577
558.07	47.788
558.41	46.816
558.75	48.126
559.08	47.875
559.42	47.543
559.76	46.471
560.10	46.324
560.44	46.052
560.78	46.041
561.12	45.910
561.45	46.349
561.79	46.539
562.13	45.339
562.47	46.175
562.81	47.559
563.15	45.619
563.48	45.756
563.82	45.793
564.16	45.912
564.50	45.182
564.84	44.374
565.17	44.466
565.51	45.815
565.85	44.543
566.19	43.832
566.52	45.978
566.86	44.183
567.20	44.399
567.54	44.463
567.88	43.455
568.21	44.127
568.55	42.821
568.89	43.482
569.23	40.909
569.56	41.053
569.90	40.679
570.24	41.694
570.57	40.734
570.91	39.819
571.25	38.820
571.59	39.735
571.92	39.631
572.26	39.284
572.60	39.640
572.93	39.640
573.27	39.899
573.61	39.559
573.95	39.302
574.28	38.819
574.62	38.484
574.96	38.375
575.29	38.555
575.63	38.592
575.97	38.375
576.30	38.768
576.64	37.908
576.98	37.846
577.31	38.055
577.65	38.371
577.98	37.776
578.32	36.835
578.66	37.547
578.99	38.233
579.33	37.787
579.67	37.582
580.00	38.360
580.34	37.803
580.67	38.147
581.01	38.206
581.35	37.267
581.68	37.288
582.02	36.470
582.35	36.673
582.69	37.048
583.02	36.974
583.36	37.584
583.70	38.212
584.03	38.349
584.37	38.551
584.70	38.480
585.04	37.158
585.37	37.535
585.71	37.970
586.04	36.917
586.38	37.356
586.72	38.139
587.05	36.811
587.39	36.728
587.72	38.109
588.06	37.086
588.39	36.955
588.73	37.225
589.06	38.267
589.40	38.384
589.73	38.191
590.07	37.972
590.40	38.509
590.73	39.305
591.07	39.642
591.40	38.676
591.74	39.264
592.07	38.525
592.41	39.107
592.74	37.603
593.08	37.209
593.41	37.203
593.75	36.415
594.08	36.909
594.41	36.974
594.75	37.301
595.08	37.616
595.42	36.918
595.75	37.144
596.09	38.941
596.42	38.153
596.75	38.033
597.09	38.571
597.42	37.352
597.75	37.171
598.09	37.261
598.42	37.113
598.76	36.725
599.09	36.146
599.42	35.953
599.76	36.457
600.09	35.701
600.42	36.486
600.76	35.893
601.09	36.721
601.42	36.758
601.76	37.381
602.09	36.285
602.42	36.545
602.76	37.001
603.09	37.018
603.42	36.197
603.76	37.500
604.09	36.526
604.42	36.812
604.76	37.874
605.09	37.353
605.42	36.554
605.75	36.424
606.09	36.112
606.42	36.453
606.75	36.085
607.09	35.956
607.42	35.944
607.75	35.274
608.08	35.953
608.42	36.755
608.75	35.482
609.08	35.893
609.41	36.316
609.75	36.065
610.08	37.323
610.41	35.987
610.74	36.897
611.07	37.006
611.41	36.850
611.74	37.355
612.07	38.095
612.40	37.828
612.73	36.474
613.07	37.123
613.40	37.862
613.73	36.759
614.06	37.473
614.39	36.130
614.72	37.000
615.06	36.345
615.39	36.518
615.72	36.094
616.05	35.885
616.38	36.520
616.71	37.886
617.05	37.102
617.38	37.523
617.71	37.538
618.04	37.680
618.37	37.079
618.70	37.523
619.03	38.158
619.36	37.475
619.69	38.380
620.03	37.912
620.36	38.035
620.69	38.014
621.02	38.496
621.35	38.998
621.68	38.629
622.01	38.080
622.34	37.746
622.67	38.555
623.00	37.197
623.33	36.526
623.66	37.741
623.99	38.144
624.32	37.589
624.65	38.136
624.99	35.907
625.32	37.147
625.65	38.017
625.98	38.048
626.31	39.425
626.64	38.204
626.97	38.404
627.30	37.656
627.63	38.720
627.96	38.267
628.29	37.970
628.62	39.707
628.95	41.226
629.28	39.599
629.61	39.688
629.94	40.095
630.26	39.752
630.59	37.464
630.92	38.697
631.25	38.598
631.58	39.740
631.91	38.641
632.24	40.295
632.57	40.084
632.90	40.022
633.23	40.268
633.56	42.034
633.89	41.563
634.22	40.863
634.55	41.538
634.88	40.958
635.20	41.099
635.53	41.446
635.86	40.718
636.19	40.824
636.52	38.985
636.85	39.061
637.18	38.940
637.51	41.135
637.83	39.951
638.16	41.944
638.49	41.814
638.82	40.708
639.15	41.625
639.48	40.648
639.81	41.555
640.13	42.057
640.46	42.282
640.79	39.234
641.12	40.853
641.45	41.760
641.77	43.004
642.10	41.959
642.43	40.991
642.76	42.415
643.09	44.785
643.41	41.578
643.74	43.981
644.07	42.073
644.40	43.405
644.73	44.567
645.05	42.789
645.38	40.284
645.71	43.639
646.04	43.688
646.36	43.573
646.69	45.652
647.02	43.878
647.35	43.986
647.67	44.425
648.00	41.463
648.33	44.224
648.66	41.818
648.98	41.679
649.31	38.416
649.64	41.555
649.96	40.686
650.29	42.654
650.62	42.395
650.94	41.653
651.27	44.426
651.60	42.596
651.92	43.930
652.25	40.554
652.58	41.589
652.90	41.390
653.23	40.216
653.56	40.787
653.88	39.620
654.21	42.022
654.54	43.564
654.86	41.589
655.19	38.108
655.52	27.496
655.84	24.526
656.17	31.562
656.49	42.792
656.82	43.957
657.15	33.412
657.47	25.263
657.80	19.518
658.13	20.349
658.45	30.680
658.78	31.342
659.10	33.060
659.43	34.956
659.75	35.998
660.08	38.671
660.41	41.713
660.73	41.550
661.06	43.790
661.38	43.818
661.71	43.269
662.03	41.617
662.36	42.545
662.68	40.562
663.01	43.636
663.33	44.586
663.66	44.538
663.98	45.788
664.31	42.437
664.63	41.498
664.96	43.461
665.28	42.213
665.61	40.156
665.93	43.461
666.26	42.799
666.58	43.724
666.91	46.089
667.23	44.270
667.56	44.492
667.88	44.017
668.21	45.416
668.53	42.950
668.86	44.156
669.18	45.203
669.50	42.609
669.83	47.059
670.15	43.778
670.48	42.266
670.80	44.181
671.13	43.737
671.45	41.277
671.77	42.974
672.10	41.959
672.42	38.869
672.75	39.967
673.07	41.373
673.39	40.687
673.72	41.602
674.04	41.961
674.37	38.447
674.69	40.286
675.01	41.004
675.34	42.710
675.66	45.895
675.98	43.992
676.31	43.908
676.63	45.011
676.95	42.767
677.28	42.757
677.60	42.857
677.92	46.203
678.25	42.094
678.57	43.028
678.89	43.287
679.22	40.864
679.54	37.595
679.86	41.101
680.18	42.039
680.51	40.248
680.83	40.747
681.15	42.830
681.48	41.777
681.80	40.232
682.12	39.655
682.44	40.232
682.77	38.900
683.09	44.421
683.41	45.898
683.73	43.046
684.06	41.942
684.38	40.117
684.70	39.341
685.02	39.212
685.34	39.011
685.67	37.413
685.99	37.113
686.31	38.908
686.63	36.042
686.96	36.607
687.28	40.614
687.60	37.500
687.92	38.940
688.24	38.403
688.56	40.161
688.89	41.079
689.21	43.231
689.53	39.666
689.85	43.016
690.17	39.959
690.49	42.038
690.82	43.692
691.14	40.402
691.46	41.561
691.78	39.960
692.10	39.050
692.42	38.523
692.74	39.627
693.06	41.064
693.39	37.782
693.71	43.013
694.03	40.842
694.35	41.775
694.67	43.249
694.99	46.098
695.31	41.176
695.63	40.909
695.95	44.988
696.27	41.371
696.59	44.560
696.91	45.596
697.23	37.793
697.56	40.299
697.88	36.605
698.20	40.417
698.52	37.849
698.84	41.648
699.16	37.327
699.48	41.568
699.80	43.237
700.12	46.234
700.44	47.745
700.76	44.751
701.08	44.540
701.40	43.575
701.72	48.397
702.04	45.455
702.36	41.643
702.68	42.493
703.00	44.321
703.32	39.628
703.64	39.678
703.96	43.733
704.28	45.349
704.60	45.748
704.91	45.994
705.23	43.695
705.55	48.505
705.87	49.169
706.19	45.583
706.51	45.171
706.83	43.636
707.15	45.098
707.47	40.404
707.79	42.506
708.11	38.356
708.43	37.381
708.74	37.755
709.06	43.636
709.38	43.570
709.70	47.093
710.02	46.884
710.34	43.333
710.66	45.970
710.98	43.182
711.29	44.477
711.61	43.363
711.93	41.987
712.25	45.659
712.57	44.485
712.89	44.637
713.20	44.377
713.52	47.039
713.84	40.506
714.16	44.817
714.48	42.529
714.80	50.152
715.11	44.092
715.43	43.620
715.75	42.319
716.07	43.131
716.39	47.962
716.70	47.176
717.02	46.043
717.34	45.230
717.66	51.866
717.97	50.996
718.29	49.630
718.61	52.190
718.93	50.368
719.24	43.253
719.56	41.356
719.88	50.169
720.20	44.932
720.51	48.084
720.83	47.212
721.15	46.269
721.46	43.972
721.78	44.444
722.10	49.434
722.42	50.376
722.73	50.562
723.05	49.590
723.37	46.154
723.68	49.035
724.00	50.000
724.32	49.597
724.63	45.528
724.95	48.536
725.27	48.583
725.58	45.312
725.90	48.905
726.22	48.302
726.53	44.792
726.85	42.321
727.16	42.349
727.48	41.135
727.80	46.970
728.11	47.464
728.43	50.000
728.74	43.728
729.06	47.445
729.38	48.162
729.69	44.840
730.01	43.345
730.32	42.361
730.64	42.475
730.96	42.244
731.27	44.040
731.59	42.202
731.90	42.566
732.22	42.236
732.53	41.486
732.85	38.141
733.16	38.264
733.48	41.860
733.80	41.558
734.11	43.631
734.43	40.828
734.74	42.857
735.06	40.401
735.37	39.306
735.69	41.401
736.00	44.118
736.32	44.860
736.63	40.256
736.95	41.534
737.26	39.116
737.58	42.258
737.89	45.151
738.21	46.416
738.52	43.571
738.83	41.132
739.15	46.154
739.46	48.905
739.78	41.319
740.09	44.923
740.41	40.323
740.72	40.767
741.04	43.704
741.35	51.667
741.66	55.556
741.98	49.528
742.29	53.110
742.61	53.017
742.92	48.416
743.23	45.299
743.55	47.600
743.86	50.439
744.18	53.982
744.49	52.153
744.80	54.460
745.12	55.000
745.43	48.018
745.74	53.153
746.06	50.917
746.37	48.430
746.68	50.226
747.00	52.315
747.31	52.857
747.62	46.903
747.94	47.137
748.25	44.681
748.56	53.744
748.88	46.040
749.19	56.500
749.50	47.442
749.82	45.122
750.13	40.816
750.44	43.796
750.75	47.719
751.07	47.267
751.38	41.463
751.69	44.043
752.01	45.113
752.32	43.321
752.63	43.972
752.94	46.721
753.26	50.800
753.57	45.528
753.88	48.047
754.19	41.071
754.51	44.792
754.82	47.292
755.13	42.642
755.44	41.729
755.75	47.080
756.07	45.035
756.38	40.146
756.69	40.604
757.00	38.623
757.31	38.576
757.63	34.795
757.94	35.925
758.25	36.275
758.56	34.568
758.87	34.677
759.18	40.303
759.50	37.931
759.81	41.121
760.12	38.437
760.43	40.401
760.74	39.402
761.05	41.808
761.36	37.968
761.67	40.625
761.99	36.957
762.30	42.708
762.61	44.656
762.92	46.094
763.23	45.378
763.54	44.000
763.85	47.266
764.16	47.308
764.47	43.726
764.78	36.749
765.10	37.342
765.41	36.283
765.72	40.120
766.03	38.871
766.34	40.667
766.65	50.213
766.96	47.436
767.27	47.208
767.58	54.167
767.89	57.895
768.20	56.322
768.51	44.162
768.82	48.165
769.13	43.089
769.44	41.700
769.75	45.923
770.06	44.954
770.37	53.394
770.68	55.093
770.99	45.778
771.30	41.803
771.61	47.534
771.92	48.770
772.23	47.059
772.54	52.308
772.85	53.403
773.16	55.851
773.47	48.913
773.78	56.853
774.09	53.571
774.39	54.386
774.70	54.321
775.01	68.116
775.32	64.052
775.63	60.526
775.94	60.432
776.25	62.992
776.56	67.910
776.87	64.754
777.18	60.156
777.48	68.702
777.79	60.606
778.10	62.222
778.41	65.179
778.72	56.934
779.03	67.785
779.34	57.718
779.65	56.081
779.95	57.055
780.26	55.556
780.57	64.138
780.88	67.969
781.19	63.910
781.50	62.162
781.80	55.975
782.11	53.107
782.42	52.532
782.73	51.534
783.04	56.081
783.34	60.563
783.65	65.753
783.96	73.134
784.27	59.441
784.57	51.799
784.88	54.630
785.19	70.635
785.50	71.698
785.81	61.940
786.11	77.049
786.42	72.093
786.73	64.602
787.04	68.868
787.34	73.214
787.65	73.000
787.96	70.270
788.26	59.504
788.57	75.424
788.88	71.074
789.19	54.167
789.49	61.364
789.80	54.198
790.11	80.000
790.41	73.267
790.72	77.108
791.03	92.391
791.33	88.372
791.64	80.412
791.95	83.168
792.25	80.000
792.56	88.312
792.87	96.154
793.17	98.734
793.48	86.207
793.79	74.713
794.09	84.091
794.40	69.748
794.70	72.059
795.01	54.074
795.32	64.748
795.62	51.969
795.93	68.966
796.23	59.292
796.54	75.294
796.85	75.676
797.15	104.225
797.46	87.879
797.76	91.566
798.07	84.810
798.37	107.692
798.68	93.939
798.99	90.141
799.29	85.714
799.60	80.682
799.90	91.781
800.21	100.000
800.51	100.000
800.82	114.035
801.12	100.000
801.43	101.515
801.73	87.838
802.04	103.175
802.34	93.827
802.65	107.812
802.95	110.169
803.26	110.938
803.56	82.857
803.87	83.077
804.17	100.000
804.48	122.222
804.78	96.552
805.09	101.471
805.39	105.769
805.70	98.214
806.00	140.984
806.30	89.394
806.61	85.366
806.91	81.013
807.22	77.632
807.52	89.552
807.83	98.592
808.13	98.437
808.43	101.667
808.74	86.842
809.04	76.812
809.35	102.985
809.65	96.053
809.95	108.065
810.26	101.695
810.56	92.063
810.86	138.636
811.17	152.381
811.47	121.667
811.77	127.778
812.08	118.182
812.38	134.000
812.69	163.889
812.99	163.636
813.29	138.776
813.59	107.143
813.90	142.857
814.20	112.727
814.50	98.462
814.81	107.353
815.11	132.653
815.41	116.393
815.72	128.571
816.02	130.909
816.32	135.714
816.62	140.000
816.93	146.341
817.23	147.619
817.53	143.182
817.84	172.727
818.14	150.000
818.44	122.222
818.74	179.412
819.04	165.000
819.35	160.000
819.65	179.412
819.95	200.000
820.25	270.000
820.56	169.231
820.86	136.364
821.16	132.558
821.46	169.231
821.76	128.000
822.07	174.286
822.37	157.500
822.67	163.636
822.97	133.333
823.27	207.143
823.57	164.865
823.88	155.000
824.18	223.333
824.48	166.667
824.78	256.000
825.08	220.833
825.38	175.676
825.69	148.780
825.99	258.333
826.29	179.310
826.59	171.053
826.89	168.421
827.19	155.882
827.49	212.903
827.79	150.000
828.09	152.273
828.39	119.149
828.70	159.184
829.00	196.296
829.30	177.419
829.60	167.500
829.90	333.333
830.20	196.429
830.50	230.435
830.80	300.000
831.10	206.667
831.40	206.667
831.70	256.522
832.00	211.538
832.30	225.926
832.60	331.250
832.90	193.333
833.20	378.571
833.50	196.774
833.80	189.655
834.10	225.000
834.40	223.077
834.70	305.556
835.00	252.381
835.30	197.143
835.60	300.000
835.90	203.448
836.20	392.857
836.50	220.690
836.80	224.000
837.10	216.667
837.40	271.429
837.70	335.294
838.00	218.519
838.30	280.952
838.60	328.571
838.90	246.154
839.19	290.000
839.49	442.857
839.79	330.000
840.09	295.000
840.39	304.762
840.69	282.609
840.99	311.111
841.29	470.000
841.59	375.000
841.88	331.250
842.18	189.655
842.48	285.714
842.78	220.000
843.08	213.043
843.38	209.375
843.68	950.000
843.97	242.308
844.27	220.690
844.57	304.762
844.87	362.500
845.17	240.741
845.47	1666.667
845.76	433.333
846.06	300.000
846.36	525.000
846.66	357.143
846.96	350.000
847.25	409.091
847.55	454.545
847.85	273.913
848.15	570.000
848.44	421.429
848.74	311.111
849.04	300.000
849.34	550.000
849.63	315.789
849.93	445.455
850.23	940.000
850.53	471.429
850.82	2450.000
851.12	-4300.000
851.42	4800.000
851.71	300.000
852.01	-1000.000
852.31	262.500
852.61	1233.333
852.90	276.190
853.20	244.000
853.50	347.059
853.79	247.619
854.09	250.000
854.39	325.000
854.68	191.892
854.98	206.452
855.28	196.667
855.57	258.621
855.87	233.333
856.17	242.105
856.46	233.333
856.76	335.294
857.05	227.586
857.35	220.833
857.65	333.333
857.94	213.043
858.24	253.846
858.53	275.000
858.83	290.909
859.13	360.000
859.42	0.000
859.72	600.000
860.01	409.091
860.31	245.455
860.60	284.211
860.90	282.609
861.20	600.000
861.49	508.333
861.79	-5300.000
862.08	637.500
862.38	290.476
862.67	376.923
862.97	352.941
863.26	577.778
863.56	333.333
863.85	391.667
864.15	600.000
864.44	433.333
864.74	916.667
865.03	650.000
865.33	321.053
865.62	536.364
865.92	476.923
866.21	491.667
866.51	0.000
866.80	418.182
867.10	1160.000
867.39	469.231
867.69	554.545
867.98	368.421
868.27	463.636
868.57	268.421
868.86	-4100.000
869.16	387.500
869.45	2550.000
869.75	-4000.000
870.04	558.333
870.33	700.000
870.63	1150.000
870.92	2700.000
871.22	828.571
871.51	347.059
871.80	233.333
872.10	371.429
>>>>>End Processed Spectral Data<<<<<
