SpectraSuite Data File
++++++++++++++++++++++++++++++++++++
Date: Wed May 13 19:23:03 PDT 2015
User: schluterlab
Dark Spectrum Present: Yes
Reference Spectrum Present: Yes
Number of Sampled Component Spectra: 1
Spectrometers: USB2E3373
Integration Time (usec): 3000 (USB2E3373)
Spectra Averaged: 3 (USB2E3373)
Boxcar Smoothing: 0 (USB2E3373)
Correct for Electrical Dark: No (USB2E3373)
Strobe/Lamp Enabled: No (USB2E3373)
Correct for Detector Non-linearity: No (USB2E3373)
Correct for Stray Light: No (USB2E3373)
Number of Pixels in Processed Spectrum: 2048
>>>>>Begin Processed Spectral Data<<<<<
178.53	0.000
178.91	-1450.000
179.29	-1550.000
179.67	-288.889
180.04	-1500.000
180.42	2850.000
180.80	1180.000
181.18	-950.000
181.56	728.571
181.94	0.000
182.31	-771.429
182.69	1866.667
183.07	-787.500
183.45	-622.222
183.83	581.818
184.20	-450.000
184.58	2350.000
184.96	6400.000
185.34	-1040.000
185.72	-700.000
186.09	-2850.000
186.47	3150.000
186.85	2400.000
187.23	5500.000
187.61	-1833.333
187.98	1700.000
188.36	563.636
188.74	527.273
189.12	-1040.000
189.49	670.000
189.87	-6100.000
190.25	-1200.000
190.63	492.857
191.00	407.692
191.38	916.667
191.76	-1200.000
192.14	1850.000
192.51	737.500
192.89	833.333
193.27	637.500
193.65	-1375.000
194.02	610.000
194.40	940.000
194.78	620.000
195.15	566.667
195.53	690.000
195.91	-2200.000
196.29	431.250
196.66	284.211
197.04	-400.000
197.42	0.000
197.79	680.000
198.17	-5200.000
198.55	728.571
198.92	850.000
199.30	1000.000
199.68	0.000
200.05	366.667
200.43	928.571
200.81	4800.000
201.18	2133.333
201.56	-1733.333
201.94	688.889
202.31	611.111
202.69	500.000
203.07	640.000
203.44	0.000
203.82	1300.000
204.19	942.857
204.57	478.571
204.95	700.000
205.32	1633.333
205.70	536.364
206.08	421.429
206.45	3250.000
206.83	356.250
207.20	866.667
207.58	760.000
207.96	333.333
208.33	725.000
208.71	-950.000
209.08	842.857
209.46	711.111
209.84	545.455
210.21	-1766.667
210.59	1425.000
210.96	-587.500
211.34	2550.000
211.71	640.000
212.09	716.667
212.46	0.000
212.84	2133.333
213.22	1475.000
213.59	-5700.000
213.97	766.667
214.34	914.286
214.72	618.182
215.09	1140.000
215.47	-2850.000
215.84	-2700.000
216.22	1533.333
216.59	421.429
216.97	1350.000
217.34	536.364
217.72	-933.333
218.09	0.000
218.47	-4800.000
218.84	711.111
219.22	700.000
219.59	1900.000
219.97	-642.857
220.34	1160.000
220.72	-2033.333
221.09	492.857
221.47	1750.000
221.84	-916.667
222.22	0.000
222.59	1475.000
222.97	-2600.000
223.34	1220.000
223.72	453.846
224.09	1040.000
224.46	2350.000
224.84	-5200.000
225.21	-940.000
225.59	-4900.000
225.96	670.000
226.34	360.000
226.71	2950.000
227.08	712.500
227.46	700.000
227.83	-1100.000
228.21	-2450.000
228.58	644.444
228.95	-2600.000
229.33	-2800.000
229.70	2233.333
230.08	828.571
230.45	-1160.000
230.82	516.667
231.20	1016.667
231.57	700.000
231.95	516.667
232.32	263.636
232.69	336.364
233.07	814.286
233.44	415.385
233.81	-1833.333
234.19	363.158
234.56	433.333
234.93	416.667
235.31	681.818
235.68	400.000
236.05	342.857
236.43	169.697
236.80	268.421
237.17	4500.000
237.55	219.048
237.92	235.714
238.29	271.429
238.67	209.677
239.04	182.759
239.41	150.000
239.79	113.043
240.16	166.667
240.53	147.727
240.91	84.314
241.28	96.000
241.65	84.000
242.02	82.609
242.40	85.484
242.77	96.667
243.14	76.344
243.51	76.404
243.89	58.824
244.26	58.889
244.63	56.989
245.00	53.191
245.38	40.594
245.75	47.664
246.12	44.954
246.49	48.905
246.87	47.200
247.24	49.231
247.61	46.429
247.98	47.712
248.36	33.784
248.73	39.490
249.10	40.764
249.47	40.678
249.84	34.225
250.22	25.668
250.59	29.586
250.96	33.838
251.33	34.597
251.70	35.644
252.08	31.429
252.45	24.215
252.82	26.522
253.19	33.191
253.56	24.706
253.94	30.290
254.31	26.172
254.68	28.846
255.05	28.044
255.42	21.138
255.79	24.632
256.16	26.354
256.54	22.968
256.91	24.911
257.28	21.942
257.65	23.432
258.02	22.981
258.39	22.713
258.76	21.070
259.14	22.619
259.51	18.237
259.88	22.050
260.25	19.335
260.62	19.942
260.99	21.118
261.36	20.420
261.73	19.771
262.10	18.314
262.47	21.972
262.85	16.435
263.22	17.094
263.59	21.937
263.96	18.132
264.33	18.538
264.70	20.526
265.07	15.601
265.44	18.939
265.81	16.545
266.18	17.588
266.55	17.073
266.92	17.936
267.29	15.972
267.66	17.661
268.03	15.455
268.40	17.056
268.77	16.229
269.14	15.766
269.51	16.704
269.88	16.550
270.25	17.381
270.62	15.056
270.99	17.849
271.36	18.455
271.73	14.953
272.10	13.261
272.47	17.204
272.84	16.667
273.21	15.094
273.58	14.192
273.95	13.417
274.32	16.116
274.69	14.561
275.06	13.583
275.43	15.957
275.80	16.032
276.17	14.460
276.54	15.177
276.91	13.043
277.28	15.039
277.65	14.507
278.02	13.251
278.39	14.258
278.76	13.636
279.13	15.472
279.50	16.760
279.87	12.151
280.23	15.569
280.60	12.186
280.97	13.494
281.34	14.513
281.71	14.545
282.08	14.779
282.45	14.909
282.82	14.210
283.19	11.943
283.56	14.912
283.92	13.367
284.29	14.815
284.66	11.978
285.03	13.020
285.40	13.556
285.77	13.973
286.14	10.190
286.51	14.167
286.87	12.991
287.24	14.007
287.61	11.557
287.98	13.636
288.35	11.569
288.72	10.903
289.08	12.520
289.45	12.685
289.82	12.683
290.19	11.460
290.56	12.404
290.93	9.366
291.29	9.816
291.66	10.619
292.03	12.209
292.40	14.097
292.77	9.911
293.13	10.896
293.50	12.536
293.87	10.815
294.24	10.519
294.60	9.753
294.97	11.773
295.34	12.271
295.71	11.790
296.08	11.111
296.44	11.829
296.81	10.436
297.18	10.705
297.55	8.443
297.91	9.235
298.28	11.513
298.65	10.052
299.02	11.199
299.38	9.031
299.75	8.221
300.12	9.323
300.48	9.250
300.85	9.001
301.22	9.299
301.59	9.091
301.95	9.824
302.32	8.729
302.69	10.275
303.05	9.697
303.42	8.889
303.79	8.834
304.15	9.441
304.52	9.154
304.89	8.711
305.25	10.093
305.62	8.607
305.99	10.035
306.35	8.725
306.72	10.314
307.09	9.767
307.45	10.023
307.82	8.147
308.19	9.603
308.55	11.003
308.92	9.023
309.29	8.870
309.65	9.226
310.02	10.359
310.38	9.677
310.75	8.237
311.12	10.235
311.48	9.718
311.85	9.748
312.22	10.094
312.58	9.875
312.95	9.398
313.31	9.029
313.68	9.667
314.05	11.440
314.41	9.648
314.78	9.970
315.14	9.831
315.51	9.681
315.87	10.297
316.24	9.732
316.61	10.136
316.97	10.176
317.34	10.274
317.70	9.369
318.07	9.625
318.43	10.078
318.80	11.153
319.16	10.452
319.53	9.006
319.89	11.429
320.26	10.700
320.62	11.012
320.99	10.000
321.35	10.808
321.72	10.678
322.08	12.636
322.45	11.940
322.81	12.306
323.18	12.524
323.54	12.152
323.91	12.547
324.27	12.141
324.64	12.861
325.00	11.903
325.37	12.557
325.73	13.465
326.10	13.063
326.46	12.097
326.83	13.546
327.19	13.066
327.56	12.979
327.92	12.686
328.29	12.955
328.65	13.628
329.01	12.816
329.38	11.933
329.74	12.558
330.11	12.064
330.47	12.764
330.84	14.246
331.20	12.659
331.56	13.028
331.93	13.426
332.29	13.665
332.66	13.097
333.02	12.706
333.38	13.731
333.75	13.280
334.11	13.167
334.48	13.842
334.84	13.695
335.20	13.273
335.57	13.871
335.93	12.589
336.29	12.179
336.66	13.796
337.02	12.036
337.38	13.056
337.75	13.191
338.11	12.444
338.47	12.523
338.84	13.291
339.20	12.018
339.56	13.686
339.93	12.909
340.29	12.681
340.65	13.369
341.02	13.438
341.38	13.167
341.74	12.281
342.11	12.664
342.47	12.687
342.83	13.014
343.20	13.680
343.56	12.553
343.92	13.421
344.28	14.031
344.65	12.812
345.01	13.131
345.37	12.093
345.73	13.452
346.10	13.725
346.46	13.475
346.82	13.262
347.19	13.283
347.55	11.987
347.91	14.159
348.27	14.215
348.63	13.963
349.00	13.430
349.36	13.136
349.72	13.713
350.08	13.290
350.45	13.670
350.81	12.754
351.17	14.182
351.53	12.285
351.89	13.119
352.26	13.418
352.62	12.991
352.98	13.128
353.34	13.887
353.70	12.357
354.07	14.032
354.43	12.778
354.79	12.550
355.15	13.328
355.51	13.269
355.87	13.714
356.24	12.378
356.60	13.953
356.96	13.355
357.32	13.246
357.68	13.622
358.04	13.618
358.40	13.856
358.77	14.397
359.13	12.944
359.49	12.941
359.85	11.746
360.21	12.440
360.57	14.708
360.93	13.077
361.29	13.152
361.66	12.693
362.02	13.507
362.38	14.297
362.74	12.798
363.10	13.175
363.46	12.546
363.82	12.925
364.18	13.069
364.54	14.116
364.90	13.314
365.26	13.382
365.62	13.367
365.98	13.221
366.35	12.249
366.71	13.521
367.07	13.401
367.43	13.498
367.79	13.490
368.15	14.655
368.51	13.009
368.87	14.347
369.23	13.094
369.59	14.555
369.95	13.162
370.31	14.031
370.67	14.130
371.03	14.457
371.39	13.120
371.75	14.044
372.11	13.585
372.47	14.150
372.83	15.130
373.19	13.512
373.55	13.821
373.91	15.243
374.27	13.746
374.63	13.818
374.99	14.477
375.35	12.840
375.71	14.119
376.07	14.335
376.42	13.686
376.78	14.977
377.14	13.569
377.50	14.503
377.86	14.162
378.22	14.286
378.58	14.411
378.94	14.142
379.30	13.931
379.66	14.530
380.02	14.251
380.38	13.479
380.74	15.486
381.09	15.159
381.45	15.612
381.81	15.111
382.17	15.414
382.53	14.088
382.89	16.111
383.25	14.634
383.61	15.118
383.97	14.947
384.32	15.346
384.68	14.808
385.04	14.997
385.40	14.737
385.76	14.926
386.12	15.415
386.48	16.551
386.83	16.357
387.19	15.832
387.55	16.450
387.91	16.082
388.27	16.186
388.62	16.411
388.98	14.988
389.34	16.521
389.70	16.861
390.06	16.286
390.42	15.953
390.77	17.048
391.13	17.103
391.49	16.751
391.85	16.232
392.20	15.710
392.56	16.856
392.92	16.833
393.28	15.976
393.64	16.427
393.99	17.838
394.35	17.432
394.71	16.939
395.07	16.885
395.42	17.614
395.78	17.366
396.14	17.070
396.50	18.233
396.85	18.436
397.21	17.386
397.57	17.421
397.92	18.570
398.28	16.480
398.64	17.622
399.00	17.515
399.35	17.033
399.71	18.056
400.07	18.569
400.42	18.221
400.78	19.481
401.14	18.110
401.49	18.866
401.85	18.270
402.21	18.443
402.57	17.952
402.92	18.916
403.28	19.425
403.63	19.059
403.99	19.108
404.35	20.242
404.70	19.305
405.06	19.045
405.42	19.027
405.77	19.657
406.13	18.623
406.49	19.515
406.84	19.551
407.20	19.917
407.55	20.549
407.91	20.467
408.27	19.974
408.62	20.771
408.98	20.772
409.34	20.357
409.69	20.839
410.05	21.190
410.40	20.856
410.76	21.027
411.11	22.195
411.47	20.639
411.83	21.503
412.18	20.903
412.54	21.793
412.89	21.988
413.25	22.255
413.60	22.607
413.96	21.372
414.31	22.965
414.67	22.497
415.03	23.113
415.38	22.680
415.74	23.473
416.09	23.971
416.45	22.289
416.80	23.001
417.16	23.995
417.51	23.225
417.87	22.608
418.22	23.091
418.58	23.757
418.93	23.526
419.29	23.361
419.64	24.433
420.00	23.902
420.35	23.884
420.71	24.686
421.06	24.045
421.42	24.561
421.77	23.767
422.12	23.807
422.48	24.231
422.83	24.985
423.19	24.641
423.54	24.724
423.90	25.449
424.25	25.014
424.61	24.821
424.96	24.956
425.31	24.806
425.67	23.820
426.02	24.629
426.38	26.007
426.73	24.400
427.09	25.836
427.44	25.244
427.79	25.359
428.15	26.548
428.50	26.214
428.85	25.566
429.21	25.456
429.56	25.713
429.92	25.918
430.27	25.124
430.62	24.680
430.98	25.324
431.33	25.515
431.68	26.178
432.04	25.719
432.39	25.757
432.74	25.434
433.10	26.542
433.45	26.880
433.80	26.829
434.16	26.389
434.51	25.684
434.86	26.796
435.22	25.737
435.57	27.112
435.92	26.331
436.28	26.750
436.63	27.980
436.98	27.075
437.34	27.430
437.69	27.538
438.04	27.094
438.39	27.582
438.75	27.775
439.10	26.983
439.45	27.450
439.81	27.613
440.16	27.103
440.51	27.182
440.86	27.910
441.22	27.030
441.57	27.495
441.92	27.687
442.27	26.911
442.63	27.067
442.98	27.944
443.33	27.500
443.68	28.136
444.03	27.818
444.39	26.534
444.74	27.652
445.09	28.086
445.44	27.556
445.79	27.660
446.15	27.951
446.50	28.056
446.85	28.263
447.20	27.027
447.55	28.476
447.91	27.579
448.26	27.657
448.61	27.247
448.96	28.848
449.31	29.415
449.66	27.856
450.02	28.245
450.37	27.324
450.72	28.314
451.07	27.057
451.42	27.781
451.77	28.655
452.12	27.540
452.47	28.358
452.83	28.904
453.18	28.240
453.53	29.375
453.88	27.584
454.23	28.093
454.58	28.165
454.93	28.671
455.28	27.868
455.63	28.095
455.98	29.107
456.34	28.266
456.69	28.491
457.04	29.040
457.39	28.580
457.74	28.671
458.09	28.235
458.44	28.791
458.79	26.898
459.14	29.007
459.49	28.371
459.84	28.144
460.19	27.342
460.54	27.836
460.89	27.592
461.24	28.233
461.59	28.646
461.94	27.867
462.29	28.309
462.64	28.334
462.99	27.912
463.34	29.133
463.69	27.642
464.04	27.884
464.39	27.362
464.74	28.223
465.09	28.528
465.44	28.033
465.79	28.188
466.14	27.586
466.49	27.475
466.84	27.846
467.19	27.942
467.54	27.812
467.89	28.271
468.24	27.400
468.59	28.999
468.94	28.222
469.29	28.085
469.64	28.648
469.99	28.552
470.34	28.071
470.68	29.167
471.03	28.639
471.38	28.700
471.73	28.781
472.08	29.013
472.43	28.141
472.78	28.308
473.13	28.370
473.48	27.965
473.83	27.866
474.17	28.002
474.52	29.094
474.87	28.488
475.22	27.800
475.57	27.620
475.92	27.297
476.27	27.339
476.61	27.854
476.96	27.708
477.31	27.420
477.66	28.337
478.01	26.660
478.36	28.292
478.70	27.207
479.05	27.316
479.40	27.124
479.75	27.758
480.10	26.441
480.45	27.511
480.79	26.374
481.14	27.544
481.49	27.290
481.84	26.749
482.19	26.851
482.53	27.339
482.88	26.803
483.23	26.776
483.58	26.934
483.92	26.710
484.27	25.316
484.62	25.905
484.97	25.660
485.31	26.336
485.66	24.705
486.01	23.655
486.36	23.493
486.70	23.206
487.05	23.884
487.40	24.566
487.75	24.918
488.09	25.235
488.44	25.584
488.79	26.148
489.13	26.012
489.48	26.591
489.83	26.629
490.17	25.997
490.52	25.864
490.87	26.097
491.22	26.012
491.56	26.333
491.91	25.407
492.26	25.494
492.60	26.037
492.95	25.117
493.30	25.935
493.64	25.525
493.99	25.487
494.34	25.671
494.68	25.870
495.03	25.987
495.37	25.547
495.72	26.072
496.07	25.522
496.41	25.044
496.76	25.066
497.11	25.889
497.45	25.803
497.80	25.288
498.14	24.976
498.49	26.049
498.84	24.832
499.18	25.143
499.53	25.689
499.87	25.489
500.22	24.823
500.56	25.097
500.91	24.375
501.26	25.367
501.60	26.056
501.95	25.985
502.29	25.445
502.64	25.326
502.98	25.152
503.33	25.274
503.67	24.826
504.02	25.585
504.36	24.848
504.71	25.354
505.06	25.253
505.40	24.939
505.75	24.879
506.09	24.295
506.44	24.716
506.78	25.913
507.13	25.088
507.47	25.455
507.82	25.329
508.16	25.583
508.51	24.556
508.85	25.223
509.19	25.306
509.54	25.153
509.88	25.142
510.23	25.450
510.57	25.232
510.92	24.650
511.26	25.488
511.61	25.622
511.95	25.157
512.30	25.027
512.64	25.363
512.98	25.563
513.33	24.839
513.67	25.133
514.02	24.026
514.36	25.997
514.70	25.069
515.05	25.823
515.39	24.846
515.74	25.901
516.08	25.321
516.42	25.416
516.77	25.808
517.11	24.861
517.46	26.016
517.80	25.436
518.14	24.899
518.49	26.196
518.83	24.716
519.17	24.885
519.52	25.127
519.86	25.898
520.20	25.838
520.55	25.673
520.89	26.582
521.23	26.055
521.58	25.810
521.92	25.168
522.26	24.222
522.61	26.044
522.95	25.660
523.29	25.867
523.64	25.976
523.98	25.940
524.32	25.573
524.66	25.015
525.01	25.123
525.35	25.713
525.69	25.123
526.04	25.047
526.38	24.954
526.72	25.399
527.06	25.549
527.41	24.443
527.75	25.852
528.09	25.755
528.43	24.793
528.78	25.446
529.12	24.909
529.46	25.536
529.80	26.052
530.15	25.109
530.49	25.600
530.83	26.646
531.17	26.632
531.51	27.108
531.86	25.806
532.20	26.597
532.54	26.201
532.88	24.904
533.22	24.485
533.57	24.568
533.91	24.865
534.25	25.456
534.59	25.869
534.93	24.569
535.27	25.045
535.62	24.359
535.96	25.487
536.30	24.031
536.64	24.533
536.98	25.614
537.32	23.634
537.66	24.467
538.01	25.082
538.35	24.952
538.69	25.526
539.03	24.496
539.37	24.601
539.71	23.590
540.05	24.641
540.39	24.850
540.73	23.480
541.07	25.503
541.42	24.658
541.76	25.871
542.10	25.356
542.44	24.768
542.78	24.967
543.12	23.736
543.46	24.656
543.80	25.439
544.14	23.748
544.48	25.079
544.82	24.182
545.16	24.854
545.50	24.229
545.84	24.328
546.18	22.896
546.52	24.501
546.86	24.124
547.20	24.208
547.54	23.647
547.88	25.255
548.22	23.599
548.56	23.145
548.90	23.367
549.24	23.569
549.58	24.625
549.92	24.794
550.26	24.645
550.60	23.721
550.94	25.000
551.28	23.409
551.62	24.083
551.96	23.368
552.30	23.481
552.64	22.921
552.98	24.136
553.32	24.005
553.66	23.858
554.00	24.159
554.34	23.948
554.68	24.464
555.02	22.849
555.36	23.104
555.69	22.801
556.03	22.476
556.37	23.670
556.71	22.988
557.05	22.689
557.39	23.583
557.73	23.783
558.07	23.858
558.41	22.721
558.75	21.822
559.08	24.236
559.42	23.205
559.76	23.235
560.10	22.769
560.44	23.131
560.78	21.690
561.12	23.153
561.45	22.099
561.79	21.292
562.13	23.072
562.47	22.541
562.81	22.106
563.15	22.475
563.48	22.613
563.82	21.722
564.16	22.433
564.50	22.201
564.84	21.997
565.17	21.686
565.51	22.109
565.85	21.383
566.19	20.914
566.52	22.356
566.86	20.675
567.20	21.816
567.54	20.890
567.88	20.152
568.21	20.476
568.55	20.728
568.89	20.233
569.23	19.920
569.56	19.352
569.90	18.717
570.24	18.873
570.57	18.327
570.91	18.229
571.25	18.005
571.59	18.027
571.92	17.742
572.26	17.649
572.60	18.108
572.93	18.321
573.27	18.131
573.61	17.979
573.95	18.165
574.28	17.085
574.62	17.590
574.96	17.037
575.29	16.901
575.63	17.048
575.97	17.287
576.30	17.233
576.64	16.780
576.98	17.039
577.31	16.982
577.65	16.786
577.98	16.124
578.32	16.362
578.66	16.331
578.99	16.686
579.33	16.412
579.67	16.614
580.00	16.830
580.34	16.991
580.67	16.781
581.01	16.685
581.35	16.466
581.68	16.236
582.02	15.882
582.35	15.913
582.69	15.899
583.02	16.175
583.36	16.717
583.70	17.033
584.03	16.588
584.37	17.022
584.70	16.902
585.04	16.879
585.37	16.473
585.71	16.283
586.04	16.550
586.38	16.458
586.72	17.150
587.05	16.653
587.39	15.989
587.72	16.078
588.06	16.462
588.39	16.900
588.73	16.662
589.06	16.734
589.40	16.902
589.73	16.649
590.07	16.833
590.40	16.807
590.73	17.018
591.07	16.972
591.40	17.714
591.74	18.095
592.07	17.190
592.41	17.115
592.74	16.479
593.08	15.756
593.41	16.008
593.75	16.084
594.08	16.225
594.41	15.836
594.75	16.118
595.08	16.392
595.42	16.252
595.75	16.738
596.09	16.560
596.42	17.407
596.75	17.096
597.09	17.316
597.42	16.189
597.75	17.206
598.09	16.957
598.42	16.538
598.76	15.809
599.09	15.545
599.42	15.721
599.76	16.142
600.09	15.592
600.42	15.924
600.76	15.393
601.09	15.738
601.42	15.639
601.76	15.863
602.09	16.285
602.42	16.799
602.76	16.647
603.09	16.129
603.42	15.931
603.76	15.511
604.09	15.471
604.42	16.266
604.76	16.871
605.09	16.033
605.42	15.434
605.75	15.604
606.09	15.982
606.42	15.734
606.75	15.968
607.09	16.116
607.42	15.704
607.75	15.316
608.08	15.545
608.42	16.540
608.75	15.645
609.08	15.911
609.41	16.183
609.75	16.103
610.08	15.457
610.41	15.317
610.74	15.894
611.07	16.551
611.41	16.290
611.74	16.591
612.07	17.081
612.40	17.051
612.73	15.684
613.07	16.325
613.40	16.588
613.73	16.151
614.06	16.237
614.39	16.099
614.72	15.842
615.06	16.702
615.39	15.977
615.72	15.900
616.05	16.055
616.38	16.509
616.71	16.330
617.05	16.784
617.38	16.536
617.71	16.096
618.04	16.767
618.37	16.322
618.70	17.424
619.03	17.500
619.36	16.633
619.69	16.831
620.03	16.964
620.36	16.578
620.69	18.219
621.02	16.962
621.35	17.698
621.68	17.835
622.01	16.873
622.34	18.381
622.67	17.338
623.00	16.801
623.33	15.797
623.66	17.584
623.99	17.968
624.32	15.977
624.65	16.737
624.99	15.581
625.32	16.944
625.65	16.829
625.98	16.679
626.31	17.729
626.64	17.714
626.97	18.371
627.30	17.955
627.63	17.637
627.96	18.167
628.29	17.935
628.62	19.396
628.95	18.868
629.28	18.978
629.61	18.973
629.94	19.048
630.26	18.017
630.59	18.208
630.92	16.284
631.25	18.460
631.58	17.518
631.91	19.067
632.24	19.515
632.57	18.888
632.90	18.750
633.23	19.351
633.56	19.435
633.89	19.932
634.22	19.523
634.55	18.935
634.88	19.521
635.20	21.266
635.53	19.398
635.86	20.916
636.19	18.235
636.52	19.608
636.85	18.671
637.18	19.355
637.51	19.858
637.83	17.263
638.16	20.460
638.49	20.277
638.82	22.250
639.15	20.500
639.48	20.324
639.81	20.107
640.13	20.703
640.46	20.134
640.79	22.061
641.12	19.395
641.45	20.391
641.77	22.828
642.10	21.053
642.43	21.021
642.76	20.588
643.09	21.472
643.41	17.906
643.74	22.994
644.07	22.104
644.40	22.239
644.73	23.150
645.05	21.395
645.38	21.011
645.71	20.129
646.04	21.927
646.36	21.870
646.69	22.241
647.02	22.789
647.35	21.821
647.67	23.363
648.00	21.951
648.33	20.627
648.66	20.000
648.98	21.289
649.31	20.927
649.64	21.674
649.96	20.715
650.29	19.905
650.62	20.388
650.94	23.177
651.27	21.622
651.60	21.631
651.92	21.406
652.25	20.521
652.58	22.118
652.90	21.643
653.23	19.106
653.56	20.630
653.88	23.296
654.21	21.801
654.54	21.617
654.86	20.093
655.19	17.162
655.52	11.476
655.84	8.614
656.17	11.030
656.49	15.104
656.82	15.659
657.15	12.288
657.47	9.250
657.80	7.193
658.13	7.717
658.45	11.341
658.78	12.080
659.10	12.368
659.43	13.138
659.75	14.828
660.08	15.823
660.41	19.553
660.73	21.855
661.06	21.019
661.38	23.091
661.71	22.885
662.03	24.458
662.36	22.465
662.68	24.699
663.01	22.020
663.33	23.779
663.66	24.370
663.98	24.406
664.31	24.160
664.63	22.267
664.96	20.724
665.28	23.566
665.61	23.002
665.93	23.340
666.26	22.312
666.58	22.803
666.91	24.524
667.23	24.944
667.56	24.190
667.88	21.581
668.21	25.373
668.53	23.210
668.86	24.459
669.18	25.160
669.50	25.652
669.83	24.837
670.15	23.556
670.48	23.312
670.80	26.293
671.13	26.752
671.45	21.277
671.77	21.996
672.10	21.811
672.42	19.965
672.75	21.725
673.07	20.070
673.39	20.796
673.72	20.703
674.04	22.353
674.37	23.107
674.69	19.632
675.01	22.803
675.34	22.793
675.66	25.053
675.98	24.644
676.31	22.269
676.63	25.902
676.95	21.384
677.28	25.701
677.60	24.396
677.92	24.473
678.25	20.945
678.57	21.912
678.89	22.846
679.22	22.004
679.54	21.756
679.86	23.119
680.18	22.719
680.51	21.454
680.83	23.488
681.15	23.962
681.48	22.684
681.80	22.437
682.12	21.264
682.44	18.375
682.77	22.403
683.09	25.107
683.41	22.395
683.73	22.737
684.06	21.694
684.38	20.939
684.70	20.930
685.02	22.514
685.34	20.330
685.67	19.056
685.99	18.900
686.31	20.307
686.63	19.435
686.96	18.571
687.28	19.134
687.60	21.377
687.92	23.218
688.24	22.243
688.56	21.888
688.89	23.237
689.21	23.799
689.53	22.965
689.85	22.838
690.17	20.497
690.49	23.567
690.82	25.234
691.14	18.304
691.46	20.042
691.78	20.884
692.10	21.074
692.42	24.152
692.74	21.162
693.06	22.128
693.39	24.641
693.71	21.834
694.03	24.632
694.35	20.996
694.67	22.654
694.99	28.049
695.31	22.549
695.63	22.967
695.95	27.384
696.27	20.305
696.59	23.057
696.91	23.057
697.23	19.718
697.56	21.535
697.88	19.223
698.20	20.833
698.52	21.720
698.84	23.385
699.16	20.968
699.48	23.278
699.80	22.464
700.12	27.532
700.44	25.995
700.76	25.138
701.08	24.425
701.40	25.140
701.72	30.904
702.04	30.682
702.36	20.680
702.68	26.346
703.00	24.377
703.32	24.734
703.64	25.737
703.96	23.955
704.28	27.035
704.60	27.273
704.91	26.706
705.23	26.686
705.55	32.226
705.87	29.236
706.19	28.622
706.51	27.103
706.83	27.273
707.15	26.891
707.47	23.737
707.79	23.342
708.11	22.603
708.43	24.762
708.74	20.918
709.06	24.675
709.38	24.672
709.70	28.779
710.02	25.223
710.34	22.727
710.66	28.657
710.98	26.136
711.29	28.198
711.61	29.204
711.93	25.962
712.25	32.476
712.57	27.941
712.89	29.066
713.20	27.660
713.52	29.276
713.84	29.114
714.16	26.524
714.48	25.575
714.80	27.964
715.11	24.207
715.43	26.113
715.75	25.507
716.07	29.073
716.39	27.586
716.70	30.565
717.02	28.058
717.34	31.449
717.66	28.358
717.97	32.271
718.29	26.667
718.61	30.292
718.93	29.779
719.24	29.758
719.56	27.797
719.88	28.475
720.20	32.432
720.51	31.010
720.83	30.855
721.15	27.239
721.46	27.305
721.78	28.315
722.10	27.547
722.42	33.835
722.73	29.588
723.05	26.230
723.37	31.174
723.68	33.977
724.00	29.268
724.32	29.839
724.63	30.894
724.95	33.473
725.27	32.794
725.58	33.594
725.90	31.752
726.22	30.943
726.53	26.042
726.85	30.034
727.16	28.826
727.48	24.113
727.80	30.682
728.11	27.174
728.43	28.077
728.74	30.108
729.06	35.766
729.38	30.515
729.69	29.181
730.01	27.986
730.32	28.472
730.64	25.753
730.96	26.073
731.27	28.146
731.59	24.771
731.90	24.781
732.22	25.466
732.53	26.006
732.85	24.359
733.16	25.402
733.48	29.568
733.80	27.273
734.11	27.389
734.43	24.556
734.74	22.857
735.06	21.777
735.37	27.457
735.69	23.885
736.00	28.431
736.32	29.595
736.63	23.962
736.95	27.476
737.26	24.490
737.58	24.194
737.89	28.428
738.21	28.328
738.52	25.714
738.83	30.943
739.15	25.385
739.46	30.657
739.78	25.000
740.09	27.385
740.41	26.452
740.72	23.693
741.04	29.259
741.35	32.500
741.66	37.778
741.98	29.245
742.29	35.407
742.61	38.793
742.92	29.864
743.23	36.752
743.55	33.200
743.86	34.649
744.18	41.593
744.49	36.842
744.80	35.211
745.12	38.636
745.43	33.480
745.74	35.135
746.06	34.404
746.37	34.978
746.68	32.127
747.00	35.185
747.31	33.333
747.62	26.106
747.94	35.242
748.25	28.936
748.56	34.802
748.88	32.673
749.19	44.000
749.50	36.279
749.82	27.642
750.13	31.020
750.44	25.912
750.75	28.421
751.07	28.296
751.38	31.707
751.69	26.354
752.01	30.075
752.32	28.159
752.63	30.851
752.94	30.328
753.26	35.200
753.57	26.016
753.88	30.078
754.19	27.143
754.51	28.819
754.82	22.744
755.13	29.057
755.44	25.940
755.75	28.832
756.07	25.177
756.38	27.737
756.69	28.523
757.00	26.048
757.31	24.036
757.63	24.561
757.94	22.788
758.25	21.324
758.56	20.247
758.87	24.462
759.18	25.455
759.50	25.078
759.81	22.741
760.12	24.688
760.43	25.788
760.74	23.370
761.05	24.576
761.36	22.995
761.67	25.284
761.99	27.329
762.30	26.736
762.61	24.427
762.92	29.687
763.23	32.773
763.54	32.400
763.85	28.125
764.16	29.231
764.47	33.840
764.78	24.735
765.10	24.684
765.41	25.664
765.72	21.557
766.03	25.392
766.34	23.667
766.65	32.340
766.96	31.624
767.27	37.563
767.58	38.542
767.89	41.053
768.20	40.805
768.51	31.980
768.82	34.404
769.13	28.049
769.44	30.364
769.75	30.901
770.06	27.064
770.37	36.199
770.68	32.870
770.99	34.222
771.30	25.410
771.61	30.942
771.92	33.607
772.23	36.555
772.54	36.923
772.85	34.555
773.16	42.021
773.47	41.304
773.78	41.624
774.09	34.524
774.39	38.596
774.70	44.444
775.01	50.000
775.32	44.444
775.63	48.684
775.94	47.482
776.25	56.693
776.56	47.761
776.87	57.377
777.18	52.344
777.48	58.779
777.79	53.030
778.10	48.148
778.41	54.464
778.72	52.555
779.03	48.993
779.34	45.638
779.65	43.243
779.95	42.331
780.26	49.673
780.57	48.966
780.88	52.344
781.19	45.113
781.50	52.703
781.80	49.686
782.11	35.028
782.42	38.608
782.73	41.718
783.04	45.270
783.34	47.887
783.65	50.000
783.96	47.015
784.27	44.056
784.57	43.165
784.88	47.222
785.19	61.905
785.50	57.547
785.81	61.194
786.11	49.180
786.42	48.062
786.73	56.637
787.04	65.094
787.34	49.107
787.65	68.000
787.96	63.063
788.26	52.893
788.57	50.847
788.88	59.504
789.19	52.083
789.49	55.303
789.80	54.198
790.11	68.571
790.41	60.396
790.72	59.036
791.03	60.870
791.33	69.767
791.64	77.320
791.95	72.277
792.25	81.111
792.56	84.416
792.87	88.462
793.17	96.203
793.48	71.264
793.79	81.609
794.09	79.545
794.40	62.185
794.70	62.500
795.01	48.889
795.32	43.165
795.62	54.331
795.93	58.621
796.23	46.018
796.54	70.588
796.85	77.027
797.15	85.915
797.46	98.485
797.76	80.723
798.07	74.684
798.37	92.308
798.68	98.485
798.99	73.239
799.29	83.117
799.60	70.455
799.90	87.671
800.21	79.104
800.51	106.897
800.82	101.754
801.12	86.885
801.43	103.030
801.73	74.324
802.04	111.111
802.34	77.778
802.65	106.250
802.95	101.695
803.26	101.563
803.56	58.571
803.87	87.692
804.17	88.235
804.48	107.407
804.78	86.207
805.09	88.235
805.39	107.692
805.70	112.500
806.00	121.311
806.30	83.333
806.61	70.732
806.91	78.481
807.22	76.316
807.52	67.164
807.83	84.507
808.13	89.062
808.43	91.667
808.74	71.053
809.04	92.754
809.35	80.597
809.65	93.421
809.95	120.968
810.26	93.220
810.56	96.825
810.86	138.636
811.17	152.381
811.47	125.000
811.77	107.407
812.08	116.364
812.38	120.000
812.69	166.667
812.99	159.091
813.29	130.612
813.59	109.524
813.90	134.694
814.20	100.000
814.50	86.154
814.81	107.353
815.11	97.959
815.41	109.836
815.72	154.762
816.02	116.364
816.32	152.381
816.62	145.000
816.93	134.146
817.23	123.810
817.53	138.636
817.84	181.818
818.14	134.783
818.44	126.667
818.74	152.941
819.04	127.500
819.35	194.286
819.65	188.235
819.95	207.143
820.25	250.000
820.56	166.667
820.86	150.000
821.16	134.884
821.46	125.641
821.76	130.000
822.07	165.714
822.37	145.000
822.67	187.879
822.97	113.725
823.27	217.857
823.57	167.568
823.88	140.000
824.18	223.333
824.48	164.286
824.78	224.000
825.08	200.000
825.38	162.162
825.69	143.902
825.99	258.333
826.29	172.414
826.59	157.895
826.89	165.789
827.19	185.294
827.49	196.774
827.79	143.182
828.09	125.000
828.39	110.638
828.70	120.408
829.00	188.889
829.30	158.065
829.60	175.000
829.90	340.000
830.20	200.000
830.50	195.652
830.80	217.391
831.10	203.333
831.40	193.333
831.70	191.304
832.00	223.077
832.30	218.519
832.60	387.500
832.90	210.000
833.20	442.857
833.50	209.677
833.80	175.862
834.10	181.250
834.40	250.000
834.70	283.333
835.00	309.524
835.30	162.857
835.60	400.000
835.90	213.793
836.20	385.714
836.50	220.690
836.80	228.000
837.10	183.333
837.40	238.095
837.70	388.235
838.00	222.222
838.30	242.857
838.60	352.381
838.90	234.615
839.19	320.000
839.49	428.571
839.79	320.000
840.09	260.000
840.39	257.143
840.69	256.522
840.99	322.222
841.29	530.000
841.59	383.333
841.88	331.250
842.18	203.448
842.48	276.190
842.78	213.333
843.08	252.174
843.38	190.625
843.68	866.667
843.97	242.308
844.27	210.345
844.57	352.381
844.87	387.500
845.17	222.222
845.47	1600.000
845.76	477.778
846.06	341.176
846.36	712.500
846.66	400.000
846.96	300.000
847.25	500.000
847.55	345.455
847.85	286.957
848.15	530.000
848.44	407.143
848.74	222.222
849.04	341.176
849.34	600.000
849.63	289.474
849.93	527.273
850.23	1100.000
850.53	435.714
850.82	2400.000
851.12	-4300.000
851.42	4700.000
851.71	275.000
852.01	-1300.000
852.31	266.667
852.61	1766.667
852.90	300.000
853.20	260.000
853.50	341.176
853.79	295.238
854.09	237.500
854.39	293.750
854.68	172.973
854.98	200.000
855.28	200.000
855.57	244.828
855.87	229.630
856.17	257.895
856.46	280.000
856.76	294.118
857.05	203.448
857.35	254.167
857.65	393.333
857.94	278.261
858.24	265.385
858.53	285.000
858.83	277.273
859.13	400.000
859.42	0.000
859.72	600.000
860.01	400.000
860.31	272.727
860.60	310.526
860.90	200.000
861.20	511.111
861.49	550.000
861.79	-4700.000
862.08	687.500
862.38	304.762
862.67	376.923
862.97	364.706
863.26	544.444
863.56	316.667
863.85	475.000
864.15	662.500
864.44	386.667
864.74	783.333
865.03	587.500
865.33	347.368
865.62	490.909
865.92	461.538
866.21	383.333
866.51	0.000
866.80	500.000
867.10	1260.000
867.39	430.769
867.69	500.000
867.98	289.474
868.27	545.455
868.57	326.316
868.86	-5300.000
869.16	375.000
869.45	2150.000
869.75	-4100.000
870.04	450.000
870.33	771.429
870.63	1200.000
870.92	2800.000
871.22	742.857
871.51	358.824
871.80	276.190
872.10	364.286
>>>>>End Processed Spectral Data<<<<<
