SpectraSuite Data File
++++++++++++++++++++++++++++++++++++
Date: Wed May 13 19:40:37 PDT 2015
User: schluterlab
Dark Spectrum Present: Yes
Reference Spectrum Present: Yes
Number of Sampled Component Spectra: 1
Spectrometers: USB2E3373
Integration Time (usec): 3000 (USB2E3373)
Spectra Averaged: 3 (USB2E3373)
Boxcar Smoothing: 0 (USB2E3373)
Correct for Electrical Dark: No (USB2E3373)
Strobe/Lamp Enabled: No (USB2E3373)
Correct for Detector Non-linearity: No (USB2E3373)
Correct for Stray Light: No (USB2E3373)
Number of Pixels in Processed Spectrum: 2048
>>>>>Begin Processed Spectral Data<<<<<
178.53	0.000
178.91	-1500.000
179.29	-1525.000
179.67	-311.111
180.04	-1275.000
180.42	2800.000
180.80	1120.000
181.18	-1100.000
181.56	742.857
181.94	0.000
182.31	-771.429
182.69	1566.667
183.07	-650.000
183.45	-577.778
183.83	627.273
184.20	-400.000
184.58	2450.000
184.96	5500.000
185.34	-980.000
185.72	-775.000
186.09	-2500.000
186.47	2700.000
186.85	2500.000
187.23	5600.000
187.61	-1466.667
187.98	1425.000
188.36	572.727
188.74	500.000
189.12	-940.000
189.49	570.000
189.87	-4200.000
190.25	-1450.000
190.63	414.286
191.00	453.846
191.38	983.333
191.76	-1350.000
192.14	1475.000
192.51	762.500
192.89	1000.000
193.27	562.500
193.65	-1175.000
194.02	540.000
194.40	1080.000
194.78	610.000
195.15	525.000
195.53	570.000
195.91	-2300.000
196.29	387.500
196.66	300.000
197.04	-400.000
197.42	0.000
197.79	620.000
198.17	-4200.000
198.55	671.429
198.92	762.500
199.30	1160.000
199.68	0.000
200.05	344.444
200.43	857.143
200.81	5100.000
201.18	1900.000
201.56	-1566.667
201.94	400.000
202.31	688.889
202.69	425.000
203.07	600.000
203.44	0.000
203.82	1350.000
204.19	857.143
204.57	400.000
204.95	700.000
205.32	1600.000
205.70	545.455
206.08	428.571
206.45	2750.000
206.83	362.500
207.20	1066.667
207.58	840.000
207.96	366.667
208.33	612.500
208.71	-866.667
209.08	828.571
209.46	666.667
209.84	545.455
210.21	-1500.000
210.59	1475.000
210.96	-550.000
211.34	2350.000
211.71	720.000
212.09	833.333
212.46	0.000
212.84	1800.000
213.22	1075.000
213.59	-5300.000
213.97	966.667
214.34	771.429
214.72	718.182
215.09	1180.000
215.47	-2000.000
215.84	-2950.000
216.22	1700.000
216.59	464.286
216.97	1275.000
217.34	509.091
217.72	-716.667
218.09	0.000
218.47	-5400.000
218.84	577.778
219.22	771.429
219.59	1800.000
219.97	-600.000
220.34	820.000
220.72	-1700.000
221.09	492.857
221.47	1625.000
221.84	-1050.000
222.22	0.000
222.59	1250.000
222.97	-3200.000
223.34	1200.000
223.72	461.538
224.09	1200.000
224.46	2850.000
224.84	-4900.000
225.21	-960.000
225.59	-5100.000
225.96	590.000
226.34	355.000
226.71	2850.000
227.08	750.000
227.46	560.000
227.83	-1375.000
228.21	-2550.000
228.58	588.889
228.95	-2250.000
229.33	-2400.000
229.70	1800.000
230.08	942.857
230.45	-780.000
230.82	391.667
231.20	1000.000
231.57	585.714
231.95	550.000
232.32	245.455
232.69	481.818
233.07	628.571
233.44	392.308
233.81	-1566.667
234.19	263.158
234.56	391.667
234.93	441.667
235.31	472.727
235.68	230.769
236.05	364.286
236.43	172.727
236.80	257.895
237.17	4400.000
237.55	242.857
237.92	178.571
238.29	233.333
238.67	167.742
239.04	193.103
239.41	138.889
239.79	97.826
240.16	114.286
240.53	106.818
240.91	78.431
241.28	96.000
241.65	88.000
242.02	84.058
242.40	88.710
242.77	91.667
243.14	59.140
243.51	67.416
243.89	60.000
244.26	55.556
244.63	66.667
245.00	47.872
245.38	55.446
245.75	45.794
246.12	44.954
246.49	51.825
246.87	53.600
247.24	42.308
247.61	35.000
247.98	41.176
248.36	26.351
248.73	31.210
249.10	38.217
249.47	32.768
249.84	38.503
250.22	30.481
250.59	25.444
250.96	29.798
251.33	29.858
251.70	35.149
252.08	24.286
252.45	21.973
252.82	22.174
253.19	26.809
253.56	21.961
253.94	21.577
254.31	21.094
254.68	22.692
255.05	25.461
255.42	19.512
255.79	19.853
256.16	23.466
256.54	20.141
256.91	20.285
257.28	17.986
257.65	20.462
258.02	18.323
258.39	17.666
258.76	19.398
259.14	18.155
259.51	16.717
259.88	15.839
260.25	19.637
260.62	18.208
260.99	13.665
261.36	17.718
261.73	15.186
262.10	14.535
262.47	17.183
262.85	17.270
263.22	15.954
263.59	19.943
263.96	16.209
264.33	16.710
264.70	15.526
265.07	15.601
265.44	13.889
265.81	11.436
266.18	15.829
266.55	12.927
266.92	15.479
267.29	15.278
267.66	14.679
268.03	14.091
268.40	14.019
268.77	13.126
269.14	13.964
269.51	14.898
269.88	13.520
270.25	13.544
270.62	13.483
270.99	14.624
271.36	14.592
271.73	10.280
272.10	14.348
272.47	12.688
272.84	13.420
273.21	14.046
273.58	11.354
273.95	9.224
274.32	11.983
274.69	13.490
275.06	12.402
275.43	12.766
275.80	12.826
276.17	11.405
276.54	12.058
276.91	11.858
277.28	11.523
277.65	11.412
278.02	11.594
278.39	13.672
278.76	12.182
279.13	12.453
279.50	14.153
279.87	11.753
280.23	9.381
280.60	11.605
280.97	8.688
281.34	9.735
281.71	13.455
282.08	10.557
282.45	10.545
282.82	10.480
283.19	8.556
283.56	12.281
283.92	10.660
284.29	10.229
284.66	9.074
285.03	10.127
285.40	10.035
285.77	9.596
286.14	10.535
286.51	10.000
286.87	12.479
287.24	10.586
287.61	8.989
287.98	10.877
288.35	9.033
288.72	9.502
289.08	9.546
289.45	8.731
289.82	9.431
290.19	8.163
290.56	9.342
290.93	8.610
291.29	8.896
291.66	8.112
292.03	10.029
292.40	10.279
292.77	9.467
293.13	9.701
293.50	9.913
293.87	9.481
294.24	7.111
294.60	9.025
294.97	8.866
295.34	10.014
295.71	8.239
296.08	7.407
296.44	9.078
296.81	8.587
297.18	8.266
297.55	6.464
297.91	7.124
298.28	9.639
298.65	8.877
299.02	8.432
299.38	8.499
299.75	6.469
300.12	7.407
300.48	7.125
300.85	8.138
301.22	8.153
301.59	7.323
301.95	6.801
302.32	8.216
302.69	6.930
303.05	6.424
303.42	6.667
303.79	7.701
304.15	5.478
304.52	6.489
304.89	6.620
305.25	6.381
305.62	7.248
305.99	7.556
306.35	6.711
306.72	7.960
307.09	7.103
307.45	7.770
307.82	5.580
308.19	7.726
308.55	6.580
308.92	7.411
309.29	6.019
309.65	6.257
310.02	7.188
310.38	7.312
310.75	6.441
311.12	5.937
311.48	6.792
311.85	7.128
312.22	6.348
312.58	6.237
312.95	6.653
313.31	6.505
313.68	6.965
314.05	9.665
314.41	7.739
314.78	6.546
315.14	7.349
315.51	7.621
315.87	7.921
316.24	7.249
316.61	6.725
316.97	6.458
317.34	6.556
317.70	7.648
318.07	6.833
318.43	9.198
318.80	8.622
319.16	7.815
319.53	6.379
319.89	7.619
320.26	8.500
320.62	8.234
320.99	8.687
321.35	8.586
321.72	8.932
322.08	10.267
322.45	10.149
322.81	10.659
323.18	10.405
323.54	10.111
323.91	11.321
324.27	9.751
324.64	9.599
325.00	9.107
325.37	10.555
325.73	10.772
326.10	11.209
326.46	8.961
326.83	10.181
327.19	10.675
327.56	10.801
327.92	11.199
328.29	11.979
328.65	11.050
329.01	11.372
329.38	11.378
329.74	10.342
330.11	11.781
330.47	12.213
330.84	13.603
331.20	11.749
331.56	11.560
331.93	11.944
332.29	12.777
332.66	12.655
333.02	12.249
333.38	12.918
333.75	12.389
334.11	12.100
334.48	11.269
334.84	11.397
335.20	12.000
335.57	11.877
335.93	12.054
336.29	11.996
336.66	12.804
337.02	10.860
337.38	13.704
337.75	12.389
338.11	12.892
338.47	12.339
338.84	12.741
339.20	11.193
339.56	13.321
339.93	12.364
340.29	12.591
340.65	11.586
341.02	13.089
341.38	12.811
341.74	12.719
342.11	12.576
342.47	12.863
342.83	11.986
343.20	13.506
343.56	11.794
343.92	10.965
344.28	11.820
344.65	11.866
345.01	12.290
345.37	11.664
345.73	12.014
346.10	12.361
346.46	12.288
346.82	12.191
347.19	12.114
347.55	12.890
347.91	11.812
348.27	13.065
348.63	12.625
349.00	12.136
349.36	11.905
349.72	11.628
350.08	11.588
350.45	12.693
350.81	12.510
351.17	13.533
351.53	12.531
351.89	10.561
352.26	12.391
352.62	12.109
352.98	12.237
353.34	11.175
353.70	12.111
354.07	11.694
354.43	11.984
354.79	12.631
355.15	11.812
355.51	12.310
355.87	12.327
356.24	11.889
356.60	12.189
356.96	12.068
357.32	11.938
357.68	12.283
358.04	12.906
358.40	11.956
358.77	11.659
359.13	11.050
359.49	12.235
359.85	9.921
360.21	11.085
360.57	12.296
360.93	11.000
361.29	11.413
361.66	10.526
362.02	12.388
362.38	11.407
362.74	11.979
363.10	10.733
363.46	11.225
363.82	10.053
364.18	11.894
364.54	12.927
364.90	11.969
365.26	11.103
365.62	12.126
365.98	11.395
366.35	10.888
366.71	11.714
367.07	11.435
367.43	11.466
367.79	11.278
368.15	12.787
368.51	10.538
368.87	12.277
369.23	10.827
369.59	11.875
369.95	10.882
370.31	11.752
370.67	11.449
371.03	11.835
371.39	11.808
371.75	11.838
372.11	11.878
372.47	11.730
372.83	11.671
373.19	10.910
373.55	11.973
373.91	12.150
374.27	11.409
374.63	11.782
374.99	11.653
375.35	10.328
375.71	11.446
376.07	12.071
376.42	11.279
376.78	11.398
377.14	11.398
377.50	11.854
377.86	10.572
378.22	11.188
378.58	10.840
378.94	10.685
379.30	10.305
379.66	11.294
380.02	10.872
380.38	10.868
380.74	11.345
381.09	11.002
381.45	10.879
381.81	10.811
382.17	11.975
382.53	10.252
382.89	11.111
383.25	10.882
383.61	11.152
383.97	11.507
384.32	11.167
384.68	10.843
385.04	11.063
385.40	11.022
385.76	11.609
386.12	10.427
386.48	11.328
386.83	10.776
387.19	11.503
387.55	11.626
387.91	11.185
388.27	10.668
388.62	11.555
388.98	10.135
389.34	11.327
389.70	11.404
390.06	11.597
390.42	11.414
390.77	11.387
391.13	11.168
391.49	10.914
391.85	10.821
392.20	10.410
392.56	10.606
392.92	11.242
393.28	10.473
393.64	11.151
393.99	11.118
394.35	10.794
394.71	10.790
395.07	10.280
395.42	11.001
395.78	11.005
396.14	11.546
396.50	11.529
396.85	10.935
397.21	10.419
397.57	11.407
397.92	11.358
398.28	9.922
398.64	11.051
399.00	10.912
399.35	10.716
399.71	10.880
400.07	11.768
400.42	11.227
400.78	10.856
401.14	10.122
401.49	10.448
401.85	10.466
402.21	10.120
402.57	10.672
402.92	10.151
403.28	11.555
403.63	10.334
403.99	10.000
404.35	11.091
404.70	10.432
405.06	9.785
405.42	10.605
405.77	11.029
406.13	9.707
406.49	10.231
406.84	10.927
407.20	9.693
407.55	10.530
407.91	10.133
408.27	10.274
408.62	10.295
408.98	10.049
409.34	10.394
409.69	10.581
410.05	9.789
410.40	9.847
410.76	9.857
411.11	10.736
411.47	9.649
411.83	10.324
412.18	9.586
412.54	10.399
412.89	10.542
413.25	9.386
413.60	10.439
413.96	9.532
414.31	10.146
414.67	9.759
415.03	10.662
415.38	11.534
415.74	9.839
416.09	10.516
416.45	9.906
416.80	10.046
417.16	11.059
417.51	11.148
417.87	9.249
418.22	10.978
418.58	10.781
418.93	9.521
419.29	10.057
419.64	10.327
420.00	10.366
420.35	9.797
420.71	10.341
421.06	9.547
421.42	9.708
421.77	9.585
422.12	9.433
422.48	8.635
422.83	9.435
423.19	9.558
423.54	9.228
423.90	9.971
424.25	9.101
424.61	9.345
424.96	9.854
425.31	9.468
425.67	8.596
426.02	9.257
426.38	9.951
426.73	9.830
427.09	9.970
427.44	9.431
427.79	8.856
428.15	9.107
428.50	9.538
428.85	10.310
429.21	8.945
429.56	9.072
429.92	9.109
430.27	9.235
430.62	8.602
430.98	9.393
431.33	9.124
431.68	8.586
432.04	9.691
432.39	8.681
432.74	8.857
433.10	9.111
433.45	9.096
433.80	8.703
434.16	9.295
434.51	8.368
434.86	8.609
435.22	9.061
435.57	8.815
435.92	9.187
436.28	9.964
436.63	8.996
436.98	8.357
437.34	9.183
437.69	9.452
438.04	8.938
438.39	9.672
438.75	9.239
439.10	9.218
439.45	8.973
439.81	8.822
440.16	9.091
440.51	8.787
440.86	8.512
441.22	7.898
441.57	8.280
441.92	8.649
442.27	8.827
442.63	8.373
442.98	9.634
443.33	8.533
443.68	8.622
444.03	8.736
444.39	7.887
444.74	8.820
445.09	8.571
445.44	9.021
445.79	9.302
446.15	8.788
446.50	9.047
446.85	8.736
447.20	8.414
447.55	8.264
447.91	8.384
448.26	8.792
448.61	9.271
448.96	8.915
449.31	8.661
449.66	8.610
450.02	8.245
450.37	8.673
450.72	8.178
451.07	8.714
451.42	8.693
451.77	9.160
452.12	8.661
452.47	8.644
452.83	8.275
453.18	8.619
453.53	7.854
453.88	8.387
454.23	8.846
454.58	9.388
454.93	8.582
455.28	8.853
455.63	9.102
455.98	9.643
456.34	8.606
456.69	8.704
457.04	9.226
457.39	8.241
457.74	9.344
458.09	9.718
458.44	8.552
458.79	7.538
459.14	8.296
459.49	8.990
459.84	8.698
460.19	7.543
460.54	9.086
460.89	8.064
461.24	8.743
461.59	9.471
461.94	8.015
462.29	9.080
462.64	8.424
462.99	8.198
463.34	9.867
463.69	8.443
464.04	8.638
464.39	8.522
464.74	8.794
465.09	8.625
465.44	8.476
465.79	7.886
466.14	8.539
466.49	8.621
466.84	8.406
467.19	8.570
467.54	9.313
467.89	8.643
468.24	8.610
468.59	9.219
468.94	7.941
469.29	8.869
469.64	9.237
469.99	8.728
470.34	8.653
470.68	9.339
471.03	7.755
471.38	9.104
471.73	8.927
472.08	9.013
472.43	8.794
472.78	9.085
473.13	8.729
473.48	9.114
473.83	7.744
474.17	8.152
474.52	8.685
474.87	8.698
475.22	8.183
475.57	7.953
475.92	7.647
476.27	8.117
476.61	7.722
476.96	7.971
477.31	7.431
477.66	7.768
478.01	7.737
478.36	8.355
478.70	7.529
479.05	8.520
479.40	8.240
479.75	7.372
480.10	7.604
480.45	7.711
480.79	6.976
481.14	7.681
481.49	7.214
481.84	7.590
482.19	7.678
482.53	7.661
482.88	7.399
483.23	7.196
483.58	7.097
483.92	7.545
484.27	6.841
484.62	7.198
484.97	6.977
485.31	7.055
485.66	6.121
486.01	5.361
486.36	5.269
486.70	5.362
487.05	5.931
487.40	6.154
487.75	6.134
488.09	6.733
488.44	6.471
488.79	6.944
489.13	7.143
489.48	6.648
489.83	7.035
490.17	6.708
490.52	7.086
490.87	7.508
491.22	6.503
491.56	6.697
491.91	6.840
492.26	7.074
492.60	7.465
492.95	6.455
493.30	7.056
493.64	7.373
493.99	7.428
494.34	7.123
494.68	7.280
495.03	7.284
495.37	7.259
495.72	7.602
496.07	7.100
496.41	7.257
496.76	7.168
497.11	7.114
497.45	7.080
497.80	7.246
498.14	7.246
498.49	7.220
498.84	7.095
499.18	7.143
499.53	7.028
499.87	6.990
500.22	7.254
500.56	7.476
500.91	6.827
501.26	7.349
501.60	6.787
501.95	7.058
502.29	6.795
502.64	7.635
502.98	7.059
503.33	6.764
503.67	7.657
504.02	6.829
504.36	7.440
504.71	6.986
505.06	7.614
505.40	7.778
505.75	6.750
506.09	7.046
506.44	7.005
506.78	7.306
507.13	7.521
507.47	7.727
507.82	6.991
508.16	7.295
508.51	7.915
508.85	6.554
509.19	6.786
509.54	7.143
509.88	7.470
510.23	6.581
510.57	8.411
510.92	7.457
511.26	6.835
511.61	7.832
511.95	7.516
512.30	6.946
512.64	7.308
512.98	7.395
513.33	8.030
513.67	7.257
514.02	7.576
514.36	7.264
514.70	7.194
515.05	6.581
515.39	7.796
515.74	6.982
516.08	7.881
516.42	7.214
516.77	7.525
517.11	7.658
517.46	7.619
517.80	8.711
518.14	7.180
518.49	7.585
518.83	7.443
519.17	7.044
519.52	7.470
519.86	7.074
520.20	7.861
520.55	7.840
520.89	7.968
521.23	7.660
521.58	8.223
521.92	7.716
522.26	7.444
522.61	7.726
522.95	7.551
523.29	7.973
523.64	8.293
523.98	7.086
524.32	7.961
524.66	7.998
525.01	8.150
525.35	7.311
525.69	7.697
526.04	8.037
526.38	8.298
526.72	8.344
527.06	7.847
527.41	7.302
527.75	8.746
528.09	7.836
528.43	8.222
528.78	8.175
529.12	8.000
529.46	7.655
529.80	7.797
530.15	7.788
530.49	7.815
530.83	8.228
531.17	8.681
531.51	9.792
531.86	7.806
532.20	8.670
532.54	8.648
532.88	7.766
533.22	7.433
533.57	8.025
533.91	7.706
534.25	8.384
534.59	7.322
534.93	7.852
535.27	8.449
535.62	8.120
535.96	8.161
536.30	7.120
536.64	8.049
536.98	8.096
537.32	7.439
537.66	7.800
538.01	8.690
538.35	7.628
538.69	9.764
539.03	8.057
539.37	7.923
539.71	6.999
540.05	8.366
540.39	8.306
540.73	7.762
541.07	8.501
541.42	8.089
541.76	8.194
542.10	8.344
542.44	7.285
542.78	8.235
543.12	7.806
543.46	8.328
543.80	8.458
544.14	7.895
544.48	8.190
544.82	8.082
545.16	7.482
545.50	7.326
545.84	7.594
546.18	8.350
546.52	7.846
546.86	7.904
547.20	8.361
547.54	8.617
547.88	8.865
548.22	8.593
548.56	7.547
548.90	7.426
549.24	7.946
549.58	7.776
549.92	8.654
550.26	8.097
550.60	8.714
550.94	8.662
551.28	7.169
551.62	8.555
551.96	8.000
552.30	9.010
552.64	8.722
552.98	8.814
553.32	8.699
553.66	8.521
554.00	8.648
554.34	8.213
554.68	8.155
555.02	8.392
555.36	8.559
555.69	8.322
556.03	7.672
556.37	7.776
556.71	8.049
557.05	8.403
557.39	8.467
557.73	7.975
558.07	8.557
558.41	7.887
558.75	8.597
559.08	8.576
559.42	7.634
559.76	8.456
560.10	7.780
560.44	8.386
560.78	8.184
561.12	8.047
561.45	9.192
561.79	7.053
562.13	8.384
562.47	8.675
562.81	8.159
563.15	8.227
563.48	7.891
563.82	8.023
564.16	7.979
564.50	6.641
564.84	7.206
565.17	6.885
565.51	7.604
565.85	7.931
566.19	7.201
566.52	7.410
566.86	7.052
567.20	7.842
567.54	7.877
567.88	6.627
568.21	7.460
568.55	7.432
568.89	6.858
569.23	7.219
569.56	6.599
569.90	6.415
570.24	6.243
570.57	5.950
570.91	5.947
571.25	5.683
571.59	6.009
571.92	5.530
572.26	5.373
572.60	5.886
572.93	5.817
573.27	6.211
573.61	5.807
573.95	6.202
574.28	5.352
574.62	5.588
574.96	5.424
575.29	5.383
575.63	5.412
575.97	5.598
576.30	5.921
576.64	5.484
576.98	5.396
577.31	5.476
577.65	5.429
577.98	5.127
578.32	5.123
578.66	5.241
578.99	5.410
579.33	5.084
579.67	4.841
580.00	5.322
580.34	5.529
580.67	5.483
581.01	5.577
581.35	5.236
581.68	5.449
582.02	5.073
582.35	5.009
582.69	5.135
583.02	5.106
583.36	5.234
583.70	5.370
584.03	5.538
584.37	5.692
584.70	5.277
585.04	5.553
585.37	5.592
585.71	5.545
586.04	5.871
586.38	5.643
586.72	5.910
587.05	5.596
587.39	5.251
587.72	5.643
588.06	5.443
588.39	5.679
588.73	5.515
589.06	5.921
589.40	5.960
589.73	6.160
590.07	6.121
590.40	5.590
590.73	5.972
591.07	7.041
591.40	6.790
591.74	6.840
592.07	6.457
592.41	6.821
592.74	5.768
593.08	6.262
593.41	5.947
593.75	5.746
594.08	5.967
594.41	6.539
594.75	6.137
595.08	6.442
595.42	6.200
595.75	5.627
596.09	6.722
596.42	7.191
596.75	6.543
597.09	7.359
597.42	6.239
597.75	6.813
598.09	7.130
598.42	6.271
598.76	5.797
599.09	6.119
599.42	6.186
599.76	5.893
600.09	6.375
600.42	5.807
600.76	6.071
601.09	5.938
601.42	5.708
601.76	6.148
602.09	6.126
602.42	6.927
602.76	6.731
603.09	6.648
603.42	6.482
603.76	6.479
604.09	5.855
604.42	6.563
604.76	7.254
605.09	6.597
605.42	6.584
605.75	6.498
606.09	5.897
606.42	6.130
606.75	6.429
607.09	7.242
607.42	6.162
607.75	5.738
608.08	6.557
608.42	6.544
608.75	6.583
609.08	6.846
609.41	6.997
609.75	6.289
610.08	7.257
610.41	6.611
610.74	6.291
611.07	7.065
611.41	7.262
611.74	7.592
612.07	6.418
612.40	7.608
612.73	7.053
613.07	7.489
613.40	7.899
613.73	6.660
614.06	7.043
614.39	7.604
614.72	7.316
615.06	7.668
615.39	6.582
615.72	7.055
616.05	6.592
616.38	6.726
616.71	7.779
617.05	7.185
617.38	7.336
617.71	7.027
618.04	7.632
618.37	7.392
618.70	7.156
619.03	8.355
619.36	8.758
619.69	7.394
620.03	8.379
620.36	8.021
620.69	8.973
621.02	8.407
621.35	8.222
621.68	8.255
622.01	8.437
622.34	9.077
622.67	7.681
623.00	7.850
623.33	6.791
623.66	8.077
623.99	8.616
624.32	8.488
624.65	8.404
624.99	6.728
625.32	7.603
625.65	8.189
625.98	8.455
626.31	9.720
626.64	8.816
626.97	8.894
627.30	7.648
627.63	9.352
627.96	9.588
628.29	8.136
628.62	9.149
628.95	10.377
629.28	9.672
629.61	9.716
629.94	9.429
630.26	9.628
630.59	9.724
630.92	9.387
631.25	9.082
631.58	9.710
631.91	9.331
632.24	8.439
632.57	10.073
632.90	9.868
633.23	9.732
633.56	10.621
633.89	10.193
634.22	9.989
634.55	10.414
634.88	10.778
635.20	9.797
635.53	11.928
635.86	9.777
636.19	10.588
636.52	10.496
636.85	10.195
637.18	10.369
637.51	11.702
637.83	9.741
638.16	11.125
638.49	10.957
638.82	11.125
639.15	11.500
639.48	11.596
639.81	12.064
640.13	11.589
640.46	11.678
640.79	12.417
641.12	9.766
641.45	11.034
641.77	13.255
642.10	11.696
642.43	10.961
642.76	9.288
643.09	13.344
643.41	11.988
643.74	12.037
644.07	12.652
644.40	12.577
644.73	13.543
645.05	14.105
645.38	13.270
645.71	11.594
646.04	12.791
646.36	14.858
646.69	13.545
647.02	13.435
647.35	13.230
647.67	13.982
648.00	14.959
648.33	12.211
648.66	12.424
648.98	12.594
649.31	10.762
649.64	12.108
649.96	11.177
650.29	13.428
650.62	11.003
650.94	14.425
651.27	16.216
651.60	14.809
651.92	12.300
652.25	10.912
652.58	11.994
652.90	14.060
653.23	12.173
653.56	12.283
653.88	12.520
654.21	14.692
654.54	12.706
654.86	11.526
655.19	10.405
655.52	6.934
655.84	3.972
656.17	4.662
656.49	6.143
656.82	6.408
657.15	5.105
657.47	3.971
657.80	3.113
658.13	3.395
658.45	5.205
658.78	5.557
659.10	5.867
659.43	6.501
659.75	7.057
660.08	8.101
660.41	8.101
660.73	14.104
661.06	11.306
661.38	14.000
661.71	15.962
662.03	16.568
662.36	11.928
662.68	14.458
663.01	15.556
663.33	16.561
663.66	13.445
663.98	14.471
664.31	12.605
664.63	14.777
664.96	11.871
665.28	14.959
665.61	13.060
665.93	16.097
666.26	15.010
666.58	14.017
666.91	17.759
667.23	16.629
667.56	13.823
667.88	17.735
668.21	15.778
668.53	13.666
668.86	16.450
669.18	18.977
669.50	15.000
669.83	17.647
670.15	16.000
670.48	15.468
670.80	14.871
671.13	16.561
671.45	14.043
671.77	16.904
672.10	14.048
672.42	13.604
672.75	12.935
673.07	13.380
673.39	11.754
673.72	12.695
674.04	13.333
674.37	12.039
674.69	15.337
675.01	14.435
675.34	17.864
675.66	17.474
675.98	16.497
676.31	16.176
676.63	15.924
676.95	14.256
677.28	11.215
677.60	14.725
677.92	17.722
678.25	16.427
678.57	15.139
678.89	14.830
679.22	14.735
679.54	13.359
679.86	14.862
680.18	16.458
680.51	13.830
680.83	13.879
681.15	13.585
681.48	15.690
681.80	12.959
682.12	13.218
682.44	11.992
682.77	14.460
683.09	18.026
683.41	17.960
683.73	15.453
684.06	16.116
684.38	15.851
684.70	15.698
685.02	14.259
685.34	13.370
685.67	11.364
685.99	12.543
686.31	11.604
686.63	11.131
686.96	13.036
687.28	15.343
687.60	12.681
687.92	14.442
688.24	13.878
688.56	13.454
688.89	15.560
689.21	16.376
689.53	14.405
689.85	15.965
690.17	14.907
690.49	17.622
690.82	14.252
691.14	16.071
691.46	13.502
691.78	14.257
692.10	15.702
692.42	16.168
692.74	13.693
693.06	13.191
693.39	16.016
693.71	15.066
694.03	17.053
694.35	14.935
694.67	15.332
694.99	20.488
695.31	15.931
695.63	16.268
695.95	16.381
696.27	13.706
696.59	16.839
696.91	19.430
697.23	15.493
697.56	15.991
697.88	14.928
698.20	12.708
698.52	15.699
698.84	16.927
699.16	16.820
699.48	15.439
699.80	19.082
700.12	18.701
700.44	20.159
700.76	15.746
701.08	19.540
701.40	18.436
701.72	19.825
702.04	23.864
702.36	15.581
702.68	18.414
703.00	17.175
703.32	19.415
703.64	16.890
703.96	18.106
704.28	21.512
704.60	19.648
704.91	19.288
705.23	20.528
705.55	20.598
705.87	22.924
706.19	20.848
706.51	20.872
706.83	21.212
707.15	19.888
707.47	18.939
707.79	16.953
708.11	18.493
708.43	16.667
708.74	15.051
709.06	19.740
709.38	18.635
709.70	21.802
710.02	19.288
710.34	15.455
710.66	22.687
710.98	23.011
711.29	21.802
711.61	22.714
711.93	19.231
712.25	24.437
712.57	24.265
712.89	22.145
713.20	24.012
713.52	20.724
713.84	22.785
714.16	19.207
714.48	18.966
714.80	23.708
715.11	18.732
715.43	20.772
715.75	19.420
716.07	21.086
716.39	22.884
716.70	21.927
717.02	21.942
717.34	25.088
717.66	26.493
717.97	28.287
718.29	20.741
718.61	21.168
718.93	26.103
719.24	23.875
719.56	21.017
719.88	25.763
720.20	25.000
720.51	24.739
720.83	23.420
721.15	20.896
721.46	22.340
721.78	23.656
722.10	24.151
722.42	24.436
722.73	22.097
723.05	24.180
723.37	22.267
723.68	26.255
724.00	26.423
724.32	25.806
724.63	24.390
724.95	25.105
725.27	25.911
725.58	23.438
725.90	29.562
726.22	23.019
726.53	21.528
726.85	22.184
727.16	22.420
727.48	19.149
727.80	23.864
728.11	26.087
728.43	22.308
728.74	26.882
729.06	28.467
729.38	26.471
729.69	26.690
730.01	22.867
730.32	18.056
730.64	24.415
730.96	19.142
731.27	19.205
731.59	19.572
731.90	20.700
732.22	18.634
732.53	17.647
732.85	21.474
733.16	19.614
733.48	18.605
733.80	21.753
734.11	21.975
734.43	18.935
734.74	19.143
735.06	17.479
735.37	22.543
735.69	18.153
736.00	24.837
736.32	21.807
736.63	23.323
736.95	18.850
737.26	15.646
737.58	20.000
737.89	23.746
738.21	23.549
738.52	23.929
738.83	19.245
739.15	20.385
739.46	24.818
739.78	19.097
740.09	21.538
740.41	21.935
740.72	21.951
741.04	24.444
741.35	23.333
741.66	34.667
741.98	24.057
742.29	31.579
742.61	31.034
742.92	22.624
743.23	29.915
743.55	22.800
743.86	27.632
744.18	31.416
744.49	29.665
744.80	28.638
745.12	31.364
745.43	26.432
745.74	34.234
746.06	30.275
746.37	26.457
746.68	24.887
747.00	29.167
747.31	32.857
747.62	24.779
747.94	24.670
748.25	22.553
748.56	25.551
748.88	24.257
749.19	31.500
749.50	21.395
749.82	26.016
750.13	22.041
750.44	21.168
750.75	25.263
751.07	24.437
751.38	22.997
751.69	24.910
752.01	26.692
752.32	19.495
752.63	23.759
752.94	23.361
753.26	26.800
753.57	23.171
753.88	28.516
754.19	23.214
754.51	22.917
754.82	21.661
755.13	22.264
755.44	24.812
755.75	25.182
756.07	20.213
756.38	20.803
756.69	19.799
757.00	24.251
757.31	18.101
757.63	18.129
757.94	16.354
758.25	19.118
758.56	16.790
758.87	17.204
759.18	21.818
759.50	21.944
759.81	20.249
760.12	17.500
760.43	19.771
760.74	18.207
761.05	20.056
761.36	17.380
761.67	21.023
761.99	18.944
762.30	22.569
762.61	25.573
762.92	23.438
763.23	28.571
763.54	23.600
763.85	23.047
764.16	25.385
764.47	25.856
764.78	22.261
765.10	18.038
765.41	20.354
765.72	17.665
766.03	22.257
766.34	22.667
766.65	24.255
766.96	29.487
767.27	35.533
767.58	32.812
767.89	34.211
768.20	31.034
768.51	28.426
768.82	28.440
769.13	23.577
769.44	24.696
769.75	22.318
770.06	22.477
770.37	30.317
770.68	33.796
770.99	27.556
771.30	21.311
771.61	33.632
771.92	27.869
772.23	31.933
772.54	29.744
772.85	31.937
773.16	35.638
773.47	31.522
773.78	29.442
774.09	32.143
774.39	35.088
774.70	35.185
775.01	42.029
775.32	41.830
775.63	32.895
775.94	36.691
776.25	40.945
776.56	48.507
776.87	43.443
777.18	41.406
777.48	49.618
777.79	44.697
778.10	45.185
778.41	49.107
778.72	37.956
779.03	43.624
779.34	43.624
779.65	33.784
779.95	38.650
780.26	42.484
780.57	44.138
780.88	55.469
781.19	45.113
781.50	43.243
781.80	45.912
782.11	31.073
782.42	33.544
782.73	34.356
783.04	43.243
783.34	40.845
783.65	50.000
783.96	44.030
784.27	33.566
784.57	39.568
784.88	36.111
785.19	58.730
785.50	45.283
785.81	50.746
786.11	58.197
786.42	49.612
786.73	46.018
787.04	49.057
787.34	47.321
787.65	53.000
787.96	48.649
788.26	45.455
788.57	60.169
788.88	50.413
789.19	50.000
789.49	42.424
789.80	51.145
790.11	60.000
790.41	66.337
790.72	49.398
791.03	63.043
791.33	63.953
791.64	61.856
791.95	59.406
792.25	68.889
792.56	75.325
792.87	69.231
793.17	81.013
793.48	63.218
793.79	60.920
794.09	64.773
794.40	52.101
794.70	50.000
795.01	51.852
795.32	41.727
795.62	44.882
795.93	62.069
796.23	49.558
796.54	62.353
796.85	58.108
797.15	98.592
797.46	81.818
797.76	78.313
798.07	79.747
798.37	80.000
798.68	92.424
798.99	71.831
799.29	68.831
799.60	60.227
799.90	75.342
800.21	88.060
800.51	100.000
800.82	98.246
801.12	80.328
801.43	89.394
801.73	71.622
802.04	95.238
802.34	81.481
802.65	95.312
802.95	89.831
803.26	87.500
803.56	77.143
803.87	93.846
804.17	75.000
804.48	101.852
804.78	75.862
805.09	97.059
805.39	96.154
805.70	103.571
806.00	98.361
806.30	81.818
806.61	79.268
806.91	75.949
807.22	77.632
807.52	67.164
807.83	80.282
808.13	75.000
808.43	95.000
808.74	76.316
809.04	89.855
809.35	85.075
809.65	71.053
809.95	85.484
810.26	72.881
810.56	76.190
810.86	118.182
811.17	142.857
811.47	111.667
811.77	103.704
812.08	98.182
812.38	126.000
812.69	150.000
812.99	147.727
813.29	118.367
813.59	102.381
813.90	110.204
814.20	112.727
814.50	93.846
814.81	83.824
815.11	93.878
815.41	103.279
815.72	128.571
816.02	123.636
816.32	109.524
816.62	135.000
816.93	126.829
817.23	145.238
817.53	134.091
817.84	187.879
818.14	136.957
818.44	122.222
818.74	138.235
819.04	127.500
819.35	134.286
819.65	164.706
819.95	200.000
820.25	195.000
820.56	169.231
820.86	134.091
821.16	120.930
821.46	143.590
821.76	110.000
822.07	180.000
822.37	135.000
822.67	154.545
822.97	111.765
823.27	167.857
823.57	124.324
823.88	157.500
824.18	210.000
824.48	164.286
824.78	216.000
825.08	145.833
825.38	159.459
825.69	136.585
825.99	233.333
826.29	179.310
826.59	155.263
826.89	147.368
827.19	150.000
827.49	193.548
827.79	138.636
828.09	134.091
828.39	117.021
828.70	122.449
829.00	177.778
829.30	138.710
829.60	150.000
829.90	353.333
830.20	178.571
830.50	217.391
830.80	230.435
831.10	210.000
831.40	190.000
831.70	195.652
832.00	226.923
832.30	240.741
832.60	300.000
832.90	226.667
833.20	400.000
833.50	196.774
833.80	151.724
834.10	181.250
834.40	207.692
834.70	311.111
835.00	285.714
835.30	165.714
835.60	353.846
835.90	186.207
836.20	328.571
836.50	213.793
836.80	176.000
837.10	188.889
837.40	261.905
837.70	270.588
838.00	233.333
838.30	257.143
838.60	266.667
838.90	215.385
839.19	250.000
839.49	407.143
839.79	310.000
840.09	315.000
840.39	233.333
840.69	204.348
840.99	316.667
841.29	560.000
841.59	241.667
841.88	312.500
842.18	189.655
842.48	304.762
842.78	196.667
843.08	226.087
843.38	175.000
843.68	833.333
843.97	238.462
844.27	182.759
844.57	295.238
844.87	343.750
845.17	192.593
845.47	1366.667
845.76	455.556
846.06	300.000
846.36	412.500
846.66	350.000
846.96	312.500
847.25	490.909
847.55	363.636
847.85	300.000
848.15	370.000
848.44	392.857
848.74	255.556
849.04	435.294
849.34	550.000
849.63	242.105
849.93	418.182
850.23	880.000
850.53	478.571
850.82	2500.000
851.12	-3600.000
851.42	3500.000
851.71	275.000
852.01	-1300.000
852.31	229.167
852.61	1600.000
852.90	266.667
853.20	192.000
853.50	370.588
853.79	295.238
854.09	216.667
854.39	381.250
854.68	148.649
854.98	206.452
855.28	190.000
855.57	196.552
855.87	211.111
856.17	236.842
856.46	213.333
856.76	294.118
857.05	224.138
857.35	258.333
857.65	353.333
857.94	208.696
858.24	250.000
858.53	285.000
858.83	240.909
859.13	333.333
859.42	0.000
859.72	700.000
860.01	572.727
860.31	281.818
860.60	289.474
860.90	186.957
861.20	455.556
861.49	525.000
861.79	-4300.000
862.08	575.000
862.38	276.190
862.67	361.538
862.97	376.471
863.26	611.111
863.56	244.444
863.85	458.333
864.15	637.500
864.44	306.667
864.74	816.667
865.03	687.500
865.33	289.474
865.62	381.818
865.92	492.308
866.21	400.000
866.51	0.000
866.80	436.364
867.10	1100.000
867.39	430.769
867.69	354.545
867.98	300.000
868.27	481.818
868.57	336.842
868.86	-4700.000
869.16	381.250
869.45	2150.000
869.75	-4700.000
870.04	441.667
870.33	742.857
870.63	1150.000
870.92	2850.000
871.22	585.714
871.51	347.059
871.80	233.333
872.10	421.429
>>>>>End Processed Spectral Data<<<<<
