SpectraSuite Data File
++++++++++++++++++++++++++++++++++++
Date: Wed May 13 19:29:19 PDT 2015
User: schluterlab
Dark Spectrum Present: Yes
Reference Spectrum Present: Yes
Number of Sampled Component Spectra: 1
Spectrometers: USB2E3373
Integration Time (usec): 3000 (USB2E3373)
Spectra Averaged: 3 (USB2E3373)
Boxcar Smoothing: 0 (USB2E3373)
Correct for Electrical Dark: No (USB2E3373)
Strobe/Lamp Enabled: No (USB2E3373)
Correct for Detector Non-linearity: No (USB2E3373)
Correct for Stray Light: No (USB2E3373)
Number of Pixels in Processed Spectrum: 2048
>>>>>Begin Processed Spectral Data<<<<<
178.53	0.000
178.91	-1300.000
179.29	-1450.000
179.67	-238.889
180.04	-1125.000
180.42	2650.000
180.80	1020.000
181.18	-1275.000
181.56	671.429
181.94	0.000
182.31	-628.571
182.69	1566.667
183.07	-537.500
183.45	-455.556
183.83	536.364
184.20	-330.000
184.58	1950.000
184.96	5800.000
185.34	-880.000
185.72	-650.000
186.09	-2150.000
186.47	2550.000
186.85	2550.000
187.23	5100.000
187.61	-1700.000
187.98	1375.000
188.36	536.364
188.74	572.727
189.12	-880.000
189.49	630.000
189.87	-4900.000
190.25	-1400.000
190.63	371.429
191.00	438.462
191.38	783.333
191.76	-1175.000
192.14	1350.000
192.51	687.500
192.89	1000.000
193.27	725.000
193.65	-1150.000
194.02	420.000
194.40	1120.000
194.78	680.000
195.15	550.000
195.53	640.000
195.91	-2200.000
196.29	287.500
196.66	347.368
197.04	-400.000
197.42	0.000
197.79	500.000
198.17	-5200.000
198.55	685.714
198.92	762.500
199.30	1020.000
199.68	0.000
200.05	377.778
200.43	700.000
200.81	4200.000
201.18	1700.000
201.56	-1566.667
201.94	600.000
202.31	733.333
202.69	508.333
203.07	540.000
203.44	0.000
203.82	1275.000
204.19	842.857
204.57	442.857
204.95	512.500
205.32	1800.000
205.70	518.182
206.08	392.857
206.45	2600.000
206.83	400.000
207.20	1050.000
207.58	960.000
207.96	338.889
208.33	775.000
208.71	-850.000
209.08	771.429
209.46	644.444
209.84	400.000
210.21	-1500.000
210.59	1600.000
210.96	-500.000
211.34	2250.000
211.71	580.000
212.09	750.000
212.46	0.000
212.84	2100.000
213.22	1350.000
213.59	-4200.000
213.97	950.000
214.34	814.286
214.72	572.727
215.09	1100.000
215.47	-2500.000
215.84	-2800.000
216.22	1966.667
216.59	357.143
216.97	1500.000
217.34	463.636
217.72	-783.333
218.09	0.000
218.47	-5100.000
218.84	722.222
219.22	700.000
219.59	1833.333
219.97	-571.429
220.34	1000.000
220.72	-1733.333
221.09	414.286
221.47	1625.000
221.84	-883.333
222.22	0.000
222.59	1150.000
222.97	-2400.000
223.34	1260.000
223.72	476.923
224.09	1160.000
224.46	2600.000
224.84	-5100.000
225.21	-1100.000
225.59	-5300.000
225.96	620.000
226.34	300.000
226.71	2850.000
227.08	700.000
227.46	520.000
227.83	-1100.000
228.21	-2500.000
228.58	677.778
228.95	-2150.000
229.33	-2500.000
229.70	1666.667
230.08	900.000
230.45	-920.000
230.82	508.333
231.20	850.000
231.57	685.714
231.95	566.667
232.32	304.545
232.69	472.727
233.07	728.571
233.44	453.846
233.81	-1833.333
234.19	326.316
234.56	466.667
234.93	416.667
235.31	527.273
235.68	369.231
236.05	464.286
236.43	196.970
236.80	326.316
237.17	5400.000
237.55	242.857
237.92	250.000
238.29	285.714
238.67	206.452
239.04	234.483
239.41	191.667
239.79	152.174
240.16	166.667
240.53	175.000
240.91	135.294
241.28	180.000
241.65	148.000
242.02	146.377
242.40	120.968
242.77	135.000
243.14	111.828
243.51	102.247
243.89	112.941
244.26	97.778
244.63	102.151
245.00	102.128
245.38	95.050
245.75	97.196
246.12	97.248
246.49	88.321
246.87	99.200
247.24	91.538
247.61	94.286
247.98	77.778
248.36	85.811
248.73	75.796
249.10	87.898
249.47	83.616
249.84	83.957
250.22	76.471
250.59	81.065
250.96	75.253
251.33	75.355
251.70	78.218
252.08	77.143
252.45	72.197
252.82	73.913
253.19	73.617
253.56	67.843
253.94	74.689
254.31	70.703
254.68	74.231
255.05	73.063
255.42	75.610
255.79	70.956
256.16	70.036
256.54	70.318
256.91	69.751
257.28	66.187
257.65	65.677
258.02	68.323
258.39	64.984
258.76	65.217
259.14	63.393
259.51	67.477
259.88	66.149
260.25	64.955
260.62	63.584
260.99	65.217
261.36	65.165
261.73	64.756
262.10	62.500
262.47	67.887
262.85	61.560
263.22	62.108
263.59	68.091
263.96	63.736
264.33	64.230
264.70	60.000
265.07	62.660
265.44	63.889
265.81	60.097
266.18	65.327
266.55	57.317
266.92	60.442
267.29	61.111
267.66	63.532
268.03	59.091
268.40	59.579
268.77	62.291
269.14	60.586
269.51	57.562
269.88	63.869
270.25	61.625
270.62	56.404
270.99	61.935
271.36	58.798
271.73	61.215
272.10	59.348
272.47	57.849
272.84	60.173
273.21	62.055
273.58	58.515
273.95	54.927
274.32	56.405
274.69	60.385
275.06	55.118
275.43	59.149
275.80	59.319
276.17	57.434
276.54	60.707
276.91	58.498
277.28	58.594
277.65	57.447
278.02	59.006
278.39	57.422
278.76	54.364
279.13	58.113
279.50	55.866
279.87	55.976
280.23	57.884
280.60	58.027
280.97	56.007
281.34	57.345
281.71	57.091
282.08	56.814
282.45	56.000
282.82	55.950
283.19	54.724
283.56	55.789
283.92	56.007
284.29	54.850
284.66	54.991
285.03	55.335
285.40	55.106
285.77	54.545
286.14	54.059
286.51	52.167
286.87	52.137
287.24	53.583
287.61	52.970
287.98	52.597
288.35	52.456
288.72	53.583
289.08	50.704
289.45	51.400
289.82	50.244
290.19	48.823
290.56	49.617
290.93	47.885
291.29	48.466
291.66	50.885
292.03	49.128
292.40	49.339
292.77	47.781
293.13	49.254
293.50	47.959
293.87	46.074
294.24	46.074
294.60	46.725
294.97	47.384
295.34	47.250
295.71	45.597
296.08	44.160
296.44	43.466
296.81	44.518
297.18	45.664
297.55	40.897
297.91	43.799
298.28	45.649
298.65	42.689
299.02	44.005
299.38	43.161
299.75	41.375
300.12	42.401
300.48	40.750
300.85	41.554
301.22	42.420
301.59	39.520
301.95	41.688
302.32	42.105
302.69	39.904
303.05	42.788
303.42	40.988
303.79	40.430
304.15	40.559
304.52	39.977
304.89	39.489
305.25	38.979
305.62	37.486
305.99	41.086
306.35	39.933
306.72	38.901
307.09	40.511
307.45	39.414
307.82	38.728
308.19	40.287
308.55	39.051
308.92	38.346
309.29	38.015
309.65	37.434
310.02	39.323
310.38	39.785
310.75	39.599
311.12	38.383
311.48	38.871
311.85	40.042
312.22	39.334
312.58	38.150
312.95	39.071
313.31	39.126
313.68	39.605
314.05	40.434
314.41	40.000
314.78	39.476
315.14	39.523
315.51	40.989
315.87	41.386
316.24	40.218
316.61	40.156
316.97	40.802
317.34	39.922
317.70	41.874
318.07	42.830
318.43	42.661
318.80	43.861
319.16	44.727
319.53	41.839
319.89	44.762
320.26	45.300
320.62	46.230
320.99	46.263
321.35	45.758
321.72	47.125
322.08	47.581
322.45	49.652
322.81	49.709
323.18	51.349
323.54	50.649
323.91	52.547
324.27	52.008
324.64	53.308
325.00	52.931
325.37	56.051
325.73	56.373
326.10	54.192
326.46	56.900
326.83	58.326
327.19	59.095
327.56	59.843
327.92	60.892
328.29	60.870
328.65	62.707
329.01	62.996
329.38	63.922
329.74	65.189
330.11	64.844
330.47	64.922
330.84	64.982
331.20	66.485
331.56	67.248
331.93	67.315
332.29	65.217
332.66	67.788
333.02	67.093
333.38	68.383
333.75	66.934
334.11	68.505
334.48	67.791
334.84	71.232
335.20	70.455
335.57	68.812
335.93	68.304
336.29	70.421
336.66	68.801
337.02	67.059
337.38	71.759
337.75	67.291
338.11	70.009
338.47	70.166
338.84	71.586
339.20	71.009
339.56	71.898
339.93	70.909
340.29	69.203
340.65	70.677
341.02	71.291
341.38	70.907
341.74	70.702
342.11	72.751
342.47	72.599
342.83	70.377
343.20	69.004
343.56	70.177
343.92	72.456
344.28	70.578
344.65	72.227
345.01	69.192
345.37	71.527
345.73	71.743
346.10	71.270
346.46	70.847
346.82	70.346
347.19	70.008
347.55	69.540
347.91	71.036
348.27	70.748
348.63	71.488
349.00	70.227
349.36	70.443
349.72	70.409
350.08	70.989
350.45	70.708
350.81	71.649
351.17	70.908
351.53	70.925
351.89	69.472
352.26	70.403
352.62	72.013
352.98	69.530
353.34	71.323
353.70	69.885
354.07	70.726
354.43	70.159
354.79	69.027
355.15	71.269
355.51	72.182
355.87	73.143
356.24	72.394
356.60	71.211
356.96	72.164
357.32	71.382
357.68	71.575
358.04	69.992
358.40	70.150
358.77	70.266
359.13	70.639
359.49	71.765
359.85	71.508
360.21	71.292
360.57	71.751
360.93	71.846
361.29	71.051
361.66	70.046
362.02	71.791
362.38	73.764
362.74	72.693
363.10	71.355
363.46	71.680
363.82	70.673
364.18	69.897
364.54	73.254
364.90	72.450
365.26	72.206
365.62	73.265
365.98	71.439
366.35	70.917
366.71	72.234
367.07	73.562
367.43	74.311
367.79	73.519
368.15	73.204
368.51	71.366
368.87	74.233
369.23	73.958
369.59	74.511
369.95	73.235
370.31	73.006
370.67	72.101
371.03	74.157
371.39	73.251
371.75	73.824
372.11	70.128
372.47	73.607
372.83	73.703
373.19	72.038
373.55	74.723
373.91	74.963
374.27	70.584
374.63	74.618
374.99	74.153
375.35	72.854
375.71	72.995
376.07	73.937
376.42	74.759
376.78	74.155
377.14	73.202
377.50	72.914
377.86	73.205
378.22	75.032
378.58	72.243
378.94	72.847
379.30	73.855
379.66	74.556
380.02	72.727
380.38	73.831
380.74	73.950
381.09	72.311
381.45	74.800
381.81	73.649
382.17	73.885
382.53	73.836
382.89	73.951
383.25	74.171
383.61	74.349
383.97	73.108
384.32	73.799
384.68	73.110
385.04	73.141
385.40	74.118
385.76	73.649
386.12	73.575
386.48	74.261
386.83	75.690
387.19	75.139
387.55	74.397
387.91	73.096
388.27	73.084
388.62	74.431
388.98	72.420
389.34	73.279
389.70	73.513
390.06	73.764
390.42	74.254
390.77	73.282
391.13	74.601
391.49	74.048
391.85	74.157
392.20	72.177
392.56	72.664
392.92	73.455
393.28	73.077
393.64	73.141
393.99	72.511
394.35	72.767
394.71	74.341
395.07	72.399
395.42	73.857
395.78	73.282
396.14	71.322
396.50	73.622
396.85	73.744
397.21	71.702
397.57	72.908
397.92	71.755
398.28	71.300
398.64	72.222
399.00	72.468
399.35	71.968
399.71	71.181
400.07	71.437
400.42	73.067
400.78	73.583
401.14	72.500
401.49	72.299
401.85	71.325
402.21	70.060
402.57	71.622
402.92	73.077
403.28	72.517
403.63	71.349
403.99	72.420
404.35	71.879
404.70	71.583
405.06	70.355
405.42	71.928
405.77	70.686
406.13	69.413
406.49	72.147
406.84	70.998
407.20	70.922
407.55	72.368
407.91	72.267
408.27	70.900
408.62	70.199
408.98	71.569
409.34	70.295
409.69	70.323
410.05	70.880
410.40	69.969
410.76	69.415
411.11	69.119
411.47	69.329
411.83	70.006
412.18	69.821
412.54	69.738
412.89	70.181
413.25	69.303
413.60	69.981
413.96	68.488
414.31	69.927
414.67	69.328
415.03	71.987
415.38	69.072
415.74	69.389
416.09	70.738
416.45	68.942
416.80	70.258
417.16	70.107
417.51	71.931
417.87	69.493
418.22	68.770
418.58	69.529
418.93	70.639
419.29	70.465
419.64	69.521
420.00	68.841
420.35	68.232
420.71	69.695
421.06	69.033
421.42	69.006
421.77	69.170
422.12	67.771
422.48	68.969
422.83	68.783
423.19	68.619
423.54	68.195
423.90	69.449
424.25	67.895
424.61	68.690
424.96	69.155
425.31	67.442
425.67	67.921
426.02	66.800
426.38	69.475
426.73	67.876
427.09	68.450
427.44	69.983
427.79	68.660
428.15	68.333
428.50	69.748
428.85	68.296
429.21	67.697
429.56	67.963
429.92	67.791
430.27	67.130
430.62	67.588
430.98	68.085
431.33	68.196
431.68	68.325
432.04	66.454
432.39	69.332
432.74	68.701
433.10	68.421
433.45	68.513
433.80	67.905
434.16	67.041
434.51	66.842
434.86	68.529
435.22	68.427
435.57	68.571
435.92	68.929
436.28	68.921
436.63	67.936
436.98	67.888
437.34	68.933
437.69	68.845
438.04	69.196
438.39	69.373
438.75	69.611
439.10	67.821
439.45	67.946
439.81	69.366
440.16	67.984
440.51	69.420
440.86	68.384
441.22	68.521
441.57	67.251
441.92	68.219
442.27	68.945
442.63	67.720
442.98	69.746
443.33	69.565
443.68	69.386
444.03	69.058
444.39	68.160
444.74	69.751
445.09	68.248
445.44	69.054
445.79	69.174
446.15	67.602
446.50	68.282
446.85	68.808
447.20	67.313
447.55	71.078
447.91	69.388
448.26	69.004
448.61	70.661
448.96	69.878
449.31	69.685
449.66	69.443
450.02	69.081
450.37	68.991
450.72	70.333
451.07	69.287
451.42	69.119
451.77	70.699
452.12	70.092
452.47	69.714
452.83	70.338
453.18	68.215
453.53	70.563
453.88	70.467
454.23	68.739
454.58	70.503
454.93	70.629
455.28	69.077
455.63	70.510
455.98	70.357
456.34	68.530
456.69	70.006
457.04	71.455
457.39	68.615
457.74	69.472
458.09	68.890
458.44	70.182
458.79	66.432
459.14	69.526
459.49	69.177
459.84	69.030
460.19	69.770
460.54	68.171
460.89	69.007
461.24	70.006
461.59	69.843
461.94	69.420
462.29	70.089
462.64	68.985
462.99	68.835
463.34	70.267
463.69	68.981
464.04	67.826
464.39	67.188
464.74	68.449
465.09	68.396
465.44	67.258
465.79	68.345
466.14	66.776
466.49	66.741
466.84	68.710
467.19	67.471
467.54	68.375
467.89	69.148
468.24	68.237
468.59	68.742
468.94	67.440
469.29	68.445
469.64	67.738
469.99	70.568
470.34	68.428
470.68	70.330
471.03	68.571
471.38	70.466
471.73	68.688
472.08	68.618
472.43	66.457
472.78	67.413
473.13	67.651
473.48	67.790
473.83	68.780
474.17	67.206
474.52	68.114
474.87	67.134
475.22	68.195
475.57	66.040
475.92	65.959
476.27	65.896
476.61	66.133
476.96	66.135
477.31	66.196
477.66	67.341
478.01	66.074
478.36	66.843
478.70	65.161
479.05	66.773
479.40	65.865
479.75	66.090
480.10	65.855
480.45	65.731
480.79	64.453
481.14	64.971
481.49	65.211
481.84	65.112
482.19	65.697
482.53	65.229
482.88	64.774
483.23	65.374
483.58	64.968
483.92	64.902
484.27	62.876
484.62	64.440
484.97	64.210
485.31	65.068
485.66	62.291
486.01	60.059
486.36	58.717
486.70	58.602
487.05	60.126
487.40	61.696
487.75	62.815
488.09	63.664
488.44	64.877
488.79	66.582
489.13	66.081
489.48	65.171
489.83	64.609
490.17	64.402
490.52	64.438
490.87	64.812
491.22	63.620
491.56	63.872
491.91	63.564
492.26	62.242
492.60	63.041
492.95	62.956
493.30	63.131
493.64	63.836
493.99	62.860
494.34	63.367
494.68	63.049
495.03	64.333
495.37	62.541
495.72	63.255
496.07	64.594
496.41	61.283
496.76	62.313
497.11	63.440
497.45	63.531
497.80	62.956
498.14	62.415
498.49	63.122
498.84	63.087
499.18	63.095
499.53	63.105
499.87	61.929
500.22	61.470
500.56	63.350
500.91	61.923
501.26	61.735
501.60	63.218
501.95	61.549
502.29	63.590
502.64	62.384
502.98	61.898
503.33	60.603
503.67	60.835
504.02	61.085
504.36	61.161
504.71	62.433
505.06	61.976
505.40	61.983
505.75	59.981
506.09	61.224
506.44	60.927
506.78	61.227
507.13	61.888
507.47	62.222
507.82	61.499
508.16	62.107
508.51	62.506
508.85	59.782
509.19	61.684
509.54	61.020
509.88	61.051
510.23	60.977
510.57	62.281
510.92	61.264
511.26	60.689
511.61	61.048
511.95	60.543
512.30	61.294
512.64	61.902
512.98	60.718
513.33	60.385
513.67	60.192
514.02	60.606
514.36	61.387
514.70	60.266
515.05	60.792
515.39	60.460
515.74	61.712
516.08	60.089
516.42	61.210
516.77	61.594
517.11	60.322
517.46	61.343
517.80	61.382
518.14	59.815
518.49	60.327
518.83	59.886
519.17	60.912
519.52	59.536
519.86	60.525
520.20	60.000
520.55	61.460
520.89	61.861
521.23	61.580
521.58	61.345
521.92	60.870
522.26	61.257
522.61	61.308
522.95	59.975
523.29	59.951
523.64	61.341
523.98	61.183
524.32	59.650
524.66	59.471
525.01	60.294
525.35	60.595
525.69	59.483
526.04	60.125
526.38	60.281
526.72	59.202
527.06	60.640
527.41	57.426
527.75	60.064
528.09	61.272
528.43	59.273
528.78	59.865
529.12	58.545
529.46	59.094
529.80	60.210
530.15	58.941
530.49	58.031
530.83	58.861
531.17	60.770
531.51	61.738
531.86	59.226
532.20	61.147
532.54	60.346
532.88	59.178
533.22	59.338
533.57	58.457
533.91	57.797
534.25	57.959
534.59	59.365
534.93	57.704
535.27	58.781
535.62	58.364
535.96	59.573
536.30	57.915
536.64	58.661
536.98	59.323
537.32	57.670
537.66	59.667
538.01	58.130
538.35	59.082
538.69	58.456
539.03	58.674
539.37	57.700
539.71	57.032
540.05	59.150
540.39	58.937
540.73	56.016
541.07	59.442
541.42	59.230
541.76	59.355
542.10	59.185
542.44	58.675
542.78	58.432
543.12	57.198
543.46	58.295
543.80	57.580
544.14	57.253
544.48	58.603
544.82	57.409
545.16	58.165
545.50	56.941
545.84	57.191
546.18	57.778
546.52	57.949
546.86	59.313
547.20	56.844
547.54	57.649
547.88	57.143
548.22	55.542
548.56	57.610
548.90	56.658
549.24	58.384
549.58	57.231
549.92	58.036
550.26	58.736
550.60	56.639
550.94	57.254
551.28	57.059
551.62	59.382
551.96	57.474
552.30	57.338
552.64	55.510
552.98	57.220
553.32	56.777
553.66	56.783
554.00	57.035
554.34	56.522
554.68	56.295
555.02	56.911
555.36	55.741
555.69	55.074
556.03	54.913
556.37	56.071
556.71	55.866
557.05	56.723
557.39	55.073
557.73	55.187
558.07	55.910
558.41	56.078
558.75	56.650
559.08	56.674
559.42	56.916
559.76	56.544
560.10	55.032
560.44	55.975
560.78	55.689
561.12	54.815
561.45	54.824
561.79	54.779
562.13	55.600
562.47	56.762
562.81	56.834
563.15	54.515
563.48	55.106
563.82	55.121
564.16	54.807
564.50	53.841
564.84	53.982
565.17	55.277
565.51	54.569
565.85	53.680
566.19	53.225
566.52	53.452
566.86	51.959
567.20	54.068
567.54	53.196
567.88	52.580
568.21	53.810
568.55	52.882
568.89	52.967
569.23	51.337
569.56	50.121
569.90	50.792
570.24	50.843
570.57	49.711
570.91	48.675
571.25	49.197
571.59	49.131
571.92	50.115
572.26	48.642
572.60	49.309
572.93	48.996
573.27	49.009
573.61	49.442
573.95	48.475
574.28	48.191
574.62	48.275
574.96	47.288
575.29	48.012
575.63	48.120
575.97	47.904
576.30	48.194
576.64	48.345
576.98	47.861
577.31	47.666
577.65	47.253
577.98	47.085
578.32	46.426
578.66	47.673
578.99	48.117
579.33	47.688
579.67	47.020
580.00	47.135
580.34	48.268
580.67	48.050
581.01	47.515
581.35	46.881
581.68	46.364
582.02	46.388
582.35	46.546
582.69	46.864
583.02	47.541
583.36	48.167
583.70	48.651
584.03	48.720
584.37	48.669
584.70	48.955
585.04	47.358
585.37	47.530
585.71	47.580
586.04	46.605
586.38	48.093
586.72	48.053
587.05	47.270
587.39	47.309
587.72	47.771
588.06	47.439
588.39	47.572
588.73	47.609
589.06	48.800
589.40	48.586
589.73	49.173
590.07	48.719
590.40	48.557
590.73	48.790
591.07	49.735
591.40	48.208
591.74	50.173
592.07	48.298
592.41	49.318
592.74	47.303
593.08	46.835
593.41	47.105
593.75	45.940
594.08	47.670
594.41	47.543
594.75	47.985
595.08	47.351
595.42	48.021
595.75	47.863
596.09	48.704
596.42	48.919
596.75	47.995
597.09	48.788
597.42	47.428
597.75	48.426
598.09	47.522
598.42	47.938
598.76	47.669
599.09	46.370
599.42	46.616
599.76	47.438
600.09	45.938
600.42	45.873
600.76	45.929
601.09	46.157
601.42	46.537
601.76	46.528
602.09	47.668
602.42	47.651
602.76	48.005
603.09	47.364
603.42	46.740
603.76	46.380
604.09	46.142
604.42	46.678
604.76	46.099
605.09	46.789
605.42	47.029
605.75	46.937
606.09	46.442
606.42	46.588
606.75	46.329
607.09	46.882
607.42	46.769
607.75	45.232
608.08	45.983
608.42	47.199
608.75	46.889
609.08	46.531
609.41	46.882
609.75	47.022
610.08	46.795
610.41	46.601
610.74	48.392
611.07	48.024
611.41	47.399
611.74	48.366
612.07	48.654
612.40	48.636
612.73	47.211
613.07	47.737
613.40	48.131
613.73	47.090
614.06	48.441
614.39	46.356
614.72	47.263
615.06	46.691
615.39	46.921
615.72	46.524
616.05	46.784
616.38	46.859
616.71	48.931
617.05	48.174
617.38	47.925
617.71	47.808
618.04	48.197
618.37	46.954
618.70	48.102
619.03	49.605
619.36	48.269
619.69	49.085
620.03	48.901
620.36	48.061
620.69	49.863
621.02	49.705
621.35	49.804
621.68	49.065
622.01	49.613
622.34	47.958
622.67	48.745
623.00	47.982
623.33	47.462
623.66	47.034
623.99	48.748
624.32	47.575
624.65	47.599
624.99	46.530
625.32	46.126
625.65	48.310
625.98	49.424
626.31	49.378
626.64	48.653
626.97	48.712
627.30	50.208
627.63	48.811
627.96	49.622
628.29	50.131
628.62	49.954
628.95	50.849
629.28	49.544
629.61	49.863
629.94	50.952
630.26	49.857
630.59	49.666
630.92	49.521
631.25	49.654
631.58	47.948
631.91	48.479
632.24	50.422
632.57	50.682
632.90	50.987
633.23	51.007
633.56	51.299
633.89	51.416
634.22	51.532
634.55	52.544
634.88	50.180
635.20	51.374
635.53	51.205
635.86	50.990
636.19	49.882
636.52	50.058
636.85	49.370
637.18	48.963
637.51	50.355
637.83	47.349
638.16	52.302
638.49	52.015
638.82	51.707
639.15	51.750
639.48	51.247
639.81	53.887
640.13	50.781
640.46	52.215
640.79	51.519
641.12	53.370
641.45	51.676
641.77	53.314
642.10	53.070
642.43	53.003
642.76	52.167
643.09	52.607
643.41	52.049
643.74	54.784
644.07	51.677
644.40	53.374
644.73	54.331
645.05	54.675
645.38	51.027
645.71	51.369
646.04	52.824
646.36	58.431
646.69	53.846
647.02	52.381
647.35	52.577
647.67	53.274
648.00	51.870
648.33	53.795
648.66	48.333
648.98	50.975
649.31	51.570
649.64	51.868
649.96	49.180
650.29	52.765
650.62	52.751
650.94	51.864
651.27	54.223
651.60	52.080
651.92	51.757
652.25	52.117
652.58	52.181
652.90	52.133
653.23	49.923
653.56	50.551
653.88	53.090
654.21	53.555
654.54	54.290
654.86	50.156
655.19	48.649
655.52	36.103
655.84	32.714
656.17	42.855
656.49	58.880
656.82	61.900
657.15	47.659
657.47	35.930
657.80	27.789
658.13	29.705
658.45	45.118
658.78	45.333
659.10	47.622
659.43	49.796
659.75	51.050
660.08	54.810
660.41	56.890
660.73	56.671
661.06	54.618
661.38	55.273
661.71	53.654
662.03	56.805
662.36	51.690
662.68	54.819
663.01	52.929
663.33	53.715
663.66	56.092
663.98	54.428
664.31	55.882
664.63	52.632
664.96	50.302
665.28	54.098
665.61	53.411
665.93	52.515
666.26	53.753
666.58	53.766
666.91	54.123
667.23	58.427
667.56	51.404
667.88	52.778
668.21	56.077
668.53	54.664
668.86	51.515
669.18	55.011
669.50	54.565
669.83	55.556
670.15	54.444
670.48	49.237
670.80	53.017
671.13	53.928
671.45	51.277
671.77	51.935
672.10	50.277
672.42	48.940
672.75	48.093
673.07	51.408
673.39	50.814
673.72	53.516
674.04	51.961
674.37	52.233
674.69	52.556
675.01	50.837
675.34	52.772
675.66	52.842
675.98	53.157
676.31	53.361
676.63	53.291
676.95	51.363
677.28	54.206
677.60	50.110
677.92	52.110
678.25	51.951
678.57	51.594
678.89	52.505
679.22	49.116
679.54	49.809
679.86	49.725
680.18	47.764
680.51	50.887
680.83	50.356
681.15	49.811
681.48	51.040
681.80	49.323
682.12	50.192
682.44	50.484
682.77	52.342
683.09	51.717
683.41	51.441
683.73	53.642
684.06	50.000
684.38	50.881
684.70	49.612
685.02	48.780
685.34	48.901
685.67	49.126
685.99	47.251
686.31	48.805
686.63	48.057
686.96	47.143
687.28	49.278
687.60	46.920
687.92	50.457
688.24	48.859
688.56	49.799
688.89	51.867
689.21	50.655
689.53	51.357
689.85	51.441
690.17	47.412
690.49	50.743
690.82	52.103
691.14	51.339
691.46	48.101
691.78	48.193
692.10	50.826
692.42	49.501
692.74	46.266
693.06	48.936
693.39	49.897
693.71	53.493
694.03	50.737
694.35	48.918
694.67	49.657
694.99	50.732
695.31	49.265
695.63	54.306
695.95	53.790
696.27	51.015
696.59	51.813
696.91	49.223
697.23	47.887
697.56	47.122
697.88	45.603
698.20	48.958
698.52	47.957
698.84	50.111
699.16	49.539
699.48	51.069
699.80	49.758
700.12	58.182
700.44	53.846
700.76	55.249
701.08	50.862
701.40	51.397
701.72	56.268
702.04	54.830
702.36	52.408
702.68	50.142
703.00	53.463
703.32	48.404
703.64	51.475
703.96	56.546
704.28	53.198
704.60	54.839
704.91	51.039
705.23	53.079
705.55	59.468
705.87	56.811
706.19	56.537
706.51	52.648
706.83	52.121
707.15	53.501
707.47	48.485
707.79	48.649
708.11	47.032
708.43	51.429
708.74	50.765
709.06	49.870
709.38	51.444
709.70	52.907
710.02	53.412
710.34	53.030
710.66	55.821
710.98	51.989
711.29	51.744
711.61	54.277
711.93	52.885
712.25	63.023
712.57	57.353
712.89	60.900
713.20	52.888
713.52	54.605
713.84	50.316
714.16	49.695
714.48	49.713
714.80	58.359
715.11	51.585
715.43	53.116
715.75	49.855
716.07	51.118
716.39	53.605
716.70	53.156
717.02	55.396
717.34	46.996
717.66	54.478
717.97	62.151
718.29	57.407
718.61	52.555
718.93	53.676
719.24	52.249
719.56	51.864
719.88	52.881
720.20	56.081
720.51	57.491
720.83	57.249
721.15	54.478
721.46	52.837
721.78	53.047
722.10	60.755
722.42	54.887
722.73	54.682
723.05	57.377
723.37	57.085
723.68	51.351
724.00	56.911
724.32	58.468
724.63	58.537
724.95	59.833
725.27	57.490
725.58	58.203
725.90	54.380
726.22	55.849
726.53	50.694
726.85	53.584
727.16	50.890
727.48	54.255
727.80	51.515
728.11	57.609
728.43	56.154
728.74	53.763
729.06	53.650
729.38	56.618
729.69	56.228
730.01	47.782
730.32	54.861
730.64	51.171
730.96	50.495
731.27	51.987
731.59	50.459
731.90	49.563
732.22	51.553
732.53	48.607
732.85	50.321
733.16	51.125
733.48	54.485
733.80	51.299
734.11	50.955
734.43	50.888
734.74	47.714
735.06	47.564
735.37	50.289
735.69	50.318
736.00	54.248
736.32	54.829
736.63	50.479
736.95	53.035
737.26	47.959
737.58	50.000
737.89	54.515
738.21	49.147
738.52	54.643
738.83	50.943
739.15	54.231
739.46	56.204
739.78	53.125
740.09	48.308
740.41	51.935
740.72	51.220
741.04	52.222
741.35	55.417
741.66	65.333
741.98	55.189
742.29	58.852
742.61	59.914
742.92	55.656
743.23	62.393
743.55	52.400
743.86	53.070
744.18	58.407
744.49	59.330
744.80	62.911
745.12	63.182
745.43	53.744
745.74	60.360
746.06	54.587
746.37	57.399
746.68	55.656
747.00	56.481
747.31	63.333
747.62	53.097
747.94	63.436
748.25	49.787
748.56	63.436
748.88	57.426
749.19	65.000
749.50	59.535
749.82	49.593
750.13	51.837
750.44	49.270
750.75	52.982
751.07	52.733
751.38	53.659
751.69	54.152
752.01	49.624
752.32	50.181
752.63	53.901
752.94	59.836
753.26	56.400
753.57	49.187
753.88	51.172
754.19	49.286
754.51	53.125
754.82	46.570
755.13	51.321
755.44	56.015
755.75	50.365
756.07	53.191
756.38	53.285
756.69	51.342
757.00	47.605
757.31	45.104
757.63	43.860
757.94	43.968
758.25	43.627
758.56	45.432
758.87	46.774
759.18	43.333
759.50	46.395
759.81	50.156
760.12	42.500
760.43	48.424
760.74	45.924
761.05	48.023
761.36	43.316
761.67	48.295
761.99	48.447
762.30	51.042
762.61	51.527
762.92	53.516
763.23	55.042
763.54	54.800
763.85	50.781
764.16	56.923
764.47	50.190
764.78	49.823
765.10	43.671
765.41	48.378
765.72	48.503
766.03	50.157
766.34	49.000
766.65	56.596
766.96	54.274
767.27	61.421
767.58	59.896
767.89	51.579
768.20	63.793
768.51	57.868
768.82	55.963
769.13	46.748
769.44	51.417
769.75	51.073
770.06	53.211
770.37	58.371
770.68	58.796
770.99	55.111
771.30	47.131
771.61	54.709
771.92	46.311
772.23	55.042
772.54	58.974
772.85	58.639
773.16	52.128
773.47	59.239
773.78	58.376
774.09	57.738
774.39	67.251
774.70	62.963
775.01	65.217
775.32	71.895
775.63	65.132
775.94	65.468
776.25	71.654
776.56	70.896
776.87	76.230
777.18	71.875
777.48	67.176
777.79	70.455
778.10	68.148
778.41	79.464
778.72	60.584
779.03	66.443
779.34	62.416
779.65	66.892
779.95	62.577
780.26	77.124
780.57	73.793
780.88	75.781
781.19	66.165
781.50	70.270
781.80	60.377
782.11	58.192
782.42	63.291
782.73	64.417
783.04	65.541
783.34	64.789
783.65	69.863
783.96	75.373
784.27	65.734
784.57	69.065
784.88	73.148
785.19	69.048
785.50	78.302
785.81	81.343
786.11	79.508
786.42	68.217
786.73	69.912
787.04	90.566
787.34	74.107
787.65	88.000
787.96	72.072
788.26	70.248
788.57	77.966
788.88	80.992
789.19	75.000
789.49	71.970
789.80	76.336
790.11	93.333
790.41	87.129
790.72	85.542
791.03	84.783
791.33	86.047
791.64	86.598
791.95	93.069
792.25	83.333
792.56	102.597
792.87	110.256
793.17	110.127
793.48	97.701
793.79	93.103
794.09	89.773
794.40	73.950
794.70	72.794
795.01	59.259
795.32	66.187
795.62	70.866
795.93	64.655
796.23	72.566
796.54	77.647
796.85	100.000
797.15	116.901
797.46	100.000
797.76	98.795
798.07	112.658
798.37	110.769
798.68	103.030
798.99	87.324
799.29	85.714
799.60	85.227
799.90	94.521
800.21	107.463
800.51	113.793
800.82	131.579
801.12	101.639
801.43	109.091
801.73	90.541
802.04	112.698
802.34	100.000
802.65	104.688
802.95	122.034
803.26	109.375
803.56	107.143
803.87	89.231
804.17	111.765
804.48	133.333
804.78	113.793
805.09	102.941
805.39	113.462
805.70	121.429
806.00	109.836
806.30	89.394
806.61	93.902
806.91	86.076
807.22	86.842
807.52	79.104
807.83	112.676
808.13	101.563
808.43	113.333
808.74	90.789
809.04	100.000
809.35	100.000
809.65	89.474
809.95	109.677
810.26	122.034
810.56	98.413
810.86	136.364
811.17	171.429
811.47	131.667
811.77	114.815
812.08	134.545
812.38	130.000
812.69	147.222
812.99	163.636
813.29	116.327
813.59	114.286
813.90	140.816
814.20	112.727
814.50	95.385
814.81	116.176
815.11	142.857
815.41	106.557
815.72	173.810
816.02	130.909
816.32	154.762
816.62	150.000
816.93	146.341
817.23	130.952
817.53	154.545
817.84	187.879
818.14	150.000
818.44	151.111
818.74	200.000
819.04	132.500
819.35	165.714
819.65	170.588
819.95	185.714
820.25	210.000
820.56	174.359
820.86	163.636
821.16	155.814
821.46	164.103
821.76	146.000
822.07	174.286
822.37	155.000
822.67	184.848
822.97	133.333
823.27	200.000
823.57	162.162
823.88	187.500
824.18	203.333
824.48	169.048
824.78	276.000
825.08	166.667
825.38	167.568
825.69	163.415
825.99	237.500
826.29	168.966
826.59	160.526
826.89	165.789
827.19	188.235
827.49	219.355
827.79	154.545
828.09	168.182
828.39	157.447
828.70	134.694
829.00	218.519
829.30	212.903
829.60	135.000
829.90	313.333
830.20	203.571
830.50	200.000
830.80	252.174
831.10	180.000
831.40	166.667
831.70	252.174
832.00	253.846
832.30	192.593
832.60	375.000
832.90	233.333
833.20	428.571
833.50	187.097
833.80	196.552
834.10	221.875
834.40	269.231
834.70	338.889
835.00	342.857
835.30	171.429
835.60	423.077
835.90	210.345
836.20	378.571
836.50	217.241
836.80	164.000
837.10	194.444
837.40	295.238
837.70	311.765
838.00	248.148
838.30	271.429
838.60	285.714
838.90	234.615
839.19	260.000
839.49	407.143
839.79	300.000
840.09	245.000
840.39	242.857
840.69	234.783
840.99	261.111
841.29	430.000
841.59	308.333
841.88	343.750
842.18	203.448
842.48	257.143
842.78	163.333
843.08	234.783
843.38	190.625
843.68	1000.000
843.97	223.077
844.27	196.552
844.57	280.952
844.87	406.250
845.17	237.037
845.47	1500.000
845.76	466.667
846.06	382.353
846.36	575.000
846.66	471.429
846.96	343.750
847.25	418.182
847.55	445.455
847.85	300.000
848.15	570.000
848.44	385.714
848.74	255.556
849.04	352.941
849.34	550.000
849.63	289.474
849.93	572.727
850.23	1040.000
850.53	435.714
850.82	2350.000
851.12	-4700.000
851.42	4600.000
851.71	295.000
852.01	-1200.000
852.31	258.333
852.61	2200.000
852.90	333.333
853.20	248.000
853.50	329.412
853.79	328.571
854.09	233.333
854.39	306.250
854.68	218.919
854.98	200.000
855.28	196.667
855.57	234.483
855.87	240.741
856.17	247.368
856.46	293.333
856.76	329.412
857.05	182.759
857.35	279.167
857.65	380.000
857.94	265.217
858.24	265.385
858.53	285.000
858.83	250.000
859.13	413.333
859.42	0.000
859.72	655.556
860.01	509.091
860.31	259.091
860.60	294.737
860.90	239.130
861.20	555.556
861.49	450.000
861.79	-4600.000
862.08	687.500
862.38	285.714
862.67	307.692
862.97	352.941
863.26	577.778
863.56	333.333
863.85	466.667
864.15	562.500
864.44	380.000
864.74	900.000
865.03	675.000
865.33	331.579
865.62	445.455
865.92	476.923
866.21	433.333
866.51	0.000
866.80	490.909
867.10	980.000
867.39	484.615
867.69	527.273
867.98	300.000
868.27	581.818
868.57	310.526
868.86	-5100.000
869.16	375.000
869.45	2450.000
869.75	-5300.000
870.04	416.667
870.33	642.857
870.63	1300.000
870.92	2050.000
871.22	714.286
871.51	376.471
871.80	247.619
872.10	350.000
>>>>>End Processed Spectral Data<<<<<
