SpectraSuite Data File
++++++++++++++++++++++++++++++++++++
Date: Wed May 13 19:26:44 PDT 2015
User: schluterlab
Dark Spectrum Present: Yes
Reference Spectrum Present: Yes
Number of Sampled Component Spectra: 1
Spectrometers: USB2E3373
Integration Time (usec): 3000 (USB2E3373)
Spectra Averaged: 3 (USB2E3373)
Boxcar Smoothing: 0 (USB2E3373)
Correct for Electrical Dark: No (USB2E3373)
Strobe/Lamp Enabled: No (USB2E3373)
Correct for Detector Non-linearity: No (USB2E3373)
Correct for Stray Light: No (USB2E3373)
Number of Pixels in Processed Spectrum: 2048
>>>>>Begin Processed Spectral Data<<<<<
178.53	0.000
178.91	-1450.000
179.29	-1175.000
179.67	-300.000
180.04	-1325.000
180.42	2150.000
180.80	1040.000
181.18	-1050.000
181.56	685.714
181.94	0.000
182.31	-742.857
182.69	1700.000
183.07	-550.000
183.45	-522.222
183.83	581.818
184.20	-390.000
184.58	2500.000
184.96	5800.000
185.34	-840.000
185.72	-650.000
186.09	-2550.000
186.47	3000.000
186.85	2350.000
187.23	5600.000
187.61	-1833.333
187.98	1300.000
188.36	563.636
188.74	590.909
189.12	-840.000
189.49	690.000
189.87	-4900.000
190.25	-1300.000
190.63	414.286
191.00	407.692
191.38	800.000
191.76	-1275.000
192.14	1600.000
192.51	687.500
192.89	966.667
193.27	625.000
193.65	-1300.000
194.02	610.000
194.40	1100.000
194.78	560.000
195.15	516.667
195.53	640.000
195.91	-2000.000
196.29	381.250
196.66	347.368
197.04	-450.000
197.42	0.000
197.79	610.000
198.17	-5800.000
198.55	685.714
198.92	725.000
199.30	1080.000
199.68	0.000
200.05	355.556
200.43	685.714
200.81	4900.000
201.18	1966.667
201.56	-1800.000
201.94	644.444
202.31	633.333
202.69	450.000
203.07	570.000
203.44	0.000
203.82	1425.000
204.19	857.143
204.57	421.429
204.95	675.000
205.32	1633.333
205.70	636.364
206.08	400.000
206.45	2700.000
206.83	412.500
207.20	883.333
207.58	860.000
207.96	327.778
208.33	637.500
208.71	-750.000
209.08	971.429
209.46	677.778
209.84	545.455
210.21	-1633.333
210.59	1400.000
210.96	-525.000
211.34	2950.000
211.71	710.000
212.09	900.000
212.46	0.000
212.84	1733.333
213.22	1550.000
213.59	-5500.000
213.97	866.667
214.34	771.429
214.72	518.182
215.09	1160.000
215.47	-2100.000
215.84	-3100.000
216.22	1633.333
216.59	414.286
216.97	1475.000
217.34	600.000
217.72	-783.333
218.09	0.000
218.47	-5200.000
218.84	677.778
219.22	757.143
219.59	1800.000
219.97	-600.000
220.34	1200.000
220.72	-1866.667
221.09	414.286
221.47	1525.000
221.84	-1000.000
222.22	0.000
222.59	1450.000
222.97	-3000.000
223.34	1280.000
223.72	453.846
224.09	1260.000
224.46	2300.000
224.84	-5100.000
225.21	-1040.000
225.59	-5400.000
225.96	560.000
226.34	330.000
226.71	3550.000
227.08	662.500
227.46	620.000
227.83	-1175.000
228.21	-2750.000
228.58	600.000
228.95	-2450.000
229.33	-3000.000
229.70	1833.333
230.08	757.143
230.45	-920.000
230.82	441.667
231.20	883.333
231.57	700.000
231.95	491.667
232.32	286.364
232.69	509.091
233.07	657.143
233.44	400.000
233.81	-1700.000
234.19	357.895
234.56	525.000
234.93	541.667
235.31	436.364
235.68	407.692
236.05	357.143
236.43	196.970
236.80	284.211
237.17	6100.000
237.55	280.952
237.92	264.286
238.29	304.762
238.67	170.968
239.04	203.448
239.41	175.000
239.79	123.913
240.16	169.048
240.53	165.909
240.91	137.255
241.28	140.000
241.65	126.000
242.02	121.739
242.40	103.226
242.77	143.333
243.14	96.774
243.51	106.742
243.89	89.412
244.26	81.111
244.63	89.247
245.00	90.426
245.38	87.129
245.75	70.093
246.12	81.651
246.49	79.562
246.87	85.600
247.24	78.462
247.61	81.429
247.98	71.895
248.36	69.595
248.73	60.510
249.10	78.981
249.47	66.667
249.84	64.171
250.22	70.588
250.59	67.456
250.96	63.636
251.33	67.299
251.70	67.327
252.08	62.381
252.45	65.471
252.82	64.783
253.19	57.872
253.56	64.314
253.94	61.826
254.31	63.672
254.68	58.462
255.05	58.303
255.42	56.911
255.79	62.868
256.16	58.123
256.54	57.244
256.91	59.075
257.28	56.475
257.65	55.116
258.02	54.969
258.39	54.890
258.76	53.846
259.14	52.679
259.51	54.103
259.88	50.311
260.25	58.912
260.62	52.312
260.99	54.969
261.36	59.159
261.73	54.728
262.10	55.523
262.47	56.901
262.85	52.646
263.22	51.852
263.59	54.701
263.96	50.549
264.33	50.131
264.70	53.158
265.07	52.685
265.44	51.768
265.81	51.338
266.18	52.261
266.55	48.537
266.92	52.334
267.29	50.926
267.66	51.147
268.03	50.909
268.40	47.430
268.77	53.222
269.14	45.946
269.51	50.564
269.88	51.748
270.25	48.758
270.62	50.562
270.99	49.247
271.36	48.712
271.73	49.065
272.10	51.957
272.47	48.817
272.84	47.186
273.21	49.057
273.58	46.725
273.95	45.912
274.32	46.074
274.69	49.251
275.06	44.685
275.43	48.298
275.80	45.291
276.17	49.084
276.54	49.064
276.91	47.826
277.28	45.508
277.65	46.422
278.02	48.033
278.39	47.656
278.76	43.636
279.13	44.906
279.50	45.438
279.87	47.211
280.23	47.705
280.60	45.841
280.97	46.950
281.34	44.248
281.71	45.455
282.08	47.793
282.45	48.727
282.82	46.004
283.19	42.068
283.56	43.509
283.92	41.963
284.29	43.915
284.66	44.646
285.03	43.038
285.40	43.838
285.77	43.771
286.14	42.487
286.51	44.833
286.87	43.077
287.24	43.811
287.61	41.413
287.98	39.935
288.35	41.046
288.72	40.498
289.08	43.192
289.45	42.834
289.82	41.626
290.19	40.502
290.56	40.429
290.93	38.369
291.29	39.110
291.66	41.740
292.03	38.517
292.40	39.501
292.77	36.686
293.13	39.104
293.50	40.087
293.87	39.259
294.24	36.741
294.60	35.953
294.97	38.953
295.34	37.236
295.71	36.932
296.08	35.755
296.44	36.864
296.81	33.818
297.18	36.585
297.55	32.982
297.91	33.905
298.28	35.207
298.65	35.248
299.02	35.837
299.38	32.669
299.75	33.693
300.12	33.333
300.48	33.000
300.85	34.279
301.22	35.032
301.59	32.702
301.95	34.635
302.32	33.119
302.69	32.616
303.05	34.061
303.42	31.358
303.79	32.050
304.15	31.935
304.52	31.866
304.89	31.591
305.25	31.090
305.62	32.163
305.99	32.468
306.35	31.879
306.72	33.296
307.09	31.410
307.45	32.207
307.82	30.357
308.19	32.340
308.55	32.686
308.92	31.042
309.29	32.207
309.65	29.586
310.02	31.501
310.38	30.538
310.75	31.890
311.12	30.706
311.48	32.079
311.85	31.551
312.22	32.362
312.58	31.185
312.95	33.791
313.31	31.942
313.68	33.056
314.05	33.432
314.41	32.864
314.78	32.528
315.14	31.976
315.51	35.015
315.87	35.743
316.24	34.657
316.61	34.600
316.97	33.953
317.34	35.029
317.70	36.998
318.07	37.921
318.43	37.476
318.80	39.456
319.16	38.701
319.53	39.118
319.89	39.714
320.26	41.200
320.62	40.972
320.99	43.636
321.35	44.040
321.72	43.840
322.08	44.817
322.45	46.667
322.81	46.512
323.18	45.857
323.54	46.568
323.91	49.528
324.27	50.000
324.64	51.351
325.00	51.488
325.37	53.503
325.73	54.937
326.10	55.428
326.46	57.258
326.83	57.895
327.19	57.558
327.56	61.237
327.92	63.080
328.29	63.620
328.65	65.193
329.01	63.357
329.38	67.438
329.74	66.020
330.11	69.180
330.47	69.513
330.84	69.853
331.20	69.035
331.56	69.541
331.93	73.704
332.29	71.606
332.66	72.743
333.02	75.137
333.38	74.616
333.75	74.777
334.11	74.288
334.48	76.752
334.84	75.551
335.20	76.636
335.57	75.431
335.93	75.000
336.29	78.846
336.66	78.449
337.02	77.285
337.38	78.519
337.75	79.144
338.11	79.588
338.47	80.755
338.84	80.843
339.20	81.101
339.56	82.208
339.93	81.182
340.29	82.790
340.65	81.283
341.02	81.414
341.38	83.630
341.74	79.561
342.11	81.921
342.47	82.643
342.83	82.620
343.20	83.117
343.56	82.140
343.92	83.596
344.28	82.823
344.65	84.093
345.01	81.734
345.37	83.190
345.73	83.926
346.10	85.934
346.46	83.559
346.82	84.102
347.19	83.626
347.55	82.923
347.91	83.981
348.27	84.141
348.63	84.532
349.00	82.767
349.36	84.401
349.72	83.320
350.08	84.036
350.45	84.622
350.81	84.403
351.17	83.874
351.53	84.603
351.89	83.086
352.26	85.320
352.62	84.443
352.98	84.360
353.34	84.552
353.70	84.615
354.07	84.435
354.43	83.016
354.79	84.071
355.15	84.437
355.51	84.652
355.87	87.510
356.24	85.586
356.60	82.358
356.96	85.519
357.32	85.364
357.68	86.614
358.04	84.561
358.40	85.511
358.77	85.446
359.13	83.583
359.49	85.882
359.85	85.000
360.21	86.045
360.57	86.770
360.93	85.615
361.29	84.203
361.66	84.056
362.02	83.731
362.38	85.856
362.74	84.821
363.10	85.048
363.46	84.006
363.82	85.110
364.18	83.700
364.54	85.661
364.90	84.773
365.26	84.706
365.62	85.391
365.98	82.177
366.35	84.742
366.71	85.033
367.07	85.506
367.43	86.139
367.79	85.867
368.15	85.345
368.51	83.939
368.87	85.582
369.23	84.931
369.59	85.590
369.95	85.515
370.31	82.194
370.67	83.768
371.03	85.468
371.39	86.006
371.75	85.441
372.11	82.930
372.47	84.897
372.83	85.735
373.19	83.960
373.55	85.661
373.91	85.052
374.27	81.993
374.63	85.745
374.99	85.593
375.35	85.136
375.71	81.494
376.07	84.019
376.42	86.039
376.78	83.499
377.14	85.210
377.50	83.245
377.86	82.380
378.22	84.197
378.58	82.769
378.94	84.161
379.30	85.560
379.66	84.772
380.02	84.705
380.38	83.121
380.74	83.553
381.09	83.313
381.45	85.126
381.81	84.029
382.17	84.140
382.53	83.711
382.89	84.383
383.25	84.740
383.61	84.758
383.97	82.614
384.32	81.971
384.68	84.077
385.04	82.360
385.40	83.158
385.76	82.555
386.12	80.829
386.48	82.064
386.83	84.157
387.19	84.725
387.55	83.055
387.91	81.499
388.27	82.710
388.62	82.360
388.98	82.862
389.34	83.166
389.70	80.871
390.06	82.573
390.42	83.528
390.77	80.980
391.13	82.387
391.49	83.058
391.85	80.968
392.20	81.767
392.56	82.449
392.92	80.224
393.28	81.420
393.64	80.695
393.99	79.841
394.35	81.017
394.71	79.046
395.07	79.377
395.42	82.633
395.78	81.107
396.14	80.447
396.50	79.574
396.85	80.865
397.21	79.593
397.57	79.913
397.92	80.168
398.28	77.298
398.64	78.136
399.00	79.519
399.35	78.285
399.71	79.456
400.07	77.646
400.42	79.325
400.78	78.890
401.14	79.695
401.49	79.522
401.85	78.766
402.21	76.946
402.57	78.779
402.92	78.689
403.28	79.325
403.63	77.723
403.99	77.516
404.35	77.758
404.70	77.278
405.06	77.402
405.42	78.977
405.77	76.514
406.13	75.959
406.49	76.523
406.84	74.542
407.20	76.359
407.55	76.835
407.91	79.067
408.27	78.302
408.62	75.557
408.98	76.103
409.34	76.138
409.69	75.935
410.05	75.279
410.40	76.391
410.76	75.090
411.11	74.789
411.47	75.016
411.83	76.298
412.18	74.150
412.54	75.218
412.89	74.880
413.25	74.675
413.60	74.923
413.96	73.528
414.31	75.213
414.67	75.032
415.03	74.437
415.38	73.711
415.74	73.633
416.09	76.159
416.45	74.096
416.80	74.157
417.16	74.598
417.51	74.386
417.87	71.484
418.22	74.006
418.58	73.144
418.93	73.526
419.29	73.584
419.64	73.866
420.00	72.439
420.35	72.058
420.71	73.222
421.06	71.539
421.42	72.515
421.77	72.590
422.12	72.993
422.48	71.506
422.83	71.520
423.19	71.657
423.54	71.793
423.90	71.130
424.25	70.910
424.61	71.905
424.96	72.770
425.31	70.598
425.67	69.438
426.02	70.571
426.38	72.161
426.73	70.099
427.09	70.456
427.44	70.558
427.79	69.580
428.15	71.369
428.50	69.807
428.85	70.441
429.21	70.127
429.56	70.036
429.92	68.395
430.27	67.825
430.62	69.790
430.98	69.123
431.33	68.763
431.68	69.634
432.04	67.945
432.39	70.131
432.74	69.240
433.10	68.364
433.45	69.388
433.80	68.237
434.16	68.376
434.51	66.789
434.86	67.731
435.22	67.982
435.57	68.571
435.92	67.174
436.28	69.692
436.63	68.102
436.98	68.174
437.34	68.634
437.69	67.970
438.04	68.690
438.39	68.119
438.75	68.507
439.10	68.101
439.45	67.001
439.81	67.190
440.16	66.121
440.51	66.725
440.86	67.053
441.22	67.297
441.57	66.614
441.92	66.070
442.27	66.254
442.63	65.508
442.98	65.915
443.33	65.489
443.68	65.359
444.03	64.617
444.39	64.849
444.74	65.314
445.09	64.313
445.44	65.008
445.79	64.819
446.15	63.949
446.50	64.836
446.85	63.772
447.20	63.386
447.55	64.712
447.91	65.306
448.26	64.107
448.61	64.782
448.96	64.729
449.31	64.342
449.66	63.534
450.02	64.290
450.37	64.002
450.72	63.452
451.07	61.913
451.42	60.729
451.77	63.124
452.12	62.875
452.47	63.868
452.83	62.995
453.18	62.103
453.53	63.451
453.88	62.256
454.23	62.343
454.58	62.810
454.93	62.174
455.28	62.157
455.63	61.954
455.98	63.631
456.34	61.683
456.69	62.116
457.04	62.477
457.39	62.011
457.74	61.114
458.09	61.645
458.44	61.345
458.79	59.870
459.14	60.779
459.49	60.420
459.84	60.277
460.19	59.870
460.54	58.623
460.89	60.230
461.24	60.352
461.59	60.546
461.94	59.125
462.29	61.068
462.64	59.541
462.99	59.466
463.34	59.933
463.69	59.787
464.04	59.884
464.39	58.667
464.74	58.526
465.09	57.961
465.44	58.172
465.79	58.501
466.14	57.909
466.49	58.120
466.84	59.078
467.19	58.841
467.54	59.750
467.89	57.623
468.24	57.475
468.59	58.547
468.94	57.361
469.29	58.290
469.64	59.170
469.99	58.525
470.34	58.587
470.68	58.693
471.03	58.299
471.38	59.764
471.73	57.628
472.08	60.000
472.43	58.417
472.78	57.867
473.13	57.381
473.48	57.615
473.83	56.280
474.17	56.752
474.52	56.948
474.87	57.326
475.22	56.007
475.57	55.185
475.92	55.656
476.27	56.933
476.61	55.268
476.96	55.305
477.31	54.108
477.66	55.197
478.01	54.731
478.36	55.526
478.70	54.725
479.05	55.751
479.40	55.271
479.75	53.991
480.10	54.722
480.45	54.355
480.79	54.372
481.14	54.305
481.49	53.678
481.84	54.778
482.19	54.430
482.53	53.257
482.88	54.025
483.23	53.598
483.58	53.048
483.92	54.124
484.27	52.070
484.62	52.328
484.97	51.754
485.31	53.048
485.66	51.500
486.01	49.926
486.36	48.582
486.70	47.987
487.05	48.714
487.40	50.000
487.75	49.233
488.09	50.197
488.44	49.533
488.79	52.007
489.13	51.299
489.48	51.713
489.83	51.662
490.17	53.047
490.52	52.524
490.87	52.239
491.22	51.023
491.56	50.888
491.91	51.373
492.26	52.274
492.60	51.659
492.95	50.982
493.30	51.028
493.64	51.050
493.99	50.743
494.34	52.035
494.68	51.328
495.03	51.551
495.37	50.442
495.72	51.170
496.07	51.508
496.41	49.425
496.76	49.736
497.11	50.158
497.45	51.327
497.80	49.808
498.14	50.048
498.49	50.488
498.84	50.767
499.18	50.095
499.53	50.665
499.87	50.885
500.22	50.777
500.56	51.505
500.91	48.894
501.26	50.593
501.60	50.451
501.95	48.258
502.29	50.515
502.64	49.674
502.98	49.556
503.33	48.400
503.67	50.070
504.02	49.111
504.36	49.321
504.71	50.464
505.06	48.627
505.40	48.177
505.75	48.505
506.09	48.445
506.44	50.419
506.78	49.050
507.13	50.227
507.47	48.737
507.82	49.240
508.16	48.734
508.51	49.975
508.85	48.659
509.19	49.796
509.54	48.265
509.88	49.304
510.23	49.357
510.57	50.464
510.92	49.249
511.26	48.561
511.61	49.378
511.95	48.591
512.30	48.674
512.64	48.361
512.98	49.411
513.33	48.448
513.67	47.972
514.02	48.268
514.36	49.427
514.70	48.976
515.05	48.355
515.39	48.962
515.74	48.198
516.08	48.295
516.42	49.667
516.77	49.275
517.11	48.668
517.46	49.492
517.80	49.013
518.14	48.176
518.49	49.417
518.83	48.125
519.17	48.441
519.52	47.934
519.86	48.602
520.20	48.671
520.55	49.192
520.89	50.365
521.23	49.578
521.58	49.820
521.92	48.928
522.26	47.895
522.61	48.785
522.95	48.435
523.29	46.865
523.64	47.866
523.98	49.415
524.32	48.854
524.66	47.324
525.01	48.529
525.35	49.195
525.69	47.291
526.04	49.159
526.38	47.224
526.72	46.442
527.06	48.839
527.41	46.287
527.75	49.582
528.09	48.041
528.43	48.375
528.78	48.310
529.12	46.848
529.46	48.867
529.80	46.968
530.15	48.723
530.49	46.585
530.83	47.722
531.17	48.890
531.51	48.768
531.86	47.419
532.20	48.370
532.54	48.046
532.88	47.689
533.22	46.346
533.57	48.210
533.91	47.080
534.25	46.780
534.59	46.248
534.93	45.925
535.27	46.349
535.62	47.802
535.96	46.516
536.30	45.455
536.64	46.619
536.98	46.782
537.32	46.280
537.66	47.467
538.01	46.741
538.35	46.671
538.69	46.586
539.03	46.719
539.37	45.815
539.71	45.042
540.05	46.601
540.39	46.246
540.73	46.184
541.07	45.490
541.42	45.466
541.76	46.903
542.10	46.442
542.44	45.960
542.78	46.904
543.12	45.489
543.46	45.639
543.80	47.105
544.14	46.149
544.48	46.095
544.82	46.055
545.16	45.934
545.50	44.794
545.84	46.035
546.18	45.455
546.52	45.905
546.86	45.842
547.20	46.325
547.54	46.693
547.88	46.046
548.22	45.268
548.56	44.277
548.90	44.302
549.24	45.589
549.58	45.157
549.92	46.703
550.26	46.094
550.60	44.329
550.94	45.704
551.28	44.623
551.62	43.853
551.96	44.772
552.30	45.597
552.64	44.963
552.98	46.237
553.32	45.111
553.66	45.535
554.00	45.093
554.34	44.651
554.68	45.780
555.02	44.922
555.36	45.164
555.69	44.317
556.03	44.684
556.37	44.543
556.71	45.225
557.05	44.188
557.39	43.807
557.73	44.390
558.07	44.888
558.41	44.935
558.75	45.334
559.08	44.594
559.42	46.032
559.76	44.779
560.10	43.469
560.44	44.934
560.78	43.180
561.12	43.865
561.45	45.176
561.79	42.848
562.13	44.534
562.47	44.126
562.81	44.630
563.15	42.943
563.48	43.966
563.82	44.423
564.16	44.212
564.50	42.839
564.84	42.225
565.17	43.179
565.51	42.875
565.85	43.718
566.19	42.893
566.52	44.332
566.86	43.460
567.20	43.514
567.54	43.493
567.88	42.531
568.21	42.116
568.55	41.052
568.89	41.342
569.23	41.310
569.56	40.000
569.90	40.000
570.24	40.438
570.57	39.680
570.91	38.946
571.25	38.882
571.59	38.439
571.92	38.422
572.26	38.850
572.60	39.309
572.93	37.751
573.27	38.539
573.61	39.001
573.95	37.959
574.28	38.291
574.62	37.439
574.96	37.539
575.29	37.633
575.63	36.966
575.97	37.907
576.30	37.945
576.64	37.099
576.98	37.652
577.31	36.922
577.65	37.524
577.98	37.234
578.32	36.775
578.66	37.338
578.99	37.206
579.33	36.989
579.67	37.169
580.00	37.425
580.34	37.636
580.67	36.894
581.01	37.126
581.35	37.206
581.68	37.326
582.02	37.205
582.35	36.582
582.69	36.801
583.02	36.765
583.36	37.238
583.70	36.913
584.03	37.591
584.37	37.628
584.70	37.330
585.04	36.595
585.37	36.813
585.71	37.336
586.04	36.458
586.38	37.330
586.72	37.973
587.05	36.539
587.39	36.649
587.72	37.490
588.06	37.593
588.39	37.174
588.73	37.284
589.06	37.987
589.40	38.249
589.73	38.296
590.07	37.580
590.40	37.377
590.73	38.876
591.07	38.624
591.40	38.760
591.74	39.697
592.07	38.482
592.41	38.363
592.74	37.790
593.08	37.508
593.41	38.026
593.75	37.008
594.08	37.915
594.41	37.504
594.75	37.856
595.08	37.151
595.42	37.793
595.75	37.215
596.09	38.228
596.42	37.957
596.75	37.653
597.09	39.134
597.42	37.985
597.75	38.810
598.09	38.261
598.42	37.586
598.76	37.495
599.09	37.628
599.42	37.263
599.76	37.372
600.09	37.377
600.42	36.888
600.76	36.107
601.09	36.940
601.42	37.709
601.76	37.306
602.09	37.115
602.42	38.018
602.76	37.807
603.09	36.585
603.42	37.993
603.76	37.043
604.09	36.991
604.42	38.117
604.76	38.212
605.09	36.785
605.42	37.238
605.75	38.535
606.09	37.414
606.42	37.556
606.75	37.122
607.09	37.170
607.42	36.885
607.75	36.329
608.08	37.039
608.42	36.889
608.75	37.241
609.08	36.910
609.41	37.744
609.75	37.446
610.08	37.418
610.41	37.663
610.74	38.789
611.07	37.994
611.41	39.156
611.74	37.858
612.07	38.509
612.40	38.825
612.73	38.211
613.07	38.955
613.40	37.757
613.73	37.546
614.06	38.871
614.39	37.861
614.72	37.895
615.06	38.235
615.39	38.270
615.72	37.526
616.05	37.852
616.38	38.855
616.71	38.895
617.05	38.575
617.38	37.883
617.71	37.958
618.04	39.243
618.37	37.670
618.70	39.701
619.03	39.671
619.36	38.493
619.69	39.507
620.03	38.874
620.36	38.770
620.69	38.767
621.02	39.381
621.35	39.233
621.68	39.330
622.01	39.551
622.34	39.486
622.67	39.468
623.00	39.105
623.33	38.313
623.66	40.243
623.99	40.280
624.32	38.374
624.65	38.983
624.99	38.739
625.32	39.030
625.65	40.646
625.98	39.277
626.31	40.669
626.64	40.408
626.97	39.900
627.30	39.318
627.63	40.607
627.96	41.127
628.29	40.682
628.62	40.622
628.95	42.358
629.28	41.515
629.61	41.613
629.94	41.810
630.26	41.563
630.59	40.896
630.92	39.655
631.25	41.560
631.58	40.040
631.91	41.684
632.24	42.827
632.57	42.078
632.90	42.982
633.23	42.282
633.56	41.017
633.89	42.469
634.22	42.338
634.55	44.142
634.88	42.515
635.20	43.489
635.53	42.651
635.86	44.678
636.19	43.412
636.52	41.176
636.85	42.955
637.18	41.705
637.51	41.371
637.83	40.074
638.16	43.990
638.49	41.940
638.82	44.121
639.15	41.750
639.48	42.269
639.81	43.700
640.13	43.490
640.46	44.161
640.79	42.801
641.12	40.853
641.45	43.715
641.77	45.655
642.10	44.444
642.43	44.144
642.76	45.666
643.09	44.785
643.41	45.068
643.74	44.136
644.07	44.512
644.40	46.779
644.73	46.457
645.05	47.068
645.38	44.708
645.71	42.834
646.04	44.850
646.36	45.910
646.69	46.154
647.02	47.279
647.35	46.220
647.67	45.664
648.00	45.854
648.33	42.409
648.66	42.727
648.98	44.828
649.31	43.647
649.64	46.039
649.96	43.517
650.29	42.338
650.62	42.557
650.94	45.057
651.27	46.284
651.60	45.258
651.92	43.770
652.25	43.974
652.58	43.925
652.90	46.288
653.23	44.530
653.56	44.094
653.88	44.849
654.21	44.076
654.54	44.389
654.86	42.679
655.19	40.405
655.52	31.201
655.84	29.581
656.17	38.431
656.49	50.989
656.82	50.925
657.15	37.619
657.47	27.741
657.80	20.714
658.13	21.319
658.45	31.079
658.78	30.002
659.10	30.814
659.43	32.165
659.75	33.810
660.08	36.266
660.41	39.385
660.73	42.313
661.06	43.631
661.38	46.909
661.71	45.192
662.03	48.126
662.36	44.732
662.68	48.193
663.01	45.455
663.33	46.709
663.66	48.950
663.98	46.004
664.31	47.899
664.63	46.356
664.96	46.278
665.28	46.516
665.61	45.224
665.93	45.473
666.26	45.639
666.58	48.954
666.91	47.780
667.23	48.539
667.56	46.220
667.88	46.795
668.21	46.269
668.53	49.241
668.86	43.290
669.18	51.173
669.50	43.913
669.83	50.109
670.15	45.556
670.48	45.969
670.80	46.336
671.13	48.832
671.45	47.234
671.77	47.862
672.10	43.808
672.42	40.989
672.75	40.796
673.07	43.838
673.39	42.315
673.72	43.750
674.04	45.490
674.37	45.825
674.69	46.012
675.01	44.351
675.34	47.433
675.66	45.474
675.98	46.232
676.31	45.588
676.63	46.497
676.95	45.912
677.28	46.963
677.60	48.571
677.92	48.734
678.25	46.407
678.57	46.016
678.89	43.888
679.22	45.383
679.54	43.893
679.86	42.569
680.18	42.755
680.51	43.794
680.83	42.171
681.15	45.472
681.48	44.991
681.80	45.261
682.12	43.103
682.44	43.133
682.77	45.010
683.09	46.137
683.41	45.898
683.73	46.137
684.06	47.314
684.38	43.444
684.70	43.023
685.02	41.651
685.34	45.421
685.67	42.657
685.99	40.206
686.31	40.785
686.63	37.986
686.96	40.714
687.28	42.058
687.60	42.210
687.92	41.316
688.24	41.445
688.56	46.988
688.89	43.776
689.21	46.070
689.53	41.336
689.85	46.785
690.17	41.615
690.49	45.435
690.82	46.262
691.14	43.527
691.46	44.937
691.78	46.386
692.10	45.868
692.42	42.715
692.74	42.946
693.06	42.766
693.39	44.764
693.71	44.978
694.03	44.000
694.35	43.723
694.67	42.334
694.99	48.780
695.31	45.833
695.63	46.172
695.95	45.477
696.27	43.655
696.59	45.078
696.91	48.446
697.23	43.192
697.56	44.350
697.88	41.513
698.20	42.083
698.52	44.086
698.84	44.989
699.16	45.622
699.48	44.418
699.80	42.271
700.12	50.649
700.44	48.541
700.76	45.304
701.08	49.425
701.40	47.207
701.72	52.187
702.04	51.989
702.36	44.759
702.68	49.858
703.00	47.368
703.32	43.351
703.64	44.772
703.96	47.911
704.28	50.000
704.60	48.387
704.91	50.445
705.23	47.801
705.55	53.156
705.87	52.159
706.19	54.417
706.51	47.975
706.83	48.485
707.15	51.541
707.47	44.949
707.79	47.912
708.11	43.836
708.43	45.238
708.74	46.939
709.06	47.273
709.38	48.819
709.70	48.547
710.02	51.632
710.34	45.758
710.66	48.060
710.98	48.011
711.29	48.547
711.61	52.802
711.93	47.436
712.25	51.768
712.57	52.574
712.89	49.135
713.20	46.809
713.52	50.987
713.84	47.785
714.16	49.695
714.48	46.552
714.80	52.584
715.11	47.550
715.43	49.852
715.75	41.449
716.07	51.757
716.39	50.470
716.70	51.827
717.02	52.158
717.34	47.350
717.66	56.343
717.97	53.785
718.29	52.593
718.61	52.920
718.93	52.206
719.24	51.557
719.56	50.508
719.88	49.831
720.20	54.054
720.51	53.310
720.83	54.647
721.15	51.119
721.46	49.645
721.78	51.254
722.10	56.226
722.42	56.767
722.73	53.933
723.05	50.820
723.37	52.227
723.68	54.826
724.00	54.065
724.32	56.452
724.63	50.407
724.95	53.556
725.27	54.656
725.58	55.469
725.90	54.380
726.22	53.962
726.53	50.694
726.85	47.440
727.16	50.890
727.48	52.482
727.80	51.136
728.11	52.536
728.43	51.923
728.74	50.179
729.06	52.555
729.38	54.044
729.69	49.466
730.01	44.369
730.32	50.694
730.64	51.171
730.96	45.875
731.27	50.993
731.59	45.566
731.90	47.522
732.22	48.447
732.53	45.511
732.85	50.321
733.16	48.553
733.48	46.512
733.80	50.649
734.11	49.363
734.43	45.858
734.74	46.286
735.06	42.407
735.37	48.844
735.69	48.726
736.00	51.961
736.32	49.221
736.63	46.965
736.95	50.799
737.26	44.218
737.58	46.774
737.89	48.495
738.21	50.171
738.52	52.500
738.83	48.302
739.15	47.692
739.46	52.555
739.78	47.569
740.09	49.231
740.41	50.968
740.72	47.735
741.04	49.259
741.35	51.250
741.66	56.889
741.98	53.302
742.29	57.416
742.61	56.034
742.92	55.656
743.23	54.701
743.55	52.400
743.86	57.018
744.18	58.850
744.49	62.201
744.80	59.155
745.12	59.545
745.43	55.507
745.74	61.261
746.06	56.881
746.37	57.399
746.68	53.846
747.00	59.722
747.31	55.238
747.62	53.982
747.94	51.982
748.25	51.915
748.56	60.352
748.88	57.426
749.19	64.500
749.50	62.326
749.82	50.407
750.13	53.061
750.44	49.270
750.75	51.930
751.07	52.733
751.38	49.826
751.69	50.181
752.01	50.000
752.32	49.458
752.63	53.546
752.94	53.689
753.26	58.800
753.57	48.374
753.88	53.516
754.19	52.500
754.51	53.125
754.82	44.765
755.13	52.453
755.44	50.376
755.75	50.000
756.07	48.936
756.38	46.715
756.69	48.658
757.00	43.413
757.31	44.214
757.63	47.368
757.94	42.895
758.25	43.627
758.56	39.753
758.87	45.430
759.18	44.848
759.50	45.768
759.81	47.040
760.12	45.000
760.43	46.132
760.74	43.207
761.05	42.373
761.36	40.909
761.67	45.739
761.99	45.963
762.30	52.083
762.61	53.053
762.92	50.781
763.23	52.941
763.54	58.400
763.85	53.906
764.16	55.769
764.47	51.711
764.78	45.936
765.10	44.937
765.41	47.493
765.72	47.305
766.03	49.530
766.34	43.000
766.65	57.447
766.96	51.282
767.27	63.959
767.58	54.167
767.89	63.158
768.20	63.793
768.51	60.914
768.82	51.835
769.13	49.593
769.44	51.417
769.75	51.502
770.06	50.459
770.37	52.489
770.68	57.407
770.99	51.556
771.30	52.459
771.61	52.915
771.92	52.049
772.23	58.824
772.54	55.385
772.85	61.780
773.16	61.702
773.47	67.935
773.78	54.822
774.09	58.929
774.39	62.573
774.70	67.284
775.01	66.667
775.32	60.131
775.63	71.711
775.94	63.309
776.25	85.039
776.56	72.388
776.87	68.852
777.18	73.438
777.48	76.336
777.79	68.182
778.10	71.111
778.41	77.679
778.72	72.263
779.03	75.839
779.34	62.416
779.65	70.270
779.95	66.871
780.26	68.627
780.57	68.966
780.88	78.906
781.19	70.677
781.50	70.946
781.80	64.780
782.11	63.842
782.42	60.127
782.73	59.509
783.04	71.622
783.34	64.789
783.65	75.342
783.96	68.657
784.27	66.434
784.57	58.993
784.88	77.778
785.19	76.984
785.50	76.415
785.81	81.343
786.11	86.066
786.42	76.744
786.73	71.681
787.04	88.679
787.34	70.536
787.65	87.000
787.96	74.775
788.26	75.207
788.57	85.593
788.88	76.033
789.19	71.528
789.49	78.030
789.80	73.282
790.11	84.762
790.41	88.119
790.72	87.952
791.03	88.043
791.33	84.884
791.64	90.722
791.95	87.129
792.25	87.778
792.56	87.013
792.87	107.692
793.17	105.063
793.48	94.253
793.79	87.356
794.09	92.045
794.40	69.748
794.70	77.941
795.01	66.667
795.32	68.345
795.62	70.866
795.93	81.034
796.23	69.027
796.54	75.294
796.85	98.649
797.15	123.944
797.46	93.939
797.76	95.181
798.07	93.671
798.37	106.154
798.68	98.485
798.99	87.324
799.29	94.805
799.60	73.864
799.90	102.740
800.21	104.478
800.51	125.862
800.82	117.544
801.12	98.361
801.43	110.606
801.73	91.892
802.04	104.762
802.34	100.000
802.65	103.125
802.95	133.898
803.26	118.750
803.56	112.857
803.87	107.692
804.17	108.824
804.48	135.185
804.78	106.897
805.09	114.706
805.39	109.615
805.70	117.857
806.00	122.951
806.30	92.424
806.61	95.122
806.91	73.418
807.22	97.368
807.52	88.060
807.83	109.859
808.13	110.938
808.43	121.667
808.74	86.842
809.04	94.203
809.35	105.970
809.65	97.368
809.95	138.710
810.26	123.729
810.56	109.524
810.86	152.273
811.17	185.714
811.47	121.667
811.77	127.778
812.08	134.545
812.38	122.000
812.69	166.667
812.99	156.818
813.29	148.980
813.59	133.333
813.90	161.224
814.20	147.273
814.50	101.538
814.81	105.882
815.11	138.776
815.41	116.393
815.72	154.762
816.02	136.364
816.32	152.381
816.62	147.500
816.93	151.220
817.23	147.619
817.53	154.545
817.84	206.061
818.14	117.391
818.44	113.333
818.74	194.118
819.04	175.000
819.35	154.286
819.65	202.941
819.95	239.286
820.25	235.000
820.56	148.718
820.86	127.273
821.16	162.791
821.46	169.231
821.76	160.000
822.07	194.286
822.37	152.500
822.67	184.848
822.97	115.686
823.27	225.000
823.57	164.865
823.88	167.500
824.18	220.000
824.48	128.571
824.78	264.000
825.08	216.667
825.38	172.973
825.69	165.854
825.99	266.667
826.29	196.552
826.59	168.421
826.89	173.684
827.19	197.059
827.49	212.903
827.79	175.000
828.09	150.000
828.39	136.170
828.70	116.327
829.00	155.556
829.30	170.968
829.60	132.500
829.90	326.667
830.20	203.571
830.50	226.087
830.80	252.174
831.10	226.667
831.40	220.000
831.70	182.609
832.00	257.692
832.30	222.222
832.60	343.750
832.90	236.667
833.20	442.857
833.50	190.323
833.80	172.414
834.10	178.125
834.40	238.462
834.70	333.333
835.00	338.095
835.30	160.000
835.60	300.000
835.90	224.138
836.20	414.286
836.50	220.690
836.80	240.000
837.10	188.889
837.40	290.476
837.70	323.529
838.00	259.259
838.30	242.857
838.60	319.048
838.90	226.923
839.19	315.000
839.49	421.429
839.79	300.000
840.09	255.000
840.39	261.905
840.69	286.957
840.99	344.444
841.29	560.000
841.59	416.667
841.88	356.250
842.18	196.552
842.48	290.476
842.78	200.000
843.08	300.000
843.38	200.000
843.68	900.000
843.97	238.462
844.27	231.034
844.57	285.714
844.87	400.000
845.17	225.926
845.47	1500.000
845.76	544.444
846.06	311.765
846.36	700.000
846.66	407.143
846.96	356.250
847.25	454.545
847.55	481.818
847.85	269.565
848.15	550.000
848.44	400.000
848.74	283.333
849.04	335.294
849.34	580.000
849.63	263.158
849.93	590.909
850.23	1080.000
850.53	435.714
850.82	2800.000
851.12	-6600.000
851.42	4600.000
851.71	290.000
852.01	-1466.667
852.31	283.333
852.61	1700.000
852.90	328.571
853.20	244.000
853.50	405.882
853.79	280.952
854.09	262.500
854.39	362.500
854.68	191.892
854.98	200.000
855.28	186.667
855.57	227.586
855.87	211.111
856.17	284.211
856.46	246.667
856.76	311.765
857.05	231.034
857.35	266.667
857.65	353.333
857.94	260.870
858.24	273.077
858.53	260.000
858.83	295.455
859.13	386.667
859.42	0.000
859.72	544.444
860.01	463.636
860.31	263.636
860.60	278.947
860.90	230.435
861.20	611.111
861.49	391.667
861.79	-4200.000
862.08	637.500
862.38	323.810
862.67	369.231
862.97	300.000
863.26	622.222
863.56	322.222
863.85	408.333
864.15	587.500
864.44	413.333
864.74	916.667
865.03	662.500
865.33	378.947
865.62	536.364
865.92	407.692
866.21	408.333
866.51	0.000
866.80	518.182
867.10	1140.000
867.39	484.615
867.69	427.273
867.98	326.316
868.27	454.545
868.57	305.263
868.86	-5600.000
869.16	431.250
869.45	2450.000
869.75	-4000.000
870.04	475.000
870.33	742.857
870.63	1250.000
870.92	2950.000
871.22	771.429
871.51	382.353
871.80	223.810
872.10	435.714
>>>>>End Processed Spectral Data<<<<<
