SpectraSuite Data File
++++++++++++++++++++++++++++++++++++
Date: Wed May 13 19:42:04 PDT 2015
User: schluterlab
Dark Spectrum Present: Yes
Reference Spectrum Present: Yes
Number of Sampled Component Spectra: 1
Spectrometers: USB2E3373
Integration Time (usec): 3000 (USB2E3373)
Spectra Averaged: 3 (USB2E3373)
Boxcar Smoothing: 0 (USB2E3373)
Correct for Electrical Dark: No (USB2E3373)
Strobe/Lamp Enabled: No (USB2E3373)
Correct for Detector Non-linearity: No (USB2E3373)
Correct for Stray Light: No (USB2E3373)
Number of Pixels in Processed Spectrum: 2048
>>>>>Begin Processed Spectral Data<<<<<
178.53	0.000
178.91	-1275.000
179.29	-1250.000
179.67	-222.222
180.04	-1450.000
180.42	2550.000
180.80	1080.000
181.18	-1200.000
181.56	657.143
181.94	0.000
182.31	-757.143
182.69	2033.333
183.07	-587.500
183.45	-488.889
183.83	463.636
184.20	-440.000
184.58	2500.000
184.96	6300.000
185.34	-880.000
185.72	-587.500
186.09	-2550.000
186.47	2650.000
186.85	1700.000
187.23	4800.000
187.61	-1933.333
187.98	1600.000
188.36	563.636
188.74	427.273
189.12	-780.000
189.49	520.000
189.87	-4800.000
190.25	-1250.000
190.63	342.857
191.00	423.077
191.38	883.333
191.76	-1275.000
192.14	1675.000
192.51	625.000
192.89	1016.667
193.27	500.000
193.65	-1275.000
194.02	470.000
194.40	840.000
194.78	480.000
195.15	541.667
195.53	710.000
195.91	-2400.000
196.29	362.500
196.66	289.474
197.04	-340.000
197.42	0.000
197.79	610.000
198.17	-4700.000
198.55	757.143
198.92	687.500
199.30	1000.000
199.68	0.000
200.05	300.000
200.43	828.571
200.81	4800.000
201.18	1766.667
201.56	-1733.333
201.94	522.222
202.31	533.333
202.69	525.000
203.07	590.000
203.44	0.000
203.82	1400.000
204.19	800.000
204.57	464.286
204.95	650.000
205.32	2066.667
205.70	509.091
206.08	371.429
206.45	2850.000
206.83	437.500
207.20	900.000
207.58	540.000
207.96	322.222
208.33	762.500
208.71	-900.000
209.08	814.286
209.46	711.111
209.84	400.000
210.21	-1533.333
210.59	1300.000
210.96	-500.000
211.34	2650.000
211.71	590.000
212.09	866.667
212.46	0.000
212.84	1233.333
213.22	1225.000
213.59	-5700.000
213.97	933.333
214.34	800.000
214.72	545.455
215.09	1000.000
215.47	-2500.000
215.84	-2650.000
216.22	1633.333
216.59	435.714
216.97	1075.000
217.34	509.091
217.72	-616.667
218.09	0.000
218.47	-4700.000
218.84	733.333
219.22	885.714
219.59	1700.000
219.97	-642.857
220.34	1020.000
220.72	-1966.667
221.09	471.429
221.47	1625.000
221.84	-983.333
222.22	0.000
222.59	1225.000
222.97	-2750.000
223.34	1360.000
223.72	430.769
224.09	1120.000
224.46	2000.000
224.84	-5500.000
225.21	-1000.000
225.59	-4600.000
225.96	550.000
226.34	315.000
226.71	2850.000
227.08	662.500
227.46	540.000
227.83	-1350.000
228.21	-2750.000
228.58	666.667
228.95	-2600.000
229.33	-2900.000
229.70	1633.333
230.08	771.429
230.45	-860.000
230.82	466.667
231.20	883.333
231.57	685.714
231.95	483.333
232.32	281.818
232.69	545.455
233.07	800.000
233.44	415.385
233.81	-1766.667
234.19	294.737
234.56	491.667
234.93	366.667
235.31	390.909
235.68	407.692
236.05	321.429
236.43	200.000
236.80	268.421
237.17	4300.000
237.55	266.667
237.92	210.714
238.29	280.952
238.67	193.548
239.04	227.586
239.41	163.889
239.79	106.522
240.16	138.095
240.53	150.000
240.91	125.490
241.28	112.000
241.65	112.000
242.02	115.942
242.40	112.903
242.77	111.667
243.14	80.645
243.51	70.787
243.89	80.000
244.26	76.667
244.63	76.344
245.00	69.149
245.38	72.277
245.75	71.028
246.12	58.716
246.49	70.803
246.87	68.000
247.24	64.615
247.61	52.143
247.98	63.399
248.36	50.676
248.73	64.968
249.10	61.146
249.47	41.243
249.84	53.476
250.22	42.246
250.59	53.254
250.96	51.515
251.33	45.972
251.70	48.515
252.08	47.619
252.45	43.498
252.82	46.957
253.19	44.681
253.56	41.569
253.94	43.983
254.31	44.141
254.68	38.077
255.05	43.542
255.42	41.463
255.79	40.441
256.16	43.321
256.54	39.576
256.91	40.569
257.28	38.129
257.65	39.274
258.02	40.683
258.39	40.063
258.76	37.793
259.14	37.798
259.51	34.954
259.88	32.609
260.25	36.556
260.62	34.971
260.99	34.783
261.36	35.736
261.73	35.817
262.10	34.884
262.47	36.620
262.85	34.819
263.22	32.479
263.59	37.037
263.96	34.615
264.33	33.681
264.70	35.263
265.07	34.015
265.44	31.818
265.81	31.630
266.18	32.915
266.55	32.683
266.92	32.924
267.29	34.028
267.66	30.963
268.03	30.682
268.40	33.178
268.77	28.401
269.14	31.982
269.51	32.731
269.88	31.935
270.25	30.700
270.62	32.584
270.99	31.613
271.36	31.545
271.73	31.075
272.10	30.652
272.47	31.828
272.84	32.684
273.21	32.704
273.58	30.786
273.95	29.769
274.32	31.612
274.69	30.835
275.06	28.543
275.43	31.277
275.80	30.661
276.17	29.939
276.54	31.185
276.91	30.435
277.28	30.664
277.65	30.948
278.02	27.536
278.39	31.250
278.76	29.273
279.13	30.377
279.50	30.540
279.87	32.271
280.23	30.339
280.60	29.207
280.97	29.020
281.34	27.965
281.71	30.727
282.08	31.670
282.45	26.727
282.82	29.307
283.19	25.490
283.56	27.193
283.92	29.780
284.29	26.455
284.66	26.497
285.03	26.040
285.40	26.056
285.77	26.263
286.14	27.116
286.51	27.500
286.87	28.034
287.24	27.362
287.61	26.806
287.98	25.812
288.35	25.040
288.72	24.922
289.08	27.543
289.45	24.547
289.82	26.341
290.19	26.060
290.56	25.881
290.93	24.169
291.29	25.307
291.66	24.631
292.03	26.453
292.40	24.816
292.77	25.296
293.13	25.970
293.50	24.781
293.87	23.704
294.24	23.852
294.60	23.144
294.97	22.965
295.34	25.529
295.71	23.864
296.08	23.077
296.44	22.421
296.81	20.079
297.18	23.442
297.55	20.449
297.91	21.240
298.28	23.293
298.65	22.454
299.02	21.607
299.38	21.912
299.75	20.620
300.12	21.711
300.48	20.625
300.85	20.962
301.22	21.529
301.59	19.571
301.95	21.662
302.32	21.694
302.69	19.235
303.05	20.606
303.42	19.383
303.79	19.706
304.15	20.513
304.52	18.424
304.89	19.628
305.25	19.722
305.62	21.291
305.99	20.779
306.35	20.358
306.72	21.076
307.09	21.088
307.45	21.734
307.82	18.638
308.19	20.419
308.55	20.496
308.92	20.086
309.29	18.691
309.65	19.088
310.02	18.393
310.38	19.032
310.75	19.747
311.12	20.061
311.48	20.585
311.85	20.545
312.22	20.812
312.58	18.711
312.95	21.647
313.31	18.641
313.68	20.062
314.05	22.189
314.41	20.302
314.78	20.544
315.14	21.549
315.51	20.597
315.87	21.287
316.24	20.258
316.61	21.735
316.97	21.331
317.34	20.841
317.70	22.084
318.07	22.522
318.43	23.483
318.80	23.618
319.16	23.070
319.53	24.296
319.89	23.905
320.26	26.200
320.62	25.298
320.99	24.646
321.35	24.949
321.72	27.515
322.08	29.023
322.45	29.055
322.81	28.876
323.18	28.805
323.54	29.592
323.91	29.623
324.27	30.688
324.64	30.103
325.00	31.109
325.37	32.666
325.73	32.944
326.10	34.598
326.46	34.588
326.83	35.462
327.19	36.038
327.56	35.976
327.92	37.270
328.29	38.598
328.65	37.201
329.01	37.184
329.38	39.315
329.74	40.536
330.11	40.151
330.47	40.404
330.84	42.188
331.20	40.984
331.56	41.927
331.93	41.944
332.29	41.437
332.66	42.655
333.02	41.956
333.38	43.089
333.75	44.652
334.11	43.772
334.48	43.123
334.84	44.118
335.20	44.000
335.57	43.246
335.93	44.196
336.29	44.048
336.66	46.078
337.02	44.163
337.38	45.093
337.75	43.761
338.11	45.210
338.47	44.751
338.84	45.005
339.20	44.495
339.56	46.533
339.93	44.727
340.29	44.565
340.65	45.187
341.02	45.375
341.38	45.285
341.74	45.526
342.11	45.939
342.47	46.696
342.83	44.007
343.20	46.061
343.56	43.218
343.92	45.439
344.28	46.259
344.65	45.744
345.01	45.539
345.37	46.741
345.73	45.770
346.10	45.013
346.46	45.932
346.82	45.470
347.19	45.363
347.55	44.253
347.91	45.955
348.27	46.590
348.63	47.408
349.00	44.741
349.36	45.895
349.72	46.191
350.08	45.543
350.45	46.216
350.81	45.410
351.17	45.219
351.53	45.373
351.89	46.287
352.26	46.646
352.62	47.314
352.98	45.624
353.34	45.604
353.70	45.581
354.07	46.452
354.43	45.714
354.79	47.385
355.15	45.331
355.51	48.921
355.87	47.837
356.24	47.394
356.60	45.710
356.96	47.064
357.32	46.852
357.68	47.717
358.04	45.527
358.40	45.685
358.77	46.714
359.13	47.908
359.49	46.510
359.85	46.429
360.21	47.847
360.57	47.082
360.93	47.769
361.29	46.788
361.66	47.291
362.02	47.985
362.38	48.137
362.74	47.693
363.10	46.706
363.46	46.442
363.82	47.241
364.18	47.651
364.54	47.994
364.90	47.805
365.26	47.868
365.62	48.283
365.98	47.042
366.35	47.564
366.71	48.445
367.07	47.487
367.43	50.000
367.79	48.894
368.15	48.922
368.51	48.038
368.87	48.965
369.23	49.012
369.59	49.312
369.95	49.559
370.31	48.932
370.67	47.246
371.03	50.712
371.39	50.000
371.75	48.824
372.11	49.147
372.47	51.320
372.83	51.441
373.19	49.855
373.55	51.220
373.91	51.178
374.27	48.935
374.63	50.618
374.99	50.918
375.35	49.756
375.71	50.514
376.07	51.372
376.42	51.719
376.78	50.828
377.14	51.221
377.50	51.788
377.86	49.734
378.22	51.643
378.58	50.689
378.94	50.660
379.30	51.718
379.66	51.586
380.02	50.983
380.38	50.880
380.74	51.621
381.09	51.039
381.45	52.612
381.81	53.133
382.17	52.930
382.53	51.447
382.89	53.827
383.25	52.033
383.61	53.346
383.97	51.657
384.32	52.152
384.68	52.540
385.04	52.428
385.40	52.260
385.76	52.518
386.12	53.433
386.48	53.367
386.83	54.715
387.19	54.113
387.55	53.494
387.91	53.204
388.27	53.035
388.62	54.456
388.98	52.826
389.34	54.693
389.70	54.445
390.06	54.753
390.42	53.826
390.77	54.071
391.13	55.392
391.49	53.807
391.85	53.024
392.20	53.691
392.56	54.230
392.92	54.444
393.28	53.491
393.64	54.916
393.99	53.146
394.35	54.467
394.71	54.768
395.07	54.579
395.42	54.141
395.78	54.580
396.14	54.376
396.50	56.266
396.85	55.499
397.21	54.994
397.57	54.805
397.92	55.649
398.28	53.251
398.64	54.421
399.00	55.064
399.35	54.484
399.71	55.382
400.07	55.234
400.42	55.583
400.78	55.308
401.14	55.244
401.49	55.224
401.85	55.293
402.21	54.551
402.57	55.336
402.92	55.801
403.28	56.465
403.63	54.765
403.99	55.669
404.35	54.909
404.70	55.635
405.06	53.990
405.42	55.209
405.77	54.971
406.13	53.217
406.49	54.938
406.84	54.578
407.20	55.378
407.55	54.818
407.91	57.267
408.27	56.222
408.62	55.689
408.98	55.270
409.34	55.351
409.69	57.097
410.05	57.001
410.40	55.474
410.76	55.018
411.11	55.006
411.47	56.741
411.83	56.872
412.18	56.215
412.54	55.978
412.89	54.157
413.25	55.018
413.60	55.899
413.96	56.163
414.31	55.468
414.67	55.830
415.03	56.954
415.38	56.314
415.74	56.720
416.09	57.022
416.45	57.296
416.80	56.642
417.16	58.177
417.51	56.603
417.87	56.262
418.22	56.845
418.58	57.069
418.93	56.880
419.29	56.652
419.64	58.312
420.00	57.500
420.35	56.638
420.71	57.023
421.06	55.370
421.42	56.374
421.77	56.446
422.12	55.306
422.48	55.801
422.83	56.610
423.19	55.912
423.54	57.400
423.90	56.754
424.25	57.901
424.61	56.310
424.96	57.843
425.31	56.478
425.67	56.236
426.02	56.800
426.38	56.410
426.73	56.173
427.09	57.021
427.44	58.137
427.79	57.389
428.15	57.798
428.50	57.519
428.85	57.390
429.21	57.813
429.56	57.646
429.92	56.618
430.27	56.604
430.62	56.170
430.98	56.772
431.33	56.598
431.68	56.806
432.04	55.804
432.39	57.910
432.74	58.049
433.10	57.272
433.45	57.843
433.80	56.375
434.16	57.265
434.51	56.895
434.86	57.697
435.22	57.977
435.57	58.602
435.92	56.817
436.28	58.422
436.63	56.733
436.98	56.096
437.34	59.273
437.69	58.868
438.04	58.853
438.39	57.015
438.75	58.280
439.10	58.268
439.45	59.032
439.81	59.456
440.16	58.329
440.51	59.227
440.86	58.772
441.22	58.231
441.57	57.590
441.92	58.137
442.27	58.342
442.63	57.451
442.98	59.380
443.33	57.228
443.68	57.873
444.03	57.443
444.39	56.621
444.74	58.496
445.09	56.927
445.44	56.698
445.79	57.843
446.15	58.020
446.50	58.212
446.85	57.400
447.20	57.981
447.55	59.799
447.91	58.908
448.26	57.874
448.61	57.264
448.96	58.693
449.31	58.268
449.66	57.569
450.02	58.273
450.37	57.993
450.72	58.206
451.07	58.623
451.42	57.690
451.77	59.072
452.12	58.603
452.47	58.706
452.83	57.925
453.18	58.374
453.53	58.627
453.88	57.649
454.23	57.621
454.58	59.176
454.93	59.822
455.28	57.544
455.63	59.102
455.98	59.286
456.34	58.731
456.69	59.299
457.04	58.514
457.39	58.913
457.74	58.561
458.09	57.792
458.44	57.469
458.79	57.050
459.14	57.167
459.49	59.370
459.84	58.892
460.19	56.865
460.54	56.713
460.89	57.817
461.24	58.834
461.59	58.396
461.94	57.953
462.29	57.923
462.64	58.966
462.99	58.165
463.34	58.600
463.69	59.287
464.04	58.783
464.39	57.507
464.74	57.695
465.09	58.384
465.44	57.119
465.79	55.984
466.14	56.705
466.49	57.119
466.84	56.392
467.19	57.514
467.54	57.187
467.89	57.203
468.24	57.126
468.59	58.547
468.94	56.567
469.29	58.869
469.64	59.304
469.99	59.066
470.34	57.332
470.68	58.693
471.03	57.687
471.38	59.486
471.73	57.562
472.08	58.026
472.43	57.538
472.78	57.472
473.13	57.766
473.48	57.491
473.83	57.683
474.17	56.627
474.52	57.196
474.87	57.501
475.22	56.239
475.57	56.206
475.92	56.452
476.27	55.468
476.61	56.481
476.96	56.515
477.31	57.038
477.66	55.635
478.01	55.044
478.36	56.161
478.70	56.282
479.05	56.124
479.40	55.732
479.75	56.329
480.10	56.312
480.45	55.259
480.79	55.232
481.14	56.507
481.49	54.770
481.84	55.098
482.19	54.702
482.53	54.908
482.88	55.654
483.23	55.935
483.58	54.868
483.92	55.436
484.27	53.377
484.62	54.483
484.97	53.291
485.31	53.562
485.66	51.622
486.01	49.705
486.36	48.791
486.70	48.810
487.05	49.481
487.40	50.945
487.75	52.683
488.09	52.897
488.44	53.869
488.79	54.177
489.13	54.698
489.48	54.445
489.83	53.906
490.17	55.853
490.52	55.403
490.87	53.912
491.22	53.661
491.56	53.759
491.91	54.351
492.26	54.938
492.60	53.594
492.95	53.742
493.30	53.411
493.64	54.410
493.99	54.318
494.34	53.423
494.68	53.526
495.03	54.088
495.37	53.374
495.72	54.776
496.07	54.339
496.41	52.611
496.76	53.650
497.11	52.904
497.45	53.656
497.80	52.831
498.14	52.802
498.49	53.707
498.84	53.787
499.18	53.286
499.53	54.274
499.87	52.749
500.22	52.520
500.56	53.447
500.91	52.308
501.26	53.248
501.60	54.627
501.95	51.650
502.29	52.577
502.64	53.259
502.98	52.641
503.33	52.102
503.67	51.740
504.02	51.637
504.36	51.568
504.71	52.272
505.06	52.096
505.40	53.038
505.75	51.350
506.09	51.263
506.44	53.133
506.78	51.680
507.13	53.155
507.47	51.970
507.82	52.026
508.16	52.685
508.51	52.359
508.85	51.936
509.19	52.245
509.54	52.194
509.88	51.262
510.23	50.848
510.57	52.477
510.92	52.408
511.26	51.079
511.61	51.297
511.95	51.305
512.30	51.962
512.64	52.284
512.98	52.358
513.33	52.570
513.67	50.747
514.02	51.515
514.36	51.229
514.70	51.965
515.05	51.868
515.39	51.879
515.74	52.140
516.08	53.102
516.42	52.275
516.77	53.010
517.11	51.831
517.46	51.580
517.80	53.310
518.14	51.592
518.49	52.042
518.83	51.307
519.17	52.887
519.52	50.877
519.86	50.656
520.20	50.983
520.55	52.304
520.89	53.650
521.23	51.689
521.58	50.660
521.92	52.358
522.26	49.603
522.61	51.963
522.95	51.688
523.29	51.491
523.64	51.524
523.98	52.434
524.32	50.784
524.66	50.150
525.01	52.022
525.35	50.805
525.69	51.170
526.04	51.153
526.38	50.885
526.72	51.166
527.06	51.099
527.41	48.700
527.75	52.347
528.09	50.674
528.43	50.287
528.78	50.277
529.12	50.606
529.46	51.378
529.80	50.557
530.15	51.090
530.49	49.108
530.83	50.886
531.17	52.415
531.51	51.816
531.86	50.839
532.20	49.870
532.54	51.505
532.88	48.588
533.22	48.532
533.57	48.333
533.91	47.682
534.25	49.210
534.59	48.627
534.93	47.888
535.27	48.220
535.62	48.168
535.96	48.776
536.30	47.934
536.64	49.453
536.98	49.237
537.32	48.058
537.66	49.133
538.01	48.848
538.35	48.739
538.69	47.607
539.03	47.563
539.37	48.371
539.71	47.440
540.05	47.712
540.39	48.904
540.73	46.119
541.07	48.475
541.42	49.054
541.76	47.806
542.10	47.801
542.44	48.146
542.78	48.353
543.12	46.449
543.46	47.541
543.80	46.975
544.14	45.250
544.48	47.365
544.82	45.606
545.16	47.235
545.50	46.080
545.84	47.245
546.18	47.407
546.52	46.387
546.86	45.842
547.20	47.539
547.54	45.491
547.88	46.173
548.22	45.143
548.56	45.031
548.90	45.327
549.24	45.455
549.58	46.385
549.92	47.459
550.26	47.372
550.60	45.228
550.94	46.549
551.28	45.647
551.62	46.082
551.96	45.614
552.30	46.348
552.64	45.098
552.98	47.186
553.32	45.651
553.66	45.399
554.00	45.299
554.34	45.963
554.68	46.924
555.02	45.769
555.36	44.607
555.69	43.911
556.03	44.415
556.37	46.112
556.71	44.952
557.05	43.417
557.39	44.857
557.73	44.107
558.07	45.468
558.41	45.658
558.75	44.526
559.08	45.414
559.42	46.183
559.76	44.412
560.10	44.040
560.44	43.746
560.78	43.114
561.12	42.810
561.45	44.654
561.79	43.177
562.13	44.534
562.47	44.672
562.81	44.840
563.15	45.217
563.48	43.833
563.82	42.792
564.16	42.708
564.50	41.471
564.84	41.972
565.17	42.535
565.51	42.428
565.85	41.878
566.19	42.705
566.52	42.685
566.86	42.254
567.20	42.394
567.54	41.495
567.88	40.413
568.21	40.106
568.55	40.142
568.89	39.494
569.23	38.725
569.56	37.611
569.90	37.736
570.24	38.141
570.57	36.824
570.91	36.199
571.25	36.226
571.59	35.758
571.92	36.031
572.26	36.049
572.60	36.066
572.93	35.742
573.27	35.256
573.61	36.097
573.95	35.426
574.28	35.201
574.62	34.961
574.96	34.074
575.29	34.214
575.63	34.909
575.97	34.496
576.30	34.865
576.64	34.622
576.98	34.541
577.31	34.080
577.65	34.311
577.98	33.474
578.32	33.161
578.66	33.669
578.99	33.988
579.33	33.769
579.67	34.031
580.00	33.421
580.34	34.480
580.67	34.153
581.01	33.821
581.35	33.054
581.68	33.048
582.02	32.307
582.35	33.562
582.69	32.992
583.02	33.375
583.36	33.618
583.70	34.416
584.03	34.535
584.37	34.414
584.70	34.169
585.04	33.782
585.37	33.318
585.71	33.247
586.04	32.906
586.38	34.117
586.72	34.134
587.05	33.958
587.39	33.351
587.72	33.136
588.06	33.751
588.39	33.909
588.73	33.940
589.06	34.528
589.40	34.377
589.73	35.058
590.07	34.769
590.40	34.636
590.73	36.105
591.07	35.775
591.40	35.723
591.74	36.494
592.07	35.340
592.41	35.552
592.74	34.232
593.08	32.712
593.41	33.977
593.75	32.854
594.08	33.825
594.41	34.146
594.75	34.159
595.08	34.574
595.42	34.221
595.75	34.224
596.09	34.660
596.42	34.656
596.75	34.783
597.09	35.844
597.42	33.685
597.75	34.713
598.09	34.565
598.42	34.493
598.76	33.522
599.09	33.485
599.42	32.860
599.76	33.126
600.09	33.078
600.42	32.688
600.76	32.929
601.09	33.188
601.42	33.333
601.76	33.207
602.09	33.399
602.42	33.559
602.76	33.374
603.09	33.242
603.42	33.698
603.76	33.155
604.09	32.997
604.42	33.388
604.76	33.404
605.09	34.338
605.42	32.835
605.75	33.030
606.09	33.022
606.42	32.979
606.75	32.725
607.09	33.864
607.42	33.291
607.75	32.363
608.08	32.957
608.42	33.707
608.75	32.372
609.08	32.794
609.41	33.746
609.75	33.016
610.08	33.270
610.41	32.402
610.74	33.822
611.07	33.449
611.41	33.906
611.74	34.389
612.07	34.058
612.40	34.523
612.73	33.947
613.07	35.884
613.40	33.913
613.73	33.508
614.06	34.194
614.39	32.564
614.72	32.842
615.06	34.244
615.39	33.386
615.72	33.793
616.05	33.227
616.38	34.019
616.71	33.314
617.05	33.746
617.38	34.336
617.71	33.393
618.04	34.075
618.37	33.294
618.70	33.167
619.03	34.934
619.36	35.234
619.69	35.986
620.03	34.341
620.36	34.893
620.69	35.890
621.02	35.251
621.35	35.161
621.68	35.826
622.01	35.294
622.34	35.779
622.67	35.665
623.00	34.850
623.33	34.954
623.66	35.168
623.99	35.714
624.32	34.308
624.65	34.958
624.99	34.065
625.32	35.264
625.65	34.936
625.98	35.357
626.31	35.303
626.64	36.082
626.97	35.744
627.30	35.578
627.63	37.244
627.96	36.081
628.29	36.570
628.62	36.597
628.95	37.453
629.28	35.858
629.61	37.580
629.94	37.143
630.26	36.416
630.59	36.511
630.92	37.165
631.25	35.933
631.58	37.638
631.91	37.627
632.24	36.709
632.57	37.671
632.90	38.158
633.23	38.143
633.56	39.209
633.89	38.392
634.22	39.614
634.55	39.527
634.88	39.042
635.20	39.188
635.53	38.916
635.86	38.243
636.19	38.000
636.52	37.947
636.85	38.030
637.18	37.097
637.51	38.889
637.83	37.731
638.16	39.770
638.49	38.035
638.82	40.076
639.15	38.500
639.48	37.531
639.81	39.946
640.13	40.104
640.46	39.060
640.79	40.291
641.12	38.514
641.45	38.966
641.77	42.121
642.10	40.497
642.43	39.790
642.76	39.628
643.09	40.644
643.41	40.364
643.74	40.278
644.07	38.415
644.40	42.025
644.73	42.362
645.05	41.046
645.38	40.284
645.71	38.647
646.04	41.528
646.36	43.239
646.69	42.642
647.02	41.327
647.35	42.955
647.67	40.885
648.00	40.976
648.33	40.594
648.66	39.848
648.98	39.430
649.31	39.312
649.64	40.359
649.96	39.195
650.29	39.652
650.62	39.159
650.94	40.681
651.27	42.399
651.60	40.100
651.92	40.575
652.25	38.762
652.58	40.343
652.90	41.548
653.23	38.521
653.56	40.787
653.88	40.887
654.21	39.336
654.54	38.944
654.86	37.072
655.19	35.405
655.52	24.746
655.84	21.199
656.17	27.545
656.49	37.208
656.82	38.364
657.15	29.257
657.47	21.869
657.80	16.829
658.13	17.881
658.45	26.254
658.78	27.037
659.10	27.960
659.43	28.999
659.75	30.460
660.08	33.608
660.41	36.313
660.73	40.661
661.06	39.968
661.38	41.636
661.71	44.423
662.03	43.393
662.36	39.364
662.68	39.357
663.01	42.626
663.33	41.189
663.66	41.807
663.98	44.492
664.31	40.126
664.63	42.105
664.96	41.247
665.28	40.984
665.61	38.986
665.93	38.833
666.26	40.162
666.58	42.259
666.91	42.495
667.23	44.719
667.56	41.253
667.88	42.308
668.21	43.284
668.53	40.998
668.86	41.126
669.18	43.497
669.50	41.304
669.83	40.959
670.15	42.444
670.48	42.266
670.80	41.810
671.13	42.675
671.45	38.723
671.77	42.159
672.10	37.523
672.42	37.809
672.75	36.318
673.07	36.268
673.39	38.517
673.72	36.914
674.04	38.824
674.37	39.223
674.69	39.673
675.01	38.494
675.34	41.068
675.66	41.684
675.98	41.344
676.31	39.496
676.63	39.066
676.95	41.509
677.28	42.757
677.60	39.780
677.92	42.405
678.25	38.193
678.57	40.637
678.89	38.677
679.22	37.132
679.54	38.550
679.86	39.450
680.18	38.104
680.51	35.638
680.83	37.189
681.15	37.925
681.48	38.941
681.80	36.750
682.12	36.398
682.44	36.750
682.77	37.475
683.09	43.562
683.41	41.463
683.73	39.735
684.06	42.975
684.38	37.378
684.70	39.147
685.02	36.210
685.34	37.179
685.67	34.790
685.99	32.474
686.31	37.884
686.63	34.452
686.96	35.536
687.28	35.018
687.60	36.051
687.92	37.660
688.24	34.601
688.56	38.554
688.89	40.041
689.21	41.048
689.53	39.040
689.85	41.020
690.17	34.576
690.49	38.641
690.82	40.654
691.14	40.848
691.46	36.076
691.78	37.952
692.10	40.083
692.42	38.323
692.74	37.552
693.06	38.085
693.39	37.372
693.71	38.428
694.03	36.842
694.35	38.528
694.67	37.986
694.99	38.780
695.31	39.706
695.63	39.234
695.95	41.076
696.27	39.340
696.59	37.824
696.91	42.746
697.23	35.211
697.56	40.512
697.88	34.969
698.20	37.083
698.52	35.699
698.84	35.412
699.16	39.401
699.48	39.430
699.80	37.923
700.12	43.377
700.44	39.257
700.76	41.713
701.08	43.103
701.40	41.061
701.72	43.732
702.04	45.170
702.36	43.343
702.68	40.510
703.00	44.598
703.32	38.830
703.64	42.895
703.96	40.111
704.28	41.570
704.60	41.935
704.91	42.433
705.23	41.349
705.55	48.173
705.87	51.495
706.19	49.117
706.51	44.860
706.83	41.212
707.15	40.896
707.47	38.131
707.79	41.278
708.11	36.301
708.43	39.286
708.74	39.796
709.06	38.961
709.38	39.895
709.70	41.860
710.02	44.510
710.34	41.515
710.66	40.896
710.98	45.170
711.29	42.151
711.61	40.413
711.93	42.308
712.25	41.158
712.57	46.691
712.89	46.367
713.20	41.641
713.52	42.434
713.84	37.025
714.16	36.890
714.48	41.954
714.80	42.553
715.11	38.617
715.43	39.763
715.75	39.420
716.07	44.089
716.39	38.558
716.70	48.173
717.02	45.683
717.34	46.290
717.66	46.642
717.97	46.614
718.29	41.852
718.61	48.175
718.93	44.853
719.24	44.983
719.56	43.051
719.88	44.746
720.20	44.595
720.51	47.735
720.83	46.468
721.15	42.164
721.46	43.262
721.78	44.803
722.10	45.660
722.42	43.985
722.73	41.948
723.05	47.951
723.37	41.296
723.68	45.560
724.00	47.561
724.32	46.774
724.63	45.528
724.95	47.280
725.27	46.154
725.58	46.875
725.90	44.161
726.22	40.000
726.53	40.972
726.85	44.369
727.16	41.637
727.48	44.681
727.80	43.939
728.11	40.580
728.43	43.077
728.74	44.086
729.06	45.620
729.38	43.750
729.69	43.772
730.01	43.686
730.32	40.972
730.64	40.468
730.96	36.964
731.27	39.073
731.59	40.061
731.90	36.443
732.22	40.683
732.53	37.152
732.85	40.705
733.16	38.264
733.48	41.196
733.80	41.234
734.11	39.490
734.43	38.166
734.74	38.857
735.06	38.395
735.37	36.994
735.69	41.083
736.00	41.503
736.32	38.941
736.63	39.936
736.95	41.534
737.26	37.415
737.58	35.484
737.89	38.796
738.21	38.225
738.52	46.071
738.83	42.264
739.15	39.615
739.46	44.891
739.78	39.236
740.09	35.385
740.41	40.323
740.72	41.463
741.04	46.667
741.35	42.083
741.66	47.556
741.98	41.509
742.29	50.239
742.61	53.879
742.92	46.154
743.23	45.726
743.55	48.400
743.86	45.614
744.18	46.903
744.49	49.761
744.80	51.643
745.12	52.727
745.43	44.053
745.74	51.351
746.06	44.037
746.37	43.946
746.68	48.869
747.00	54.167
747.31	50.476
747.62	45.575
747.94	49.339
748.25	45.957
748.56	49.339
748.88	45.050
749.19	51.500
749.50	47.907
749.82	41.870
750.13	42.041
750.44	40.876
750.75	45.965
751.07	40.836
751.38	41.115
751.69	44.404
752.01	42.857
752.32	42.238
752.63	41.489
752.94	46.721
753.26	45.200
753.57	39.837
753.88	43.359
754.19	39.643
754.51	43.403
754.82	38.989
755.13	40.377
755.44	41.353
755.75	40.511
756.07	40.780
756.38	38.321
756.69	40.604
757.00	36.228
757.31	37.982
757.63	36.550
757.94	35.657
758.25	34.559
758.56	34.074
758.87	31.989
759.18	38.182
759.50	36.364
759.81	34.891
760.12	36.250
760.43	36.390
760.74	34.783
761.05	39.548
761.36	32.888
761.67	40.625
761.99	36.957
762.30	39.931
762.61	43.130
762.92	40.625
763.23	44.118
763.54	44.800
763.85	42.578
764.16	43.077
764.47	41.445
764.78	37.809
765.10	31.329
765.41	37.463
765.72	33.234
766.03	36.677
766.34	40.000
766.65	48.085
766.96	44.017
767.27	50.761
767.58	52.604
767.89	50.526
768.20	55.172
768.51	47.716
768.82	42.202
769.13	43.089
769.44	39.271
769.75	48.927
770.06	37.156
770.37	47.059
770.68	47.685
770.99	48.000
771.30	41.803
771.61	49.776
771.92	42.623
772.23	48.739
772.54	39.487
772.85	50.262
773.16	47.340
773.47	51.087
773.78	48.731
774.09	47.024
774.39	58.480
774.70	51.852
775.01	63.768
775.32	60.784
775.63	50.000
775.94	56.835
776.25	68.504
776.56	59.701
776.87	69.672
777.18	55.469
777.48	69.466
777.79	65.152
778.10	54.815
778.41	72.321
778.72	54.745
779.03	59.060
779.34	61.745
779.65	43.243
779.95	56.442
780.26	56.209
780.57	63.448
780.88	60.156
781.19	63.910
781.50	60.135
781.80	59.748
782.11	54.237
782.42	46.203
782.73	47.239
783.04	64.865
783.34	59.859
783.65	67.123
783.96	66.418
784.27	59.441
784.57	56.835
784.88	59.259
785.19	68.254
785.50	70.755
785.81	75.373
786.11	63.934
786.42	66.667
786.73	54.867
787.04	71.698
787.34	69.643
787.65	62.000
787.96	63.063
788.26	53.719
788.57	72.034
788.88	68.595
789.19	67.361
789.49	64.394
789.80	62.595
790.11	74.286
790.41	77.228
790.72	86.747
791.03	73.913
791.33	77.907
791.64	72.165
791.95	78.218
792.25	71.111
792.56	77.922
792.87	111.538
793.17	98.734
793.48	83.908
793.79	74.713
794.09	71.591
794.40	61.345
794.70	69.853
795.01	60.741
795.32	58.993
795.62	57.480
795.93	56.897
796.23	69.912
796.54	74.118
796.85	83.784
797.15	94.366
797.46	80.303
797.76	83.133
798.07	84.810
798.37	86.154
798.68	89.394
798.99	92.958
799.29	88.312
799.60	92.045
799.90	93.151
800.21	113.433
800.51	105.172
800.82	108.772
801.12	111.475
801.43	93.939
801.73	82.432
802.04	92.063
802.34	88.889
802.65	89.062
802.95	105.085
803.26	110.938
803.56	102.857
803.87	106.154
804.17	105.882
804.48	127.778
804.78	113.793
805.09	101.471
805.39	107.692
805.70	110.714
806.00	111.475
806.30	107.576
806.61	82.927
806.91	84.810
807.22	80.263
807.52	82.090
807.83	111.268
808.13	107.812
808.43	95.000
808.74	86.842
809.04	84.058
809.35	110.448
809.65	90.789
809.95	125.806
810.26	100.000
810.56	111.111
810.86	143.182
811.17	142.857
811.47	106.667
811.77	122.222
812.08	112.727
812.38	134.000
812.69	138.889
812.99	152.273
813.29	153.061
813.59	126.190
813.90	153.061
814.20	110.909
814.50	93.846
814.81	95.588
815.11	116.327
815.41	106.557
815.72	152.381
816.02	136.364
816.32	135.714
816.62	137.500
816.93	136.585
817.23	154.762
817.53	127.273
817.84	157.576
818.14	150.000
818.44	133.333
818.74	170.588
819.04	167.500
819.35	157.143
819.65	185.294
819.95	203.571
820.25	245.000
820.56	174.359
820.86	140.909
821.16	158.140
821.46	153.846
821.76	134.000
822.07	142.857
822.37	130.000
822.67	193.939
822.97	125.490
823.27	207.143
823.57	178.378
823.88	160.000
824.18	186.667
824.48	166.667
824.78	228.000
825.08	200.000
825.38	183.784
825.69	148.780
825.99	216.667
826.29	168.966
826.59	165.789
826.89	128.947
827.19	173.529
827.49	174.194
827.79	150.000
828.09	147.727
828.39	136.170
828.70	128.571
829.00	155.556
829.30	193.548
829.60	140.000
829.90	306.667
830.20	214.286
830.50	230.435
830.80	239.130
831.10	216.667
831.40	196.667
831.70	239.130
832.00	226.923
832.30	222.222
832.60	281.250
832.90	186.667
833.20	478.571
833.50	232.258
833.80	179.310
834.10	168.750
834.40	276.923
834.70	350.000
835.00	342.857
835.30	185.714
835.60	407.692
835.90	206.897
836.20	385.714
836.50	213.793
836.80	224.000
837.10	169.444
837.40	266.667
837.70	264.706
838.00	211.111
838.30	252.381
838.60	300.000
838.90	215.385
839.19	245.000
839.49	342.857
839.79	330.000
840.09	290.000
840.39	233.333
840.69	269.565
840.99	283.333
841.29	450.000
841.59	333.333
841.88	362.500
842.18	175.862
842.48	271.429
842.78	193.333
843.08	204.348
843.38	193.750
843.68	850.000
843.97	230.769
844.27	179.310
844.57	314.286
844.87	300.000
845.17	218.519
845.47	1600.000
845.76	488.889
846.06	364.706
846.36	537.500
846.66	350.000
846.96	325.000
847.25	472.727
847.55	463.636
847.85	226.087
848.15	570.000
848.44	378.571
848.74	283.333
849.04	335.294
849.34	610.000
849.63	221.053
849.93	527.273
850.23	1040.000
850.53	392.857
850.82	2350.000
851.12	-4000.000
851.42	4500.000
851.71	295.000
852.01	-1333.333
852.31	220.833
852.61	2033.333
852.90	271.429
853.20	248.000
853.50	323.529
853.79	280.952
854.09	225.000
854.39	325.000
854.68	167.568
854.98	196.774
855.28	176.667
855.57	206.897
855.87	207.407
856.17	252.632
856.46	293.333
856.76	329.412
857.05	182.759
857.35	245.833
857.65	386.667
857.94	252.174
858.24	253.846
858.53	300.000
858.83	281.818
859.13	373.333
859.42	0.000
859.72	611.111
860.01	472.727
860.31	290.909
860.60	326.316
860.90	252.174
861.20	577.778
861.49	508.333
861.79	-4800.000
862.08	687.500
862.38	280.952
862.67	415.385
862.97	364.706
863.26	611.111
863.56	300.000
863.85	416.667
864.15	487.500
864.44	393.333
864.74	900.000
865.03	725.000
865.33	294.737
865.62	418.182
865.92	415.385
866.21	383.333
866.51	0.000
866.80	463.636
867.10	1180.000
867.39	415.385
867.69	527.273
867.98	263.158
868.27	554.545
868.57	347.368
868.86	-5500.000
869.16	375.000
869.45	2800.000
869.75	-4100.000
870.04	358.333
870.33	657.143
870.63	1175.000
870.92	2600.000
871.22	842.857
871.51	317.647
871.80	252.381
872.10	371.429
>>>>>End Processed Spectral Data<<<<<
