SpectraSuite Data File
++++++++++++++++++++++++++++++++++++
Date: Wed May 13 19:54:14 PDT 2015
User: schluterlab
Dark Spectrum Present: Yes
Reference Spectrum Present: Yes
Number of Sampled Component Spectra: 1
Spectrometers: USB2E3373
Integration Time (usec): 3000 (USB2E3373)
Spectra Averaged: 3 (USB2E3373)
Boxcar Smoothing: 0 (USB2E3373)
Correct for Electrical Dark: No (USB2E3373)
Strobe/Lamp Enabled: No (USB2E3373)
Correct for Detector Non-linearity: No (USB2E3373)
Correct for Stray Light: No (USB2E3373)
Number of Pixels in Processed Spectrum: 2048
>>>>>Begin Processed Spectral Data<<<<<
178.53	0.000
178.91	-1225.000
179.29	-1675.000
179.67	-200.000
180.04	-1425.000
180.42	2550.000
180.80	940.000
181.18	-1125.000
181.56	628.571
181.94	0.000
182.31	-871.429
182.69	1700.000
183.07	-612.500
183.45	-511.111
183.83	536.364
184.20	-370.000
184.58	2350.000
184.96	5500.000
185.34	-820.000
185.72	-675.000
186.09	-2350.000
186.47	2750.000
186.85	2750.000
187.23	4200.000
187.61	-1666.667
187.98	1350.000
188.36	636.364
188.74	518.182
189.12	-940.000
189.49	620.000
189.87	-4900.000
190.25	-1175.000
190.63	371.429
191.00	438.462
191.38	883.333
191.76	-1250.000
192.14	1425.000
192.51	587.500
192.89	966.667
193.27	625.000
193.65	-975.000
194.02	480.000
194.40	920.000
194.78	640.000
195.15	583.333
195.53	570.000
195.91	-2150.000
196.29	318.750
196.66	347.368
197.04	-390.000
197.42	0.000
197.79	600.000
198.17	-4900.000
198.55	700.000
198.92	762.500
199.30	1120.000
199.68	0.000
200.05	333.333
200.43	814.286
200.81	5500.000
201.18	1600.000
201.56	-1766.667
201.94	622.222
202.31	766.667
202.69	458.333
203.07	580.000
203.44	0.000
203.82	1400.000
204.19	757.143
204.57	457.143
204.95	625.000
205.32	1533.333
205.70	472.727
206.08	428.571
206.45	2800.000
206.83	356.250
207.20	1133.333
207.58	1020.000
207.96	372.222
208.33	725.000
208.71	-866.667
209.08	871.429
209.46	600.000
209.84	545.455
210.21	-1633.333
210.59	1475.000
210.96	-475.000
211.34	2950.000
211.71	610.000
212.09	883.333
212.46	0.000
212.84	1766.667
213.22	1400.000
213.59	-5400.000
213.97	900.000
214.34	828.571
214.72	654.545
215.09	1200.000
215.47	-2400.000
215.84	-2400.000
216.22	1866.667
216.59	407.143
216.97	1325.000
217.34	572.727
217.72	-733.333
218.09	0.000
218.47	-6200.000
218.84	711.111
219.22	742.857
219.59	1866.667
219.97	-557.143
220.34	1040.000
220.72	-1733.333
221.09	364.286
221.47	1575.000
221.84	-900.000
222.22	0.000
222.59	1500.000
222.97	-2450.000
223.34	1200.000
223.72	392.308
224.09	1120.000
224.46	2850.000
224.84	-4600.000
225.21	-860.000
225.59	-4800.000
225.96	670.000
226.34	285.000
226.71	2850.000
227.08	737.500
227.46	600.000
227.83	-1225.000
228.21	-2500.000
228.58	611.111
228.95	-2800.000
229.33	-2550.000
229.70	1533.333
230.08	785.714
230.45	-1040.000
230.82	475.000
231.20	916.667
231.57	771.429
231.95	600.000
232.32	272.727
232.69	509.091
233.07	800.000
233.44	338.462
233.81	-1866.667
234.19	315.789
234.56	466.667
234.93	466.667
235.31	490.909
235.68	384.615
236.05	364.286
236.43	193.939
236.80	300.000
237.17	5100.000
237.55	266.667
237.92	225.000
238.29	261.905
238.67	193.548
239.04	237.931
239.41	180.556
239.79	128.261
240.16	150.000
240.53	159.091
240.91	115.686
241.28	156.000
241.65	126.000
242.02	105.797
242.40	109.677
242.77	108.333
243.14	83.871
243.51	74.157
243.89	88.235
244.26	78.889
244.63	75.269
245.00	87.234
245.38	79.208
245.75	84.112
246.12	70.642
246.49	77.372
246.87	83.200
247.24	66.154
247.61	62.143
247.98	61.438
248.36	58.784
248.73	64.331
249.10	63.694
249.47	59.322
249.84	62.032
250.22	50.802
250.59	57.396
250.96	61.616
251.33	56.398
251.70	61.386
252.08	54.762
252.45	47.982
252.82	48.261
253.19	52.340
253.56	46.667
253.94	51.867
254.31	46.875
254.68	50.385
255.05	48.339
255.42	49.187
255.79	47.059
256.16	46.931
256.54	43.110
256.91	46.975
257.28	43.525
257.65	46.205
258.02	45.031
258.39	43.218
258.76	44.482
259.14	43.155
259.51	43.161
259.88	44.410
260.25	42.900
260.62	41.040
260.99	40.683
261.36	43.844
261.73	41.834
262.10	45.349
262.47	42.254
262.85	41.226
263.22	39.316
263.59	42.450
263.96	42.033
264.33	42.559
264.70	39.474
265.07	40.153
265.44	40.657
265.81	37.956
266.18	44.724
266.55	39.512
266.92	39.803
267.29	41.204
267.66	38.303
268.03	38.409
268.40	35.280
268.77	39.141
269.14	36.937
269.51	39.729
269.88	41.492
270.25	36.569
270.62	37.753
270.99	38.710
271.36	39.270
271.73	36.449
272.10	41.087
272.47	40.000
272.84	37.013
273.21	38.784
273.58	38.428
273.95	34.382
274.32	36.777
274.69	36.403
275.06	35.630
275.43	40.000
275.80	36.473
276.17	36.864
276.54	36.590
276.91	37.352
277.28	35.352
277.65	35.977
278.02	36.853
278.39	38.672
278.76	36.182
279.13	37.547
279.50	35.754
279.87	37.849
280.23	35.529
280.60	35.397
280.97	35.120
281.34	35.752
281.71	36.727
282.08	36.852
282.45	35.818
282.82	33.925
283.19	32.620
283.56	36.316
283.92	35.364
284.29	35.273
284.66	33.757
285.03	33.454
285.40	34.683
285.77	35.017
286.14	32.642
286.51	34.167
286.87	34.359
287.24	31.433
287.61	34.029
287.98	31.169
288.35	32.805
288.72	30.218
289.08	33.959
289.45	30.807
289.82	30.894
290.19	29.670
290.56	30.934
290.93	28.097
291.29	31.902
291.66	31.563
292.03	30.233
292.40	32.159
292.77	30.325
293.13	27.612
293.50	29.300
293.87	28.889
294.24	28.741
294.60	27.656
294.97	29.215
295.34	28.632
295.71	28.409
296.08	27.208
296.44	27.098
296.81	25.627
297.18	27.913
297.55	26.121
297.91	25.726
298.28	29.987
298.65	27.023
299.02	27.009
299.38	25.764
299.75	25.202
300.12	26.437
300.48	26.625
300.85	26.264
301.22	25.350
301.59	25.505
301.95	25.441
302.32	26.059
302.69	25.209
303.05	24.848
303.42	22.716
303.79	25.595
304.15	23.543
304.52	25.261
304.89	24.274
305.25	23.202
305.62	24.575
305.99	23.731
306.35	23.378
306.72	24.103
307.09	24.639
307.45	25.113
307.82	24.219
308.19	24.503
308.55	22.222
308.92	24.060
309.29	23.231
309.65	23.118
310.02	23.784
310.38	24.301
310.75	23.231
311.12	23.849
311.48	22.048
311.85	23.480
312.22	24.246
312.58	22.037
312.95	23.548
313.31	21.456
313.68	23.493
314.05	23.964
314.41	23.518
314.78	22.659
315.14	23.932
315.51	24.614
315.87	24.554
316.24	23.436
316.61	24.366
316.97	23.973
317.34	23.973
317.70	25.430
318.07	24.062
318.43	25.832
318.80	25.305
319.16	25.895
319.53	25.235
319.89	26.667
320.26	27.500
320.62	27.679
320.99	28.485
321.35	27.576
321.72	27.618
322.08	29.220
322.45	28.358
322.81	29.845
323.18	29.961
323.54	29.777
323.91	30.566
324.27	29.828
324.64	29.171
325.00	30.298
325.37	32.211
325.73	33.214
326.10	33.716
326.46	33.513
326.83	35.289
327.19	35.354
327.56	35.627
327.92	36.920
328.29	37.445
328.65	37.017
329.01	37.996
329.38	37.558
329.74	37.765
330.11	40.528
330.47	40.588
330.84	41.085
331.20	40.073
331.56	41.009
331.93	39.074
332.29	40.195
332.66	42.389
333.02	41.133
333.38	42.005
333.75	43.226
334.11	42.794
334.48	42.502
334.84	44.026
335.20	41.455
335.57	41.886
335.93	42.321
336.29	42.674
336.66	43.733
337.02	42.081
337.38	43.426
337.75	44.474
338.11	44.584
338.47	45.580
338.84	45.555
339.20	43.670
339.56	45.894
339.93	45.545
340.29	44.203
340.65	44.474
341.02	43.979
341.38	43.950
341.74	44.123
342.11	46.812
342.47	46.079
342.83	44.435
343.20	45.368
343.56	44.903
343.92	45.263
344.28	45.663
344.65	47.463
345.01	44.781
345.37	44.511
345.73	45.685
346.10	46.974
346.46	46.610
346.82	45.717
347.19	46.199
347.55	46.716
347.91	46.278
348.27	46.672
348.63	45.401
349.00	45.712
349.36	46.059
349.72	45.389
350.08	46.272
350.45	48.576
350.81	46.141
351.17	47.164
351.53	46.765
351.89	46.865
352.26	45.383
352.62	46.672
352.98	46.029
353.34	47.083
353.70	47.463
354.07	46.210
354.43	45.952
354.79	45.615
355.15	47.965
355.51	47.482
355.87	48.000
356.24	47.883
356.60	47.233
356.96	48.431
357.32	47.506
357.68	47.874
358.04	48.456
358.40	47.427
358.77	47.809
359.13	46.961
359.49	48.471
359.85	48.254
360.21	48.963
360.57	50.350
360.93	49.538
361.29	48.073
361.66	49.613
362.02	48.881
362.38	50.114
362.74	49.256
363.10	48.409
363.46	48.349
363.82	49.887
364.18	48.018
364.54	51.189
364.90	49.929
365.26	49.044
365.62	50.913
365.98	49.598
366.35	49.499
366.71	51.048
367.07	51.857
367.43	51.451
367.79	53.105
368.15	52.730
368.51	49.419
368.87	51.963
369.23	53.036
369.59	50.471
369.95	51.765
370.31	52.137
370.67	51.594
371.03	53.558
371.39	53.134
371.75	53.309
372.11	52.703
372.47	54.179
372.83	54.179
373.19	53.035
373.55	54.989
373.91	55.228
374.27	53.746
374.63	55.127
374.99	54.520
375.35	53.873
375.71	54.901
376.07	55.693
376.42	56.121
376.78	55.268
377.14	55.902
377.50	55.695
377.86	55.053
378.22	55.563
378.58	55.201
378.94	56.191
379.30	55.980
379.66	56.980
380.02	56.941
380.38	56.891
380.74	57.503
381.09	57.396
381.45	58.636
381.81	57.371
382.17	58.471
382.53	58.239
382.89	58.086
383.25	58.599
383.61	60.285
383.97	59.975
384.32	59.077
384.68	60.533
385.04	59.680
385.40	59.009
385.76	60.074
386.12	60.881
386.48	61.485
386.83	62.284
387.19	62.400
387.55	61.039
387.91	61.245
388.27	61.312
388.62	62.323
388.98	61.057
389.34	62.516
389.70	61.557
390.06	64.385
390.42	63.359
390.77	63.359
391.13	64.965
391.49	64.277
391.85	63.845
392.20	64.669
392.56	64.331
392.92	65.215
393.28	64.201
393.64	64.928
393.99	64.386
394.35	64.392
394.71	65.558
395.07	64.735
395.42	67.614
395.78	65.394
396.14	66.294
396.50	68.609
396.85	67.578
397.21	67.324
397.57	66.460
397.92	67.188
398.28	66.984
398.64	66.965
399.00	68.271
399.35	68.923
399.71	68.576
400.07	68.598
400.42	69.387
400.78	69.723
401.14	69.146
401.49	70.209
401.85	68.905
402.21	69.222
402.57	71.129
402.92	71.375
403.28	70.643
403.63	70.483
403.99	71.911
404.35	70.182
404.70	71.643
405.06	71.229
405.42	72.427
405.77	72.171
406.13	71.332
406.49	72.265
406.84	72.475
407.20	73.227
407.55	74.729
407.91	75.333
408.27	73.963
408.62	73.751
408.98	76.225
409.34	75.523
409.69	75.226
410.05	74.845
410.40	75.413
410.76	75.627
411.11	74.367
411.47	75.655
411.83	75.504
412.18	76.129
412.54	77.771
412.89	76.325
413.25	77.981
413.60	79.123
413.96	75.106
414.31	77.217
414.67	77.883
415.03	79.272
415.38	78.351
415.74	78.971
416.09	80.862
416.45	80.522
416.80	79.511
417.16	81.099
417.51	81.619
417.87	80.604
418.22	80.757
418.58	81.666
418.93	81.020
419.29	82.432
419.64	81.738
420.00	82.683
420.35	82.029
420.71	82.606
421.06	82.339
421.42	82.515
421.77	82.848
422.12	83.099
422.48	81.543
422.83	84.100
423.19	84.365
423.54	84.214
423.90	85.739
424.25	84.366
424.61	83.929
424.96	85.656
425.31	85.050
425.67	84.719
426.02	84.400
426.38	86.813
426.73	85.606
427.09	86.748
427.44	85.164
427.79	87.752
428.15	86.905
428.50	86.717
428.85	87.485
429.21	88.404
429.56	87.766
429.92	87.871
430.27	87.388
430.62	87.199
430.98	87.753
431.33	86.598
431.68	88.743
432.04	87.380
432.39	90.006
432.74	89.228
433.10	90.492
433.45	91.370
433.80	90.355
434.16	89.476
434.51	88.684
434.86	91.220
435.22	90.050
435.57	92.158
435.92	91.164
436.28	91.993
436.63	90.232
436.98	91.299
437.34	91.532
437.69	91.832
438.04	91.737
438.39	93.433
438.75	92.737
439.10	92.793
439.45	92.503
439.81	92.749
440.16	92.490
440.51	93.439
440.86	94.325
441.22	92.492
441.57	93.365
441.92	93.398
442.27	92.949
442.63	91.627
442.98	93.746
443.33	91.304
443.68	91.998
444.03	93.216
444.39	93.379
444.74	92.532
445.09	94.663
445.44	93.494
445.79	93.667
446.15	90.789
446.50	93.915
446.85	92.960
447.20	92.759
447.55	95.812
447.91	95.312
448.26	95.326
448.61	94.178
448.96	96.179
449.31	95.501
449.66	93.416
450.02	94.318
450.37	94.218
450.72	94.303
451.07	94.211
451.42	93.191
451.77	95.302
452.12	94.515
452.47	94.403
452.83	96.445
453.18	94.132
453.53	96.908
453.88	96.633
454.23	94.561
454.58	97.032
454.93	98.411
455.28	96.010
455.63	96.359
455.98	97.917
456.34	96.482
456.69	97.495
457.04	97.214
457.39	95.850
457.74	96.286
458.09	94.710
458.44	96.465
458.79	95.065
459.14	94.752
459.49	96.322
459.84	95.845
460.19	94.991
460.54	92.419
460.89	95.173
461.24	96.053
461.59	95.933
461.94	95.931
462.29	95.905
462.64	95.405
462.99	94.535
463.34	96.600
463.69	96.185
464.04	95.478
464.39	94.377
464.74	94.949
465.09	95.416
465.44	95.125
465.79	95.078
466.14	92.775
466.49	95.050
466.84	94.046
467.19	93.844
467.54	96.125
467.89	94.658
468.24	95.288
468.59	96.825
468.94	94.502
469.29	96.594
469.64	97.456
469.99	98.106
470.34	97.952
470.68	96.695
471.03	96.259
471.38	97.637
471.73	97.002
472.08	97.368
472.43	95.101
472.78	96.379
473.13	96.341
473.48	95.880
473.83	96.341
474.17	94.711
474.52	97.146
474.87	96.848
475.22	94.660
475.57	94.412
475.92	95.751
476.27	93.856
476.61	94.815
476.96	95.327
477.31	96.965
477.66	98.031
478.01	93.413
478.36	95.928
478.70	95.483
479.05	96.219
479.40	94.882
479.75	95.679
480.10	96.521
480.45	94.288
480.79	93.263
481.14	94.912
481.49	95.064
481.84	93.690
482.19	94.866
482.53	93.349
482.88	94.556
483.23	94.486
483.58	93.676
483.92	94.049
484.27	91.895
484.62	93.664
484.97	92.550
485.31	94.315
485.66	90.757
486.01	87.915
486.36	85.337
486.70	84.901
487.05	85.769
487.40	88.023
487.75	89.732
488.09	90.294
488.44	90.827
488.79	93.092
489.13	93.583
489.48	93.067
489.83	93.440
490.17	94.301
490.52	92.604
490.87	94.256
491.22	93.861
491.56	91.572
491.91	93.113
492.26	93.983
492.60	92.535
492.95	92.984
493.30	92.196
493.64	93.000
493.99	92.108
494.34	93.340
494.68	93.590
495.03	93.750
495.37	92.415
495.72	94.688
496.07	94.200
496.41	91.416
496.76	92.568
497.11	91.535
497.45	93.805
497.80	93.378
498.14	93.285
498.49	92.878
498.84	93.864
499.18	91.905
499.53	93.590
499.87	92.544
500.22	91.145
500.56	93.981
500.91	91.779
501.26	92.319
501.60	93.640
501.95	90.742
502.29	92.924
502.64	91.899
502.98	92.099
503.33	90.219
503.67	90.534
504.02	92.095
504.36	92.045
504.71	92.868
505.06	90.795
505.40	91.298
505.75	90.405
506.09	90.719
506.44	92.847
506.78	92.207
507.13	93.640
507.47	91.465
507.82	91.287
508.16	92.655
508.51	94.876
508.85	91.509
509.19	93.367
509.54	90.714
509.88	92.221
510.23	93.213
510.57	93.189
510.92	92.284
511.26	92.395
511.61	90.560
511.95	90.188
512.30	91.994
512.64	93.444
512.98	93.837
513.33	92.987
513.67	91.942
514.02	91.126
514.36	93.119
514.70	92.031
515.05	92.192
515.39	92.709
515.74	91.554
516.08	92.957
516.42	93.507
516.77	92.363
517.11	91.842
517.46	92.946
517.80	94.541
518.14	92.588
518.49	94.282
518.83	91.534
519.17	91.628
519.52	91.907
519.86	92.356
520.20	92.081
520.55	95.272
520.89	94.100
521.23	93.426
521.58	92.617
521.92	93.999
522.26	92.556
522.61	94.455
522.95	91.590
523.29	93.609
523.64	92.500
523.98	94.763
524.32	90.893
524.66	92.724
525.01	90.257
525.35	91.264
525.69	90.456
526.04	92.710
526.38	93.899
526.72	90.184
527.06	93.974
527.41	91.027
527.75	93.762
528.09	91.843
528.43	92.033
528.78	91.703
529.12	88.970
529.46	91.549
529.80	91.894
530.15	90.654
530.49	89.169
530.83	90.886
531.17	92.232
531.51	93.450
531.86	91.097
532.20	91.395
532.54	91.095
532.88	91.913
533.22	89.194
533.57	89.568
533.91	88.922
534.25	90.097
534.59	89.262
534.93	87.924
535.27	88.473
535.62	89.438
535.96	91.274
536.30	88.239
536.64	89.247
536.98	91.705
537.32	89.862
537.66	90.800
538.01	88.216
538.35	89.334
538.69	90.172
539.03	88.564
539.37	88.371
539.71	86.585
540.05	87.516
540.39	90.033
540.73	87.387
541.07	88.189
541.42	89.824
541.76	89.161
542.10	87.840
542.44	88.477
542.78	87.484
543.12	85.733
543.46	86.885
543.80	87.638
544.14	87.291
544.48	86.921
544.82	86.466
545.16	87.573
545.50	86.568
545.84	87.298
546.18	85.993
546.52	88.300
546.86	88.385
547.20	86.784
547.54	86.039
547.88	86.033
548.22	84.932
548.56	85.094
548.90	84.635
549.24	87.407
549.58	86.153
549.92	87.294
550.26	88.920
550.60	86.169
550.94	87.535
551.28	87.710
551.62	87.922
551.96	85.263
552.30	85.119
552.64	85.328
552.98	86.576
553.32	83.884
553.66	86.230
554.00	86.685
554.34	84.403
554.68	86.123
555.02	85.261
555.36	85.247
555.69	84.574
556.03	84.388
556.37	84.789
556.71	84.925
557.05	82.773
557.39	83.065
557.73	84.827
558.07	87.092
558.41	86.469
558.75	85.084
559.08	86.353
559.42	87.680
559.76	84.926
560.10	84.582
560.44	83.997
560.78	82.102
561.12	82.322
561.45	82.073
561.79	80.686
562.13	83.166
562.47	83.743
562.81	83.543
563.15	81.405
563.48	83.024
563.82	83.496
564.16	82.014
564.50	82.031
564.84	81.985
565.17	80.373
565.51	81.597
565.85	81.789
566.19	79.712
566.52	82.584
566.86	79.747
567.20	80.483
567.54	81.050
567.88	78.870
568.21	78.466
568.55	77.048
568.89	76.411
569.23	75.178
569.56	74.332
569.90	74.981
570.24	72.443
570.57	72.492
570.91	71.429
571.25	71.402
571.59	70.722
571.92	71.342
572.26	70.537
572.60	70.541
572.93	70.225
573.27	70.660
573.61	69.933
573.95	69.302
574.28	68.920
574.62	68.294
574.96	67.575
575.29	67.823
575.63	67.632
575.97	68.316
576.30	68.189
576.64	68.031
576.98	67.574
577.31	67.652
577.65	67.405
577.98	66.727
578.32	65.747
578.66	66.289
578.99	66.811
579.33	67.611
579.67	66.456
580.00	66.459
580.34	67.608
580.67	66.533
581.01	66.697
581.35	66.762
581.68	66.096
582.02	65.244
582.35	65.407
582.69	65.473
583.02	65.579
583.36	66.428
583.70	66.608
584.03	66.066
584.37	66.877
584.70	67.137
585.04	66.316
585.37	65.541
585.71	65.249
586.04	64.967
586.38	66.484
586.72	67.550
587.05	65.607
587.39	65.884
587.72	66.014
588.06	66.329
588.39	66.392
588.73	65.562
589.06	67.467
589.40	67.340
589.73	68.567
590.07	67.794
590.40	67.008
590.73	68.267
591.07	68.864
591.40	68.368
591.74	69.610
592.07	68.455
592.41	67.631
592.74	66.629
593.08	65.889
593.41	66.055
593.75	64.741
594.08	65.337
594.41	65.960
594.75	66.359
595.08	66.034
595.42	65.744
595.75	65.028
596.09	66.466
596.42	67.112
596.75	67.201
597.09	67.013
597.42	65.767
597.75	66.796
598.09	65.739
598.42	65.851
598.76	65.707
599.09	64.576
599.42	64.010
599.76	64.202
600.09	64.408
600.42	63.988
600.76	63.607
601.09	64.627
601.42	63.775
601.76	64.516
602.09	64.111
602.42	64.411
602.76	65.095
603.09	65.146
603.42	65.638
603.76	63.720
604.09	63.474
604.42	64.859
604.76	65.331
605.09	64.002
605.42	64.729
605.75	64.859
606.09	64.050
606.42	63.997
606.75	63.584
607.09	63.709
607.42	63.286
607.75	63.038
608.08	63.309
608.42	64.186
608.75	63.706
609.08	63.090
609.41	63.589
609.75	63.221
610.08	64.232
610.41	63.501
610.74	65.468
611.07	64.723
611.41	64.573
611.74	64.806
612.07	64.855
612.40	65.740
612.73	65.368
613.07	65.409
613.40	64.982
613.73	64.657
614.06	65.215
614.39	62.979
614.72	63.474
615.06	64.496
615.39	63.800
615.72	61.810
616.05	62.786
616.38	64.703
616.71	66.271
617.05	66.784
617.38	64.823
617.71	66.426
618.04	65.685
618.37	63.868
618.70	66.521
619.03	66.118
619.36	65.648
619.69	67.183
620.03	67.514
620.36	66.176
620.69	66.164
621.02	67.035
621.35	67.110
621.68	67.290
622.01	66.950
622.34	66.944
622.67	66.920
623.00	65.224
623.33	63.974
623.66	65.189
623.99	66.642
624.32	65.478
624.65	65.749
624.99	65.439
625.32	66.329
625.65	66.191
625.98	67.179
626.31	67.574
626.64	67.755
626.97	68.745
627.30	67.914
627.63	66.366
627.96	67.704
628.29	68.766
628.62	68.435
628.95	70.189
629.28	68.157
629.61	70.027
629.94	71.143
630.26	69.113
630.59	69.781
630.92	69.253
631.25	69.398
631.58	67.367
631.91	70.284
632.24	70.042
632.57	69.150
632.90	71.820
633.23	70.582
633.56	73.333
633.89	70.781
634.22	71.396
634.55	73.609
634.88	71.018
635.20	71.565
635.53	71.687
635.86	74.134
636.19	70.471
636.52	69.781
636.85	70.561
637.18	67.051
637.51	70.449
637.83	70.777
638.16	73.146
638.49	72.670
638.82	73.325
639.15	71.000
639.48	70.574
639.81	74.799
640.13	70.833
640.46	70.470
640.79	71.070
641.12	67.400
641.45	72.207
641.77	75.994
642.10	72.222
642.43	70.270
642.76	74.613
643.09	74.540
643.41	71.017
643.74	72.222
644.07	73.476
644.40	73.773
644.73	75.906
645.05	74.960
645.38	73.934
645.71	72.625
646.04	75.581
646.36	76.962
646.69	73.244
647.02	75.340
647.35	78.007
647.67	78.407
648.00	74.959
648.33	71.452
648.66	70.758
648.98	71.964
649.31	69.955
649.64	71.898
649.96	70.343
650.29	70.300
650.62	71.521
650.94	70.989
651.27	75.676
651.60	74.875
651.92	69.329
652.25	71.173
652.58	71.651
652.90	71.248
653.23	66.872
653.56	69.449
653.88	69.889
654.21	68.246
654.54	71.947
654.86	70.093
655.19	66.351
655.52	48.237
655.84	43.327
656.17	55.778
656.49	74.272
656.82	75.369
657.15	56.666
657.47	42.201
657.80	32.844
658.13	33.477
658.45	50.000
658.78	50.318
659.10	51.718
659.43	54.357
659.75	56.230
660.08	59.304
660.41	66.201
660.73	70.267
661.06	71.497
661.38	76.182
661.71	70.769
662.03	72.978
662.36	69.781
662.68	73.494
663.01	71.717
663.33	73.461
663.66	73.529
663.98	76.458
664.31	74.580
664.63	70.445
664.96	70.423
665.28	74.795
665.61	71.540
665.93	69.215
666.26	74.037
666.58	72.594
666.91	75.899
667.23	75.056
667.56	72.354
667.88	71.581
668.21	74.200
668.53	73.536
668.86	72.078
669.18	72.921
669.50	70.000
669.83	77.778
670.15	74.667
670.48	71.024
670.80	72.198
671.13	72.611
671.45	71.915
671.77	73.523
672.10	68.946
672.42	65.194
672.75	65.672
673.07	66.549
673.39	67.450
673.72	69.141
674.04	69.216
674.37	64.660
674.69	73.211
675.01	69.456
675.34	70.226
675.66	70.737
675.98	70.265
676.31	70.588
676.63	72.399
676.95	72.117
677.28	73.364
677.60	70.330
677.92	72.574
678.25	67.556
678.57	69.323
678.89	68.938
679.22	66.012
679.54	66.603
679.86	66.055
680.18	61.717
680.51	65.780
680.83	62.278
681.15	66.415
681.48	66.730
681.80	66.731
682.12	67.241
682.44	63.250
682.77	67.210
683.09	69.313
683.41	72.949
683.73	71.082
684.06	67.769
684.38	63.014
684.70	64.535
685.02	64.540
685.34	64.469
685.67	61.364
685.99	60.825
686.31	61.433
686.63	62.544
686.96	62.500
687.28	61.552
687.60	63.587
687.92	63.254
688.24	63.118
688.56	66.265
688.89	65.975
689.21	68.559
689.53	64.301
689.85	68.071
690.17	61.698
690.49	66.030
690.82	68.925
691.14	63.839
691.46	63.502
691.78	64.659
692.10	65.496
692.42	61.677
692.74	64.938
693.06	63.191
693.39	63.039
693.71	62.664
694.03	65.474
694.35	64.286
694.67	61.327
694.99	67.317
695.31	67.157
695.63	64.833
695.95	67.726
696.27	66.751
696.59	67.876
696.91	68.394
697.23	60.094
697.56	65.885
697.88	61.350
698.20	61.875
698.52	63.656
698.84	64.811
699.16	63.364
699.48	62.945
699.80	66.908
700.12	70.390
700.44	69.496
700.76	70.166
701.08	71.839
701.40	65.084
701.72	72.012
702.04	72.727
702.36	60.907
702.68	69.405
703.00	66.759
703.32	66.223
703.64	66.488
703.96	68.802
704.28	67.733
704.60	72.727
704.91	68.249
705.23	66.276
705.55	76.080
705.87	72.757
706.19	74.558
706.51	68.847
706.83	67.879
707.15	69.748
707.47	63.131
707.79	65.356
708.11	61.187
708.43	62.381
708.74	64.796
709.06	65.195
709.38	65.617
709.70	68.023
710.02	72.997
710.34	67.273
710.66	69.254
710.98	65.909
711.29	63.081
711.61	71.091
711.93	65.705
712.25	75.563
712.57	73.529
712.89	69.204
713.20	66.869
713.52	74.671
713.84	64.873
714.16	66.463
714.48	62.644
714.80	70.821
715.11	65.418
715.43	64.688
715.75	62.609
716.07	68.051
716.39	64.890
716.70	68.771
717.02	66.906
717.34	69.258
717.66	71.642
717.97	70.916
718.29	64.444
718.61	68.978
718.93	75.000
719.24	66.436
719.56	60.000
719.88	67.797
720.20	70.946
720.51	68.990
720.83	67.658
721.15	70.896
721.46	67.376
721.78	70.251
722.10	70.566
722.42	70.301
722.73	63.670
723.05	77.049
723.37	72.065
723.68	71.042
724.00	72.358
724.32	75.000
724.63	74.797
724.95	69.456
725.27	75.304
725.58	71.484
725.90	68.978
726.22	68.302
726.53	68.056
726.85	64.846
727.16	64.769
727.48	67.376
727.80	68.182
728.11	66.667
728.43	68.077
728.74	67.025
729.06	69.343
729.38	70.221
729.69	65.836
730.01	60.751
730.32	64.583
730.64	62.207
730.96	64.356
731.27	65.894
731.59	59.633
731.90	58.017
732.22	60.559
732.53	62.539
732.85	60.577
733.16	60.772
733.48	60.797
733.80	58.766
734.11	62.102
734.43	58.284
734.74	59.714
735.06	57.880
735.37	62.428
735.69	60.191
736.00	62.745
736.32	63.863
736.63	59.744
736.95	59.744
737.26	57.483
737.58	60.323
737.89	63.880
738.21	60.068
738.52	63.929
738.83	59.245
739.15	64.615
739.46	65.693
739.78	64.931
740.09	56.923
740.41	62.903
740.72	60.976
741.04	62.593
741.35	63.333
741.66	71.556
741.98	66.981
742.29	73.684
742.61	73.276
742.92	66.063
743.23	67.094
743.55	67.600
743.86	69.298
744.18	70.354
744.49	73.684
744.80	73.709
745.12	67.727
745.43	67.841
745.74	73.423
746.06	72.477
746.37	71.300
746.68	65.158
747.00	73.611
747.31	72.857
747.62	69.912
747.94	68.282
748.25	66.383
748.56	73.128
748.88	66.337
749.19	80.500
749.50	71.163
749.82	60.976
750.13	61.633
750.44	61.314
750.75	61.404
751.07	63.666
751.38	59.582
751.69	63.538
752.01	65.789
752.32	62.094
752.63	62.766
752.94	65.984
753.26	70.000
753.57	61.382
753.88	68.750
754.19	63.571
754.51	60.069
754.82	59.928
755.13	59.623
755.44	59.774
755.75	66.058
756.07	58.156
756.38	62.774
756.69	58.389
757.00	56.886
757.31	58.754
757.63	53.509
757.94	50.938
758.25	51.225
758.56	51.605
758.87	54.839
759.18	57.576
759.50	57.994
759.81	58.879
760.12	55.625
760.43	57.593
760.74	54.620
761.05	55.650
761.36	54.545
761.67	51.705
761.99	58.075
762.30	60.069
762.61	62.595
762.92	61.719
763.23	64.706
763.54	62.000
763.85	59.375
764.16	63.462
764.47	60.076
764.78	60.424
765.10	53.165
765.41	53.687
765.72	53.593
766.03	56.113
766.34	56.667
766.65	65.532
766.96	65.385
767.27	77.157
767.58	71.875
767.89	76.316
768.20	74.713
768.51	64.975
768.82	67.890
769.13	57.724
769.44	58.704
769.75	63.948
770.06	57.798
770.37	65.158
770.68	65.741
770.99	61.778
771.30	53.279
771.61	65.022
771.92	62.705
772.23	63.866
772.54	69.231
772.85	67.539
773.16	71.809
773.47	71.196
773.78	69.543
774.09	64.881
774.39	78.363
774.70	70.988
775.01	74.638
775.32	79.739
775.63	76.316
775.94	78.417
776.25	86.614
776.56	82.836
776.87	90.984
777.18	74.219
777.48	87.023
777.79	78.030
778.10	74.815
778.41	90.179
778.72	75.912
779.03	67.114
779.34	74.497
779.65	74.324
779.95	76.687
780.26	82.353
780.57	78.621
780.88	83.594
781.19	79.699
781.50	75.676
781.80	79.245
782.11	65.537
782.42	75.316
782.73	75.460
783.04	72.297
783.34	78.873
783.65	86.986
783.96	82.090
784.27	67.832
784.57	71.223
784.88	84.259
785.19	75.397
785.50	92.453
785.81	80.597
786.11	89.344
786.42	82.171
786.73	81.416
787.04	86.792
787.34	90.179
787.65	96.000
787.96	88.288
788.26	83.471
788.57	91.525
788.88	86.777
789.19	77.778
789.49	83.333
789.80	77.863
790.11	99.048
790.41	106.931
790.72	113.253
791.03	96.739
791.33	108.140
791.64	86.598
791.95	83.168
792.25	94.444
792.56	105.195
792.87	117.949
793.17	112.658
793.48	108.046
793.79	103.448
794.09	98.864
794.40	88.235
794.70	84.559
795.01	71.852
795.32	67.626
795.62	77.165
795.93	88.793
796.23	81.416
796.54	96.471
796.85	97.297
797.15	125.352
797.46	122.727
797.76	104.819
798.07	110.127
798.37	115.385
798.68	115.152
798.99	118.310
799.29	97.403
799.60	94.318
799.90	120.548
800.21	101.493
800.51	113.793
800.82	138.596
801.12	124.590
801.43	121.212
801.73	102.703
802.04	149.206
802.34	113.580
802.65	121.875
802.95	125.424
803.26	143.750
803.56	111.429
803.87	121.538
804.17	116.176
804.48	153.704
804.78	127.586
805.09	122.059
805.39	142.308
805.70	121.429
806.00	116.393
806.30	107.576
806.61	84.146
806.91	94.937
807.22	96.053
807.52	101.493
807.83	129.577
808.13	121.875
808.43	120.000
808.74	92.105
809.04	120.290
809.35	122.388
809.65	98.684
809.95	135.484
810.26	120.339
810.56	128.571
810.86	181.818
811.17	169.048
811.47	125.000
811.77	137.037
812.08	125.455
812.38	134.000
812.69	205.556
812.99	200.000
813.29	157.143
813.59	128.571
813.90	165.306
814.20	118.182
814.50	116.923
814.81	119.118
815.11	134.694
815.41	118.033
815.72	157.143
816.02	134.545
816.32	171.429
816.62	155.000
816.93	173.171
817.23	161.905
817.53	175.000
817.84	212.121
818.14	143.478
818.44	155.556
818.74	205.882
819.04	157.500
819.35	168.571
819.65	191.176
819.95	196.429
820.25	260.000
820.56	194.872
820.86	177.273
821.16	172.093
821.46	184.615
821.76	144.000
822.07	197.143
822.37	165.000
822.67	209.091
822.97	123.529
823.27	210.714
823.57	172.973
823.88	195.000
824.18	200.000
824.48	178.571
824.78	268.000
825.08	245.833
825.38	191.892
825.69	163.415
825.99	266.667
826.29	168.966
826.59	221.053
826.89	171.053
827.19	197.059
827.49	200.000
827.79	170.455
828.09	163.636
828.39	151.064
828.70	151.020
829.00	207.407
829.30	200.000
829.60	170.000
829.90	346.667
830.20	228.571
830.50	256.522
830.80	234.783
831.10	226.667
831.40	230.000
831.70	234.783
832.00	246.154
832.30	200.000
832.60	350.000
832.90	243.333
833.20	478.571
833.50	209.677
833.80	210.345
834.10	212.500
834.40	246.154
834.70	377.778
835.00	385.714
835.30	205.714
835.60	361.538
835.90	213.793
836.20	321.429
836.50	186.207
836.80	232.000
837.10	208.333
837.40	261.905
837.70	364.706
838.00	229.630
838.30	266.667
838.60	323.810
838.90	288.462
839.19	325.000
839.49	435.714
839.79	280.000
840.09	285.000
840.39	271.429
840.69	269.565
840.99	305.556
841.29	560.000
841.59	308.333
841.88	406.250
842.18	200.000
842.48	319.048
842.78	223.333
843.08	282.609
843.38	196.875
843.68	1033.333
843.97	276.923
844.27	258.621
844.57	314.286
844.87	412.500
845.17	211.111
845.47	2100.000
845.76	477.778
846.06	335.294
846.36	512.500
846.66	450.000
846.96	350.000
847.25	490.909
847.55	500.000
847.85	295.652
848.15	610.000
848.44	378.571
848.74	316.667
849.04	323.529
849.34	660.000
849.63	278.947
849.93	518.182
850.23	1140.000
850.53	421.429
850.82	2250.000
851.12	-4500.000
851.42	5000.000
851.71	350.000
852.01	-1533.333
852.31	241.667
852.61	1700.000
852.90	252.381
853.20	256.000
853.50	329.412
853.79	285.714
854.09	250.000
854.39	393.750
854.68	202.703
854.98	200.000
855.28	213.333
855.57	217.241
855.87	218.519
856.17	278.947
856.46	313.333
856.76	335.294
857.05	234.483
857.35	275.000
857.65	333.333
857.94	243.478
858.24	246.154
858.53	325.000
858.83	277.273
859.13	386.667
859.42	0.000
859.72	633.333
860.01	436.364
860.31	277.273
860.60	321.053
860.90	260.870
861.20	611.111
861.49	525.000
861.79	-5000.000
862.08	737.500
862.38	333.333
862.67	353.846
862.97	364.706
863.26	555.556
863.56	272.222
863.85	516.667
864.15	587.500
864.44	426.667
864.74	900.000
865.03	700.000
865.33	331.579
865.62	500.000
865.92	507.692
866.21	408.333
866.51	0.000
866.80	572.727
867.10	1200.000
867.39	446.154
867.69	490.909
867.98	305.263
868.27	581.818
868.57	342.105
868.86	-5000.000
869.16	418.750
869.45	2450.000
869.75	-5500.000
870.04	450.000
870.33	728.571
870.63	975.000
870.92	2650.000
871.22	814.286
871.51	305.882
871.80	242.857
872.10	378.571
>>>>>End Processed Spectral Data<<<<<
