SpectraSuite Data File
++++++++++++++++++++++++++++++++++++
Date: Wed May 13 19:17:35 PDT 2015
User: schluterlab
Dark Spectrum Present: Yes
Reference Spectrum Present: Yes
Number of Sampled Component Spectra: 1
Spectrometers: USB2E3373
Integration Time (usec): 3000 (USB2E3373)
Spectra Averaged: 3 (USB2E3373)
Boxcar Smoothing: 0 (USB2E3373)
Correct for Electrical Dark: No (USB2E3373)
Strobe/Lamp Enabled: No (USB2E3373)
Correct for Detector Non-linearity: No (USB2E3373)
Correct for Stray Light: No (USB2E3373)
Number of Pixels in Processed Spectrum: 2048
>>>>>Begin Processed Spectral Data<<<<<
178.53	0.000
178.91	-1200.000
179.29	-1350.000
179.67	-288.889
180.04	-1425.000
180.42	2600.000
180.80	1240.000
181.18	-1325.000
181.56	842.857
181.94	0.000
182.31	-900.000
182.69	1833.333
183.07	-612.500
183.45	-655.556
183.83	600.000
184.20	-420.000
184.58	2800.000
184.96	5400.000
185.34	-900.000
185.72	-687.500
186.09	-2450.000
186.47	2650.000
186.85	2550.000
187.23	5000.000
187.61	-2000.000
187.98	1275.000
188.36	554.545
188.74	572.727
189.12	-1020.000
189.49	690.000
189.87	-5100.000
190.25	-1450.000
190.63	435.714
191.00	415.385
191.38	1016.667
191.76	-1300.000
192.14	1475.000
192.51	587.500
192.89	1066.667
193.27	712.500
193.65	-1400.000
194.02	640.000
194.40	1040.000
194.78	580.000
195.15	558.333
195.53	710.000
195.91	-2400.000
196.29	356.250
196.66	368.421
197.04	-440.000
197.42	0.000
197.79	620.000
198.17	-5000.000
198.55	757.143
198.92	837.500
199.30	940.000
199.68	0.000
200.05	388.889
200.43	942.857
200.81	5800.000
201.18	1666.667
201.56	-1933.333
201.94	633.333
202.31	633.333
202.69	466.667
203.07	580.000
203.44	0.000
203.82	1400.000
204.19	1014.286
204.57	485.714
204.95	775.000
205.32	2033.333
205.70	754.545
206.08	450.000
206.45	3100.000
206.83	375.000
207.20	1150.000
207.58	1020.000
207.96	366.667
208.33	862.500
208.71	-966.667
209.08	971.429
209.46	766.667
209.84	527.273
210.21	-1666.667
210.59	1675.000
210.96	-562.500
211.34	2750.000
211.71	610.000
212.09	1150.000
212.46	0.000
212.84	2133.333
213.22	1675.000
213.59	-6000.000
213.97	883.333
214.34	928.571
214.72	636.364
215.09	1260.000
215.47	-3550.000
215.84	-2550.000
216.22	2200.000
216.59	514.286
216.97	1550.000
217.34	536.364
217.72	-883.333
218.09	0.000
218.47	-6100.000
218.84	688.889
219.22	928.571
219.59	1733.333
219.97	-714.286
220.34	1160.000
220.72	-2100.000
221.09	485.714
221.47	1750.000
221.84	-1100.000
222.22	0.000
222.59	1500.000
222.97	-3250.000
223.34	1380.000
223.72	461.538
224.09	1140.000
224.46	2500.000
224.84	-5700.000
225.21	-1140.000
225.59	-6000.000
225.96	610.000
226.34	305.000
226.71	2900.000
227.08	800.000
227.46	650.000
227.83	-1175.000
228.21	-2850.000
228.58	744.444
228.95	-2850.000
229.33	-2350.000
229.70	2366.667
230.08	871.429
230.45	-1020.000
230.82	516.667
231.20	833.333
231.57	885.714
231.95	533.333
232.32	277.273
232.69	472.727
233.07	971.429
233.44	400.000
233.81	-2066.667
234.19	310.526
234.56	608.333
234.93	500.000
235.31	527.273
235.68	446.154
236.05	478.571
236.43	215.152
236.80	289.474
237.17	6800.000
237.55	338.095
237.92	264.286
238.29	300.000
238.67	219.355
239.04	275.862
239.41	200.000
239.79	169.565
240.16	185.714
240.53	170.455
240.91	137.255
241.28	156.000
241.65	162.000
242.02	137.681
242.40	135.484
242.77	136.667
243.14	107.527
243.51	117.978
243.89	121.176
244.26	100.000
244.63	108.602
245.00	111.702
245.38	122.772
245.75	95.327
246.12	96.330
246.49	87.591
246.87	108.000
247.24	92.308
247.61	90.000
247.98	92.810
248.36	85.135
248.73	88.535
249.10	87.261
249.47	83.051
249.84	84.492
250.22	75.936
250.59	85.799
250.96	83.838
251.33	81.991
251.70	84.653
252.08	81.905
252.45	76.682
252.82	77.826
253.19	73.617
253.56	72.549
253.94	75.519
254.31	71.094
254.68	73.846
255.05	73.063
255.42	76.829
255.79	70.221
256.16	74.729
256.54	67.138
256.91	69.039
257.28	66.906
257.65	70.297
258.02	67.391
258.39	68.454
258.76	68.562
259.14	69.643
259.51	65.957
259.88	64.596
260.25	69.486
260.62	67.341
260.99	68.944
261.36	69.069
261.73	68.481
262.10	66.860
262.47	66.479
262.85	67.688
263.22	60.399
263.59	65.527
263.96	62.912
264.33	61.619
264.70	62.632
265.07	66.496
265.44	64.899
265.81	58.881
266.18	67.839
266.55	64.634
266.92	63.391
267.29	65.509
267.66	62.156
268.03	58.636
268.40	62.617
268.77	59.189
269.14	61.036
269.51	60.045
269.88	63.403
270.25	62.980
270.62	59.326
270.99	59.140
271.36	58.798
271.73	60.280
272.10	60.870
272.47	62.796
272.84	56.277
273.21	59.748
273.58	61.135
273.95	56.813
274.32	56.198
274.69	59.529
275.06	57.874
275.43	59.574
275.80	59.118
276.17	60.285
276.54	60.291
276.91	58.893
277.28	55.078
277.65	56.093
278.02	59.213
278.39	58.398
278.76	58.909
279.13	58.113
279.50	56.052
279.87	58.167
280.23	56.886
280.60	58.607
280.97	57.856
281.34	57.699
281.71	55.455
282.08	60.845
282.45	55.091
282.82	54.707
283.19	53.476
283.56	54.912
283.92	53.976
284.29	55.908
284.66	56.624
285.03	52.803
285.40	55.810
285.77	56.397
286.14	53.541
286.51	53.333
286.87	52.308
287.24	55.212
287.61	53.933
287.98	55.357
288.35	53.090
288.72	51.869
289.08	51.956
289.45	52.224
289.82	51.382
290.19	49.922
290.56	49.617
290.93	50.755
291.29	52.454
291.66	50.885
292.03	50.872
292.40	50.220
292.77	48.817
293.13	49.552
293.50	50.729
293.87	49.778
294.24	48.593
294.60	48.326
294.97	47.384
295.34	48.519
295.71	48.011
296.08	48.006
296.44	47.318
296.81	46.235
297.18	47.696
297.55	46.042
297.91	45.910
298.28	48.327
298.65	46.606
299.02	47.167
299.38	45.950
299.75	45.822
300.12	46.105
300.48	45.000
300.85	45.376
301.22	46.624
301.59	45.328
301.95	45.844
302.32	44.801
302.69	44.564
303.05	43.636
303.42	44.444
303.79	43.828
304.15	43.357
304.52	43.801
304.89	45.296
305.25	43.852
305.62	42.922
305.99	44.864
306.35	43.400
306.72	45.291
307.09	43.285
307.45	44.820
307.82	42.746
308.19	43.267
308.55	44.121
308.92	42.965
309.29	41.816
309.65	42.206
310.02	42.812
310.38	43.441
310.75	44.773
311.12	43.501
311.48	44.932
311.85	44.549
312.22	43.913
312.58	43.867
312.95	45.090
313.31	44.951
313.68	45.842
314.05	45.661
314.41	45.930
314.78	45.720
315.14	44.786
315.51	46.550
315.87	46.535
316.24	45.978
316.61	45.517
316.97	46.086
317.34	46.967
317.70	48.184
318.07	48.893
318.43	48.532
318.80	49.766
319.16	49.247
319.53	47.936
319.89	51.333
320.26	52.300
320.62	51.290
320.99	52.323
321.35	51.212
321.72	52.259
322.08	53.307
322.45	53.930
322.81	55.523
323.18	54.721
323.54	54.545
323.91	55.943
324.27	56.023
324.64	57.316
325.00	56.808
325.37	59.145
325.73	59.964
326.10	58.429
326.46	60.036
326.83	62.468
327.19	61.998
327.56	63.066
327.92	62.380
328.29	63.620
328.65	67.127
329.01	66.155
329.38	65.865
329.74	67.036
330.11	66.635
330.47	67.401
330.84	66.544
331.20	66.211
331.56	67.798
331.93	69.074
332.29	66.016
332.66	66.460
333.02	66.088
333.38	67.389
333.75	69.964
334.11	68.683
334.48	67.169
334.84	68.842
335.20	68.000
335.57	68.450
335.93	66.250
336.29	67.949
336.66	68.079
337.02	68.326
337.38	69.352
337.75	68.538
338.11	68.039
338.47	69.705
338.84	68.836
339.20	68.532
339.56	69.891
339.93	70.091
340.29	69.475
340.65	69.073
341.02	68.935
341.38	69.128
341.74	69.561
342.11	69.170
342.47	70.220
342.83	69.692
343.20	69.351
343.56	68.324
343.92	69.912
344.28	68.963
344.65	70.077
345.01	68.350
345.37	67.324
345.73	70.135
346.10	70.247
346.46	70.932
346.82	69.440
347.19	69.758
347.55	67.734
347.91	69.417
348.27	69.515
348.63	69.732
349.00	68.447
349.36	70.361
349.72	69.046
350.08	68.882
350.45	71.440
350.81	69.374
351.17	69.773
351.53	69.697
351.89	69.472
352.26	70.245
352.62	70.810
352.98	69.449
353.34	70.173
353.70	69.640
354.07	69.758
354.43	69.921
354.79	68.222
355.15	70.870
355.51	70.903
355.87	71.510
356.24	70.928
356.60	68.885
356.96	72.003
357.32	70.809
357.68	70.236
358.04	69.517
358.40	70.230
358.77	68.545
359.13	70.087
359.49	69.412
359.85	70.714
360.21	70.973
360.57	71.907
360.93	71.615
361.29	70.068
361.66	70.046
362.02	68.582
362.38	71.559
362.74	69.717
363.10	69.578
363.46	70.066
363.82	71.429
364.18	72.173
364.54	71.768
364.90	71.176
365.26	71.912
365.62	71.731
365.98	70.343
366.35	70.559
366.71	72.017
367.07	72.688
367.43	73.512
367.79	73.519
368.15	72.989
368.51	71.148
368.87	73.305
369.23	72.568
369.59	73.570
369.95	73.162
370.31	71.937
370.67	73.188
371.03	74.157
371.39	73.688
371.75	74.485
372.11	72.831
372.47	76.026
372.83	75.216
373.19	74.133
373.55	75.979
373.91	76.436
374.27	73.471
374.63	76.218
374.99	74.364
375.35	74.669
375.71	74.297
376.07	75.309
376.42	75.378
376.78	76.474
377.14	76.459
377.50	76.755
377.86	74.867
378.22	76.422
378.58	75.063
378.94	75.927
379.30	76.081
379.66	78.553
380.02	76.290
380.38	75.956
380.74	77.431
381.09	76.650
381.45	78.427
381.81	77.580
382.17	78.726
382.53	78.176
382.89	79.321
383.25	78.737
383.61	79.368
383.97	78.799
384.32	77.792
384.68	77.819
385.04	78.980
385.40	78.452
385.76	79.054
386.12	79.275
386.48	80.680
386.83	81.334
387.19	81.385
387.55	79.901
387.91	81.016
388.27	78.847
388.62	80.824
388.98	80.590
389.34	80.413
389.70	80.441
390.06	80.862
390.42	80.674
390.77	80.089
391.13	83.216
391.49	81.091
391.85	80.840
392.20	80.883
392.56	82.260
392.92	80.989
393.28	79.527
393.64	82.194
393.99	79.902
394.35	81.824
394.71	81.870
395.07	80.062
395.42	82.386
395.78	81.616
396.14	80.944
396.50	81.266
396.85	83.026
397.21	81.751
397.57	80.471
397.92	82.212
398.28	81.334
398.64	81.004
399.00	80.582
399.35	80.147
399.71	81.250
400.07	80.071
400.42	81.472
400.78	81.604
401.14	81.768
401.49	81.612
401.85	81.186
402.21	80.599
402.57	81.123
402.92	83.102
403.28	81.886
403.63	81.188
403.99	82.357
404.35	80.242
404.70	81.775
405.06	80.547
405.42	81.285
405.77	81.086
406.13	80.079
406.49	81.076
406.84	80.449
407.20	81.028
407.55	82.004
407.91	84.133
408.27	81.940
408.62	81.397
408.98	81.189
409.34	81.304
409.69	82.323
410.05	80.173
410.40	80.000
410.76	79.749
411.11	79.373
411.47	79.681
411.83	81.307
412.18	80.210
412.54	81.569
412.89	80.181
413.25	80.342
413.60	80.976
413.96	78.992
414.31	79.587
414.67	80.608
415.03	80.199
415.38	80.219
415.74	79.743
416.09	82.364
416.45	80.120
416.80	80.767
417.16	81.635
417.51	82.216
417.87	79.769
418.22	81.009
418.58	80.116
418.93	80.835
419.29	80.395
419.64	81.297
420.00	79.573
420.35	79.536
420.71	79.916
421.06	79.654
421.42	80.526
421.77	79.765
422.12	79.057
422.48	79.169
422.83	79.965
423.19	80.773
423.54	81.254
423.90	79.420
424.25	79.509
424.61	79.107
424.96	80.583
425.31	78.848
425.67	77.865
426.02	78.800
426.38	81.197
426.73	78.935
427.09	81.459
427.44	80.679
427.79	80.104
428.15	79.881
428.50	79.462
428.85	80.215
429.21	80.342
429.56	79.108
429.92	78.007
430.27	77.905
430.62	77.778
430.98	78.412
431.33	77.938
431.68	78.325
432.04	76.092
432.39	79.555
432.74	80.371
433.10	80.419
433.45	79.417
433.80	78.492
434.16	78.739
434.51	78.263
434.86	80.274
435.22	79.989
435.57	80.486
435.92	80.690
436.28	81.020
436.63	80.353
436.98	77.962
437.34	80.441
437.69	80.397
438.04	81.225
438.39	81.373
438.75	80.767
439.10	80.894
439.45	79.103
439.81	79.577
440.16	79.277
440.51	80.434
440.86	80.718
441.22	80.367
441.57	78.822
441.92	79.376
442.27	80.409
442.63	78.989
442.98	81.070
443.33	79.348
443.68	79.608
444.03	79.697
444.39	79.163
444.74	80.249
445.09	79.191
445.44	79.278
445.79	79.416
446.15	78.613
446.50	80.129
446.85	79.291
447.20	80.010
447.55	81.184
447.91	81.908
448.26	79.521
448.61	79.650
448.96	79.623
449.31	81.665
449.66	80.191
450.02	80.836
450.37	80.612
450.72	81.275
451.07	80.134
451.42	77.143
451.77	79.213
452.12	79.619
452.47	80.908
452.83	82.226
453.18	80.196
453.53	81.200
453.88	80.981
454.23	79.976
454.58	80.194
454.93	81.310
455.28	79.925
455.63	81.311
455.98	83.214
456.34	80.025
456.69	81.152
457.04	80.186
457.39	79.719
457.74	79.106
458.09	78.723
458.44	79.932
458.79	78.471
459.14	81.208
459.49	79.276
459.84	79.778
460.19	79.670
460.54	77.141
460.89	80.307
461.24	80.631
461.59	79.779
461.94	79.716
462.29	80.178
462.64	79.706
462.99	78.399
463.34	79.733
463.69	79.425
464.04	79.130
464.39	79.072
464.74	77.600
465.09	77.925
465.44	77.507
465.79	77.293
466.14	76.902
466.49	78.420
466.84	77.817
467.19	76.765
467.54	79.125
467.89	78.151
468.24	78.243
468.59	79.182
468.94	77.520
469.29	78.599
469.64	80.054
469.99	79.635
470.34	79.194
470.68	80.244
471.03	77.891
471.38	80.125
471.73	79.280
472.08	79.737
472.43	77.010
472.78	78.341
473.13	76.637
473.48	76.592
473.83	78.415
474.17	77.847
474.52	77.109
474.87	77.350
475.22	77.771
475.57	76.303
475.92	77.058
476.27	76.494
476.61	75.676
476.96	76.581
477.31	76.714
477.66	76.149
478.01	76.006
478.36	77.790
478.70	76.999
479.05	76.358
479.40	77.789
479.75	77.428
480.10	75.447
480.45	75.964
480.79	74.534
481.14	75.783
481.49	75.225
481.84	76.223
482.19	75.284
482.53	74.817
482.88	74.826
483.23	75.935
483.58	75.705
483.92	76.101
484.27	73.813
484.62	74.267
484.97	73.906
485.31	74.110
485.66	72.419
486.01	68.976
486.36	66.194
486.70	66.270
487.05	67.366
487.40	70.072
487.75	72.207
488.09	72.429
488.44	73.049
488.79	74.684
489.13	75.134
489.48	76.223
489.83	74.968
490.17	74.836
490.52	72.808
490.87	73.994
491.22	73.352
491.56	73.257
491.91	73.941
492.26	72.347
492.60	73.502
492.95	71.890
493.30	72.991
493.64	74.148
493.99	73.166
494.34	73.636
494.68	74.130
495.03	73.872
495.37	72.545
495.72	74.415
496.07	73.735
496.41	71.991
496.76	72.647
497.11	71.860
497.45	72.054
497.80	71.833
498.14	73.043
498.49	73.415
498.84	72.483
499.18	72.952
499.53	72.412
499.87	71.295
500.22	71.503
500.56	74.029
500.91	71.683
501.26	71.456
501.60	73.469
501.95	70.715
502.29	72.071
502.64	72.160
502.98	71.201
503.33	70.795
503.67	71.183
504.02	71.515
504.36	70.426
504.71	71.324
505.06	71.807
505.40	71.512
505.75	69.672
506.09	70.311
506.44	72.669
506.78	71.895
507.13	71.630
507.47	70.808
507.82	72.239
508.16	71.682
508.51	72.095
508.85	69.960
509.19	71.633
509.54	71.071
509.88	71.303
510.23	70.334
510.57	71.878
510.92	70.999
511.26	70.144
511.61	70.228
511.95	68.528
512.30	71.951
512.64	70.768
512.98	70.954
513.33	70.557
513.67	68.997
514.02	69.751
514.36	71.600
514.70	70.725
515.05	70.887
515.39	71.957
515.74	70.608
516.08	70.319
516.42	70.866
516.77	71.405
517.11	70.311
517.46	70.260
517.80	71.661
518.14	70.990
518.49	70.828
518.83	69.943
519.17	70.439
519.52	69.383
519.86	69.652
520.20	71.561
520.55	71.694
520.89	71.350
521.23	71.592
521.58	71.969
521.92	71.770
522.26	69.067
522.61	70.592
522.95	70.227
523.29	70.968
523.64	69.695
523.98	70.302
524.32	69.903
524.66	70.295
525.01	69.056
525.35	69.517
525.69	69.212
526.04	68.536
526.38	69.067
526.72	69.509
527.06	71.500
527.41	67.946
527.75	70.225
528.09	69.236
528.43	71.128
528.78	69.392
529.12	67.636
529.46	68.585
529.80	69.245
530.15	68.287
530.49	67.015
530.83	69.114
531.17	69.974
531.51	69.909
531.86	69.548
532.20	69.622
532.54	70.083
532.88	69.384
533.22	67.146
533.57	67.716
533.91	67.911
534.25	66.950
534.59	67.358
534.93	66.686
535.27	66.626
535.62	66.545
535.96	67.043
536.30	67.896
536.64	67.160
536.98	68.281
537.32	67.215
537.66	67.000
538.01	67.874
538.35	68.843
538.69	68.028
539.03	67.771
539.37	65.240
539.71	65.911
540.05	67.843
540.39	66.844
540.73	65.718
541.07	66.775
541.42	66.928
541.76	66.516
542.10	66.688
542.44	66.887
542.78	67.260
543.12	65.515
543.46	65.639
543.80	66.623
544.14	64.827
544.48	65.651
544.82	64.593
545.16	66.168
545.50	63.882
545.84	66.734
546.18	67.003
546.52	65.795
546.86	66.598
547.20	66.082
547.54	65.464
547.88	64.031
548.22	64.197
548.56	64.025
548.90	64.085
549.24	65.051
549.58	66.098
549.92	64.835
550.26	66.761
550.60	65.145
550.94	64.296
551.28	65.545
551.62	66.858
551.96	65.825
552.30	65.188
552.64	64.165
552.98	65.492
553.32	63.857
553.66	64.145
554.00	64.791
554.34	63.768
554.68	65.451
555.02	65.233
555.36	64.857
555.69	63.261
556.03	63.930
556.37	64.393
556.71	63.165
557.05	63.515
557.39	63.471
557.73	62.879
558.07	65.990
558.41	64.978
558.75	65.026
559.08	64.653
559.42	65.306
559.76	65.441
560.10	63.169
560.44	63.312
560.78	63.007
561.12	62.665
561.45	61.604
561.79	61.701
562.13	63.716
562.47	62.500
562.81	64.296
563.15	60.602
563.48	62.798
563.82	62.948
564.16	61.086
564.50	63.021
564.84	61.315
565.17	62.355
565.51	61.214
565.85	61.865
566.19	60.739
566.52	62.255
566.86	60.639
567.20	61.203
567.54	60.103
567.88	58.881
568.21	59.735
568.55	59.302
568.89	58.317
569.23	57.175
569.56	55.749
569.90	56.415
570.24	55.185
570.57	54.539
570.91	53.717
571.25	53.860
571.59	53.667
571.92	54.263
572.26	54.391
572.60	54.384
572.93	53.973
573.27	54.037
573.61	54.076
573.95	53.979
574.28	53.317
574.62	52.454
574.96	52.378
575.29	52.352
575.63	52.617
575.97	52.721
576.30	52.177
576.64	52.691
576.98	52.333
577.31	52.472
577.65	52.269
577.98	52.493
578.32	50.655
578.66	51.656
578.99	51.746
579.33	52.263
579.67	51.666
580.00	52.314
580.34	52.824
580.67	51.974
581.01	52.170
581.35	51.381
581.68	50.679
582.02	50.411
582.35	50.778
582.69	50.616
583.02	51.036
583.36	51.833
583.70	52.423
584.03	53.292
584.37	53.360
584.70	53.056
585.04	51.150
585.37	52.307
585.71	51.480
586.04	50.978
586.38	52.247
586.72	52.389
587.05	51.182
587.39	51.055
587.72	51.817
588.06	51.334
588.39	52.263
588.73	51.481
589.06	53.038
589.40	53.603
589.73	53.784
590.07	52.633
590.40	53.672
590.73	53.513
591.07	54.579
591.40	54.323
591.74	55.022
592.07	54.450
592.41	53.493
592.74	53.109
593.08	51.066
593.41	52.040
593.75	50.125
594.08	51.861
594.41	52.492
594.75	52.311
595.08	52.255
595.42	52.294
595.75	52.172
596.09	52.572
596.42	53.281
596.75	53.651
597.09	53.983
597.42	52.825
597.75	53.385
598.09	52.739
598.42	52.921
598.76	52.128
599.09	51.007
599.42	50.873
599.76	51.647
600.09	50.419
600.42	50.292
600.76	50.357
601.09	50.565
601.42	51.865
601.76	52.030
602.09	52.332
602.42	52.229
602.76	52.439
603.09	51.888
603.42	52.753
603.76	51.601
604.09	50.795
604.42	52.426
604.76	52.594
605.09	51.944
605.42	51.389
605.75	51.076
606.09	51.281
606.42	52.636
606.75	51.721
607.09	51.612
607.42	51.220
607.75	50.591
608.08	51.541
608.42	51.367
608.75	50.947
609.08	51.526
609.41	51.975
609.75	51.882
610.08	51.649
610.41	52.374
610.74	52.886
611.07	52.866
611.41	51.865
611.74	52.539
612.07	52.329
612.40	52.833
612.73	53.105
613.07	54.256
613.40	52.975
613.73	51.966
614.06	52.312
614.39	52.334
614.72	51.737
615.06	51.996
615.39	52.017
615.72	50.562
616.05	51.462
616.38	52.029
616.71	53.563
617.05	54.535
617.38	53.157
617.71	53.874
618.04	54.026
618.37	52.336
618.70	55.072
619.03	54.408
619.36	54.175
619.69	55.282
620.03	54.327
620.36	54.880
620.69	55.274
621.02	55.973
621.35	55.208
621.68	53.427
622.01	55.650
622.34	55.976
622.67	54.905
623.00	53.925
623.33	54.039
623.66	54.182
623.99	55.228
624.32	54.208
624.65	51.836
624.99	53.329
625.32	53.584
625.65	55.297
625.98	55.880
626.31	55.365
626.64	55.510
626.97	55.445
627.30	55.694
627.63	55.455
627.96	57.864
628.29	56.780
628.62	57.182
628.95	56.604
629.28	57.208
629.61	58.478
629.94	58.571
630.26	57.388
630.59	58.818
630.92	54.693
631.25	56.071
631.58	57.157
631.91	58.012
632.24	57.911
632.57	57.608
632.90	58.553
633.23	59.396
633.56	57.175
633.89	59.456
634.22	58.570
634.55	59.645
634.88	59.880
635.20	59.259
635.53	58.554
635.86	60.520
636.19	56.000
636.52	56.517
636.85	58.534
637.18	56.452
637.51	60.520
637.83	58.200
638.16	60.230
638.49	58.564
638.82	60.683
639.15	59.375
639.48	59.476
639.81	61.394
640.13	60.156
640.46	59.060
640.79	59.974
641.12	58.184
641.45	59.358
641.77	62.150
642.10	61.988
642.43	60.661
642.76	64.396
643.09	62.423
643.41	59.788
643.74	63.117
644.07	61.433
644.40	61.503
644.73	62.362
645.05	62.916
645.38	61.769
645.71	62.802
646.04	62.126
646.36	64.441
646.69	65.217
647.02	62.245
647.35	65.464
647.67	63.540
648.00	63.089
648.33	62.541
648.66	59.242
648.98	59.070
649.31	60.688
649.64	59.791
649.96	60.358
650.29	61.769
650.62	61.003
650.94	60.454
651.27	59.966
651.60	63.394
651.92	59.425
652.25	57.655
652.58	60.280
652.90	60.664
653.23	57.781
653.56	60.945
653.88	59.905
654.21	59.716
654.54	62.376
654.86	57.009
655.19	54.459
655.52	40.466
655.84	35.603
656.17	45.835
656.49	62.724
656.82	65.176
657.15	49.610
657.47	37.398
657.80	29.078
658.13	30.621
658.45	46.315
658.78	47.134
659.10	49.762
659.43	52.008
659.75	54.891
660.08	58.861
660.41	62.942
660.73	65.438
661.06	65.446
661.38	65.636
661.71	67.308
662.03	64.694
662.36	58.250
662.68	63.454
663.01	65.051
663.33	66.454
663.66	66.597
663.98	62.419
664.31	63.655
664.63	62.348
664.96	61.569
665.28	63.320
665.61	60.624
665.93	60.966
666.26	62.069
666.58	63.808
666.91	65.962
667.23	65.393
667.56	61.987
667.88	64.957
668.21	62.687
668.53	64.859
668.86	62.987
669.18	65.885
669.50	66.304
669.83	66.885
670.15	65.556
670.48	62.092
670.80	65.302
671.13	65.393
671.45	62.340
671.77	60.081
672.10	61.183
672.42	57.597
672.75	57.711
673.07	60.035
673.39	58.047
673.72	59.375
674.04	60.000
674.37	58.447
674.69	64.008
675.01	62.134
675.34	61.191
675.66	66.316
675.98	61.507
676.31	62.815
676.63	61.996
676.95	61.426
677.28	63.785
677.60	63.736
677.92	63.080
678.25	60.575
678.57	60.359
678.89	58.918
679.22	57.957
679.54	61.450
679.86	58.716
680.18	56.887
680.51	58.688
680.83	57.295
681.15	58.113
681.48	59.735
681.80	60.348
682.12	59.579
682.44	58.027
682.77	62.322
683.09	62.232
683.41	62.749
683.73	62.031
684.06	60.537
684.38	57.926
684.70	57.558
685.02	59.662
685.34	55.861
685.67	54.545
685.99	56.186
686.31	56.826
686.63	53.710
686.96	57.143
687.28	55.415
687.60	56.522
687.92	56.124
688.24	55.703
688.56	59.639
688.89	60.166
689.21	63.537
689.53	57.620
689.85	62.084
690.17	59.627
690.49	60.085
690.82	58.411
691.14	57.143
691.46	57.384
691.78	57.430
692.10	58.884
692.42	56.886
692.74	56.639
693.06	56.383
693.39	59.343
693.71	59.170
694.03	56.421
694.35	57.359
694.67	59.039
694.99	62.439
695.31	60.294
695.63	61.244
695.95	58.680
696.27	61.929
696.59	59.585
696.91	60.622
697.23	55.164
697.56	56.930
697.88	51.943
698.20	56.250
698.52	58.280
698.84	57.016
699.16	59.447
699.48	60.808
699.80	63.285
700.12	65.195
700.44	61.804
700.76	64.088
701.08	65.517
701.40	62.849
701.72	65.015
702.04	65.909
702.36	58.640
702.68	62.890
703.00	63.712
703.32	59.840
703.64	61.126
703.96	62.117
704.28	64.244
704.60	63.050
704.91	65.579
705.23	63.636
705.55	67.110
705.87	69.435
706.19	68.198
706.51	59.190
706.83	61.515
707.15	60.224
707.47	58.838
707.79	59.951
708.11	55.708
708.43	58.571
708.74	60.459
709.06	60.000
709.38	60.630
709.70	63.372
710.02	62.315
710.34	62.424
710.66	63.881
710.98	61.648
711.29	58.430
711.61	61.357
711.93	63.141
712.25	63.344
712.57	66.912
712.89	63.668
713.20	62.614
713.52	65.789
713.84	61.392
714.16	59.146
714.48	62.356
714.80	68.389
715.11	62.248
715.43	57.270
715.75	60.000
716.07	61.661
716.39	64.577
716.70	65.781
717.02	65.827
717.34	61.131
717.66	64.179
717.97	70.120
718.29	62.222
718.61	62.774
718.93	66.176
719.24	64.014
719.56	62.373
719.88	60.000
720.20	65.203
720.51	62.718
720.83	69.888
721.15	64.552
721.46	67.730
721.78	64.875
722.10	62.264
722.42	67.293
722.73	66.667
723.05	65.164
723.37	69.636
723.68	62.162
724.00	63.821
724.32	66.935
724.63	66.260
724.95	70.293
725.27	65.992
725.58	66.016
725.90	67.518
726.22	67.547
726.53	63.889
726.85	58.703
727.16	66.548
727.48	62.057
727.80	64.773
728.11	60.870
728.43	60.000
728.74	64.516
729.06	65.328
729.38	66.912
729.69	61.566
730.01	56.314
730.32	57.639
730.64	61.538
730.96	57.426
731.27	62.914
731.59	61.162
731.90	58.892
732.22	58.075
732.53	54.180
732.85	59.615
733.16	60.129
733.48	60.465
733.80	62.662
734.11	60.828
734.43	57.692
734.74	53.143
735.06	52.149
735.37	60.405
735.69	61.146
736.00	64.052
736.32	56.386
736.63	56.230
736.95	55.591
737.26	52.041
737.58	52.903
737.89	59.532
738.21	60.410
738.52	60.000
738.83	57.358
739.15	65.000
739.46	61.679
739.78	59.722
740.09	54.154
740.41	60.323
740.72	54.355
741.04	64.074
741.35	64.167
741.66	66.222
741.98	66.038
742.29	69.378
742.61	69.397
742.92	65.158
743.23	65.385
743.55	64.800
743.86	61.842
744.18	72.124
744.49	73.684
744.80	70.423
745.12	69.545
745.43	67.401
745.74	69.369
746.06	69.725
746.37	68.610
746.68	68.326
747.00	75.926
747.31	66.190
747.62	62.832
747.94	66.520
748.25	63.404
748.56	64.317
748.88	67.327
749.19	73.500
749.50	64.186
749.82	63.821
750.13	62.449
750.44	56.934
750.75	63.860
751.07	58.521
751.38	63.763
751.69	59.928
752.01	59.398
752.32	60.289
752.63	60.993
752.94	67.213
753.26	67.200
753.57	58.537
753.88	65.625
754.19	57.143
754.51	64.236
754.82	58.123
755.13	56.604
755.44	57.143
755.75	58.759
756.07	59.929
756.38	56.204
756.69	54.698
757.00	55.090
757.31	53.709
757.63	54.678
757.94	53.083
758.25	51.471
758.56	52.593
758.87	54.032
759.18	53.333
759.50	57.994
759.81	51.713
760.12	55.000
760.43	53.295
760.74	53.533
761.05	53.672
761.36	53.476
761.67	54.830
761.99	54.969
762.30	57.986
762.61	60.305
762.92	59.766
763.23	64.706
763.54	63.600
763.85	59.766
764.16	61.154
764.47	59.696
764.78	54.417
765.10	52.848
765.41	56.932
765.72	52.695
766.03	54.545
766.34	57.000
766.65	69.787
766.96	62.821
767.27	71.066
767.58	70.312
767.89	68.947
768.20	75.287
768.51	64.975
768.82	65.138
769.13	57.724
769.44	56.680
769.75	62.232
770.06	55.963
770.37	65.611
770.68	60.185
770.99	61.333
771.30	57.377
771.61	72.197
771.92	61.066
772.23	64.286
772.54	67.692
772.85	71.204
773.16	71.809
773.47	69.022
773.78	68.020
774.09	74.405
774.39	61.404
774.70	74.691
775.01	81.159
775.32	80.392
775.63	78.947
775.94	77.698
776.25	85.827
776.56	80.597
776.87	82.787
777.18	88.281
777.48	80.916
777.79	77.273
778.10	77.778
778.41	81.250
778.72	73.723
779.03	73.826
779.34	75.168
779.65	77.027
779.95	73.006
780.26	80.392
780.57	80.000
780.88	90.625
781.19	77.444
781.50	79.730
781.80	70.440
782.11	70.621
782.42	70.886
782.73	71.166
783.04	74.324
783.34	74.648
783.65	82.192
783.96	79.104
784.27	72.727
784.57	79.137
784.88	81.481
785.19	84.127
785.50	96.226
785.81	82.090
786.11	92.623
786.42	72.868
786.73	88.496
787.04	96.226
787.34	96.429
787.65	93.000
787.96	88.288
788.26	78.512
788.57	100.000
788.88	92.562
789.19	78.472
789.49	81.818
789.80	77.863
790.11	100.000
790.41	101.980
790.72	107.229
791.03	103.261
791.33	102.326
791.64	89.691
791.95	92.079
792.25	104.444
792.56	125.974
792.87	121.795
793.17	117.722
793.48	100.000
793.79	114.943
794.09	97.727
794.40	88.235
794.70	79.412
795.01	80.000
795.32	72.662
795.62	84.252
795.93	85.345
796.23	83.186
796.54	115.294
796.85	102.703
797.15	136.620
797.46	146.970
797.76	122.892
798.07	108.861
798.37	127.692
798.68	124.242
798.99	105.634
799.29	103.896
799.60	110.227
799.90	120.548
800.21	126.866
800.51	141.379
800.82	143.860
801.12	131.148
801.43	136.364
801.73	110.811
802.04	138.095
802.34	120.988
802.65	125.000
802.95	132.203
803.26	143.750
803.56	95.714
803.87	109.231
804.17	120.588
804.48	150.000
804.78	110.345
805.09	114.706
805.39	144.231
805.70	132.143
806.00	127.869
806.30	122.727
806.61	108.537
806.91	102.532
807.22	109.211
807.52	105.970
807.83	105.634
808.13	131.250
808.43	130.000
808.74	109.211
809.04	114.493
809.35	119.403
809.65	115.789
809.95	133.871
810.26	111.864
810.56	122.222
810.86	184.091
811.17	152.381
811.47	135.000
811.77	131.481
812.08	149.091
812.38	160.000
812.69	180.556
812.99	168.182
813.29	157.143
813.59	157.143
813.90	173.469
814.20	132.727
814.50	112.308
814.81	125.000
815.11	157.143
815.41	132.787
815.72	190.476
816.02	150.909
816.32	152.381
816.62	167.500
816.93	165.854
817.23	183.333
817.53	152.273
817.84	206.061
818.14	158.696
818.44	157.778
818.74	202.941
819.04	182.500
819.35	194.286
819.65	220.588
819.95	214.286
820.25	270.000
820.56	197.436
820.86	154.545
821.16	148.837
821.46	182.051
821.76	174.000
822.07	202.857
822.37	207.500
822.67	224.242
822.97	135.294
823.27	267.857
823.57	178.378
823.88	197.500
824.18	220.000
824.48	195.238
824.78	268.000
825.08	295.833
825.38	205.405
825.69	170.732
825.99	320.833
826.29	213.793
826.59	189.474
826.89	186.842
827.19	232.353
827.49	238.710
827.79	193.182
828.09	150.000
828.39	165.957
828.70	140.816
829.00	203.704
829.30	229.032
829.60	157.500
829.90	413.333
830.20	210.714
830.50	260.870
830.80	265.217
831.10	240.000
831.40	233.333
831.70	234.783
832.00	257.692
832.30	225.926
832.60	418.750
832.90	250.000
833.20	485.714
833.50	206.452
833.80	262.069
834.10	215.625
834.40	242.308
834.70	366.667
835.00	357.143
835.30	197.143
835.60	407.692
835.90	255.172
836.20	442.857
836.50	255.172
836.80	232.000
837.10	197.222
837.40	314.286
837.70	417.647
838.00	225.926
838.30	290.476
838.60	309.524
838.90	253.846
839.19	365.000
839.49	478.571
839.79	395.000
840.09	305.000
840.39	333.333
840.69	308.696
840.99	322.222
841.29	630.000
841.59	466.667
841.88	375.000
842.18	206.897
842.48	276.190
842.78	223.333
843.08	295.652
843.38	203.125
843.68	1116.667
843.97	276.923
844.27	220.690
844.57	347.619
844.87	443.750
845.17	259.259
845.47	1900.000
845.76	655.556
846.06	358.824
846.36	712.500
846.66	378.571
846.96	318.750
847.25	463.636
847.55	536.364
847.85	282.609
848.15	620.000
848.44	457.143
848.74	316.667
849.04	382.353
849.34	680.000
849.63	310.526
849.93	545.455
850.23	1020.000
850.53	478.571
850.82	3050.000
851.12	-4600.000
851.42	5700.000
851.71	310.000
852.01	-1466.667
852.31	279.167
852.61	2066.667
852.90	304.762
853.20	280.000
853.50	329.412
853.79	371.429
854.09	241.667
854.39	362.500
854.68	208.108
854.98	203.226
855.28	200.000
855.57	262.069
855.87	233.333
856.17	263.158
856.46	313.333
856.76	352.941
857.05	234.483
857.35	275.000
857.65	426.667
857.94	308.696
858.24	288.462
858.53	315.000
858.83	295.455
859.13	420.000
859.42	0.000
859.72	722.222
860.01	481.818
860.31	331.818
860.60	373.684
860.90	291.304
861.20	677.778
861.49	641.667
861.79	-5600.000
862.08	787.500
862.38	347.619
862.67	415.385
862.97	400.000
863.26	555.556
863.56	327.778
863.85	416.667
864.15	750.000
864.44	413.333
864.74	866.667
865.03	625.000
865.33	373.684
865.62	518.182
865.92	453.846
866.21	525.000
866.51	0.000
866.80	518.182
867.10	1280.000
867.39	446.154
867.69	518.182
867.98	326.316
868.27	636.364
868.57	352.632
868.86	-4600.000
869.16	406.250
869.45	2450.000
869.75	-5000.000
870.04	483.333
870.33	671.429
870.63	1300.000
870.92	3000.000
871.22	728.571
871.51	394.118
871.80	242.857
872.10	428.571
>>>>>End Processed Spectral Data<<<<<
