SpectraSuite Data File
++++++++++++++++++++++++++++++++++++
Date: Wed May 13 19:26:20 PDT 2015
User: schluterlab
Dark Spectrum Present: Yes
Reference Spectrum Present: Yes
Number of Sampled Component Spectra: 1
Spectrometers: USB2E3373
Integration Time (usec): 3000 (USB2E3373)
Spectra Averaged: 3 (USB2E3373)
Boxcar Smoothing: 0 (USB2E3373)
Correct for Electrical Dark: No (USB2E3373)
Strobe/Lamp Enabled: No (USB2E3373)
Correct for Detector Non-linearity: No (USB2E3373)
Correct for Stray Light: No (USB2E3373)
Number of Pixels in Processed Spectrum: 2048
>>>>>Begin Processed Spectral Data<<<<<
178.53	0.000
178.91	-1300.000
179.29	-1400.000
179.67	-277.778
180.04	-1400.000
180.42	2800.000
180.80	1200.000
181.18	-1025.000
181.56	700.000
181.94	0.000
182.31	-528.571
182.69	1833.333
183.07	-612.500
183.45	-444.444
183.83	590.909
184.20	-520.000
184.58	2250.000
184.96	5400.000
185.34	-1000.000
185.72	-587.500
186.09	-2650.000
186.47	3250.000
186.85	2750.000
187.23	4500.000
187.61	-1766.667
187.98	1400.000
188.36	663.636
188.74	563.636
189.12	-960.000
189.49	530.000
189.87	-4700.000
190.25	-1075.000
190.63	442.857
191.00	407.692
191.38	800.000
191.76	-1375.000
192.14	1350.000
192.51	637.500
192.89	1066.667
193.27	587.500
193.65	-1450.000
194.02	520.000
194.40	1020.000
194.78	610.000
195.15	466.667
195.53	710.000
195.91	-2300.000
196.29	350.000
196.66	368.421
197.04	-380.000
197.42	0.000
197.79	600.000
198.17	-5300.000
198.55	571.429
198.92	762.500
199.30	940.000
199.68	0.000
200.05	361.111
200.43	685.714
200.81	5600.000
201.18	1833.333
201.56	-2100.000
201.94	533.333
202.31	577.778
202.69	441.667
203.07	550.000
203.44	0.000
203.82	1250.000
204.19	742.857
204.57	471.429
204.95	687.500
205.32	1866.667
205.70	536.364
206.08	414.286
206.45	2450.000
206.83	356.250
207.20	816.667
207.58	980.000
207.96	327.778
208.33	800.000
208.71	-816.667
209.08	771.429
209.46	644.444
209.84	545.455
210.21	-1600.000
210.59	1500.000
210.96	-525.000
211.34	2750.000
211.71	580.000
212.09	1000.000
212.46	0.000
212.84	1633.333
213.22	1350.000
213.59	-5600.000
213.97	1000.000
214.34	914.286
214.72	672.727
215.09	960.000
215.47	-2500.000
215.84	-2700.000
216.22	1766.667
216.59	371.429
216.97	1250.000
217.34	490.909
217.72	-800.000
218.09	0.000
218.47	-6000.000
218.84	700.000
219.22	771.429
219.59	1866.667
219.97	-728.571
220.34	1040.000
220.72	-1666.667
221.09	421.429
221.47	1475.000
221.84	-1083.333
222.22	0.000
222.59	1600.000
222.97	-2700.000
223.34	1160.000
223.72	438.462
224.09	1360.000
224.46	2450.000
224.84	-5100.000
225.21	-880.000
225.59	-5500.000
225.96	660.000
226.34	300.000
226.71	2700.000
227.08	700.000
227.46	640.000
227.83	-1175.000
228.21	-2550.000
228.58	633.333
228.95	-2500.000
229.33	-1950.000
229.70	1833.333
230.08	771.429
230.45	-800.000
230.82	516.667
231.20	683.333
231.57	600.000
231.95	533.333
232.32	290.909
232.69	418.182
233.07	871.429
233.44	430.769
233.81	-1833.333
234.19	331.579
234.56	458.333
234.93	441.667
235.31	481.818
235.68	384.615
236.05	357.143
236.43	181.818
236.80	221.053
237.17	5500.000
237.55	242.857
237.92	228.571
238.29	314.286
238.67	180.645
239.04	189.655
239.41	163.889
239.79	117.391
240.16	133.333
240.53	136.364
240.91	94.118
241.28	106.000
241.65	116.000
242.02	97.101
242.40	79.032
242.77	95.000
243.14	70.968
243.51	92.135
243.89	74.118
244.26	66.667
244.63	79.570
245.00	64.894
245.38	61.386
245.75	63.551
246.12	55.963
246.49	67.153
246.87	60.800
247.24	62.308
247.61	57.857
247.98	49.673
248.36	45.270
248.73	49.045
249.10	45.860
249.47	42.373
249.84	48.663
250.22	43.850
250.59	46.746
250.96	45.455
251.33	45.024
251.70	43.069
252.08	39.524
252.45	40.807
252.82	41.304
253.19	41.277
253.56	35.686
253.94	39.419
254.31	36.719
254.68	39.615
255.05	33.579
255.42	36.992
255.79	38.603
256.16	36.823
256.54	33.216
256.91	36.655
257.28	30.935
257.65	33.993
258.02	37.267
258.39	30.599
258.76	33.445
259.14	30.357
259.51	31.307
259.88	30.124
260.25	32.326
260.62	31.503
260.99	32.298
261.36	33.333
261.73	28.367
262.10	31.105
262.47	32.958
262.85	30.084
263.22	27.066
263.59	33.048
263.96	30.769
264.33	29.243
264.70	28.158
265.07	27.621
265.44	28.030
265.81	28.467
266.18	31.407
266.55	29.024
266.92	30.958
267.29	29.167
267.66	28.211
268.03	27.045
268.40	27.570
268.77	24.582
269.14	26.802
269.51	28.894
269.88	27.506
270.25	28.668
270.62	26.517
270.99	29.892
271.36	27.897
271.73	27.336
272.10	26.087
272.47	28.387
272.84	25.325
273.21	27.673
273.58	26.856
273.95	24.738
274.32	26.860
274.69	25.696
275.06	24.409
275.43	28.298
275.80	26.052
276.17	27.699
276.54	24.116
276.91	24.901
277.28	25.977
277.65	26.692
278.02	22.360
278.39	25.000
278.76	23.455
279.13	25.094
279.50	25.512
279.87	24.900
280.23	24.750
280.60	24.952
280.97	22.736
281.34	24.956
281.71	24.545
282.08	22.457
282.45	23.455
282.82	23.623
283.19	22.816
283.56	24.737
283.92	24.196
284.29	22.046
284.66	22.686
285.03	22.061
285.40	22.007
285.77	22.896
286.14	23.661
286.51	22.667
286.87	22.906
287.24	22.150
287.61	21.188
287.98	22.240
288.35	21.236
288.72	23.209
289.08	21.596
289.45	22.241
289.82	20.000
290.19	20.094
290.56	21.286
290.93	18.731
291.29	20.245
291.66	20.796
292.03	21.221
292.40	22.467
292.77	20.118
293.13	20.000
293.50	20.845
293.87	20.741
294.24	20.000
294.60	19.068
294.97	19.767
295.34	21.016
295.71	21.165
296.08	19.231
296.44	19.395
296.81	17.834
297.18	18.699
297.55	16.491
297.91	17.810
298.28	18.474
298.65	18.538
299.02	18.972
299.38	18.061
299.75	16.442
300.12	18.263
300.48	17.125
300.85	18.372
301.22	18.599
301.59	18.561
301.95	18.010
302.32	17.587
302.69	17.802
303.05	17.091
303.42	16.049
303.79	16.308
304.15	16.434
304.52	14.948
304.89	15.447
305.25	15.661
305.62	16.874
305.99	16.765
306.35	16.555
306.72	17.377
307.09	15.982
307.45	17.905
307.82	15.402
308.19	15.894
308.55	16.181
308.92	15.145
309.29	15.417
309.65	14.634
310.02	15.751
310.38	16.022
310.75	15.523
311.12	17.503
311.48	16.823
311.85	15.199
312.22	15.817
312.58	14.345
312.95	15.417
313.31	14.660
313.68	15.281
314.05	15.582
314.41	14.573
314.78	16.415
315.14	14.796
315.51	15.654
315.87	15.941
316.24	14.399
316.61	15.692
316.97	14.286
317.34	13.601
317.70	16.348
318.07	13.859
318.43	15.949
318.80	15.370
319.16	14.972
319.53	14.165
319.89	15.143
320.26	16.300
320.62	16.369
320.99	14.848
321.35	15.758
321.72	15.400
322.08	16.091
322.45	16.418
322.81	14.826
323.18	15.607
323.54	15.863
323.91	14.434
324.27	15.679
324.64	14.166
325.00	14.067
325.37	15.105
325.73	15.978
326.10	15.269
326.46	13.978
326.83	15.099
327.19	14.688
327.56	15.767
327.92	14.611
328.29	13.842
328.65	14.733
329.01	15.433
329.38	14.801
329.74	14.404
330.11	14.986
330.47	15.427
330.84	16.636
331.20	14.026
331.56	15.046
331.93	14.722
332.29	14.818
332.66	16.195
333.02	13.437
333.38	15.537
333.75	15.062
334.11	14.502
334.48	15.617
334.84	14.246
335.20	15.182
335.57	14.959
335.93	13.571
336.29	14.469
336.66	13.886
337.02	14.389
337.38	14.722
337.75	14.528
338.11	14.861
338.47	13.812
338.84	15.124
339.20	13.028
339.56	14.964
339.93	13.455
340.29	14.764
340.65	13.815
341.02	15.271
341.38	14.057
341.74	13.947
342.11	12.576
342.47	14.714
342.83	14.555
343.20	14.113
343.56	14.153
343.92	13.684
344.28	13.435
344.65	14.961
345.01	13.805
345.37	13.208
345.73	14.213
346.10	13.214
346.46	13.983
346.82	14.333
347.19	13.534
347.55	13.465
347.91	13.916
348.27	14.626
348.63	14.799
349.00	13.511
349.36	13.300
349.72	14.755
350.08	13.047
350.45	13.751
350.81	14.216
351.17	13.290
351.53	14.087
351.89	13.449
352.26	14.601
352.62	14.595
352.98	13.290
353.34	14.215
353.70	12.848
354.07	13.548
354.43	13.810
354.79	13.677
355.15	12.211
355.51	14.628
355.87	13.306
356.24	13.436
356.60	12.590
356.96	13.113
357.32	13.083
357.68	13.465
358.04	12.906
358.40	13.143
358.77	14.163
359.13	12.944
359.49	12.784
359.85	11.825
360.21	12.839
360.57	14.319
360.93	13.077
361.29	13.001
361.66	12.384
362.02	13.881
362.38	13.384
362.74	13.318
363.10	12.213
363.46	12.619
363.82	13.303
364.18	13.216
364.54	12.704
364.90	13.102
365.26	13.750
365.62	12.710
365.98	12.783
366.35	12.393
366.71	12.726
367.07	13.037
367.43	13.425
367.79	12.991
368.15	14.080
368.51	12.064
368.87	13.133
369.23	12.509
369.59	13.396
369.95	12.721
370.31	13.034
370.67	12.391
371.03	13.483
371.39	13.120
371.75	12.574
372.11	12.447
372.47	13.490
372.83	12.320
373.19	11.994
373.55	12.786
373.91	12.739
374.27	12.027
374.63	11.855
374.99	13.489
375.35	11.305
375.71	11.926
376.07	12.140
376.42	11.623
376.78	12.061
377.14	11.872
377.50	11.788
377.86	11.436
378.22	13.021
378.58	11.278
378.94	11.565
379.30	11.005
379.66	11.675
380.02	11.794
380.38	11.354
380.74	12.485
381.09	11.797
381.45	11.985
381.81	13.145
382.17	11.783
382.53	10.755
382.89	12.407
383.25	11.570
383.61	11.896
383.97	12.258
384.32	12.227
384.68	10.719
385.04	11.801
385.40	11.765
385.76	12.162
386.12	11.528
386.48	11.517
386.83	11.931
387.19	12.307
387.55	12.245
387.91	11.427
388.27	11.588
388.62	12.108
388.98	11.364
389.34	12.265
389.70	11.465
390.06	12.801
390.42	11.803
390.77	12.150
391.13	11.678
391.49	11.802
391.85	11.521
392.20	10.032
392.56	11.490
392.92	11.418
393.28	10.828
393.64	11.871
393.99	11.423
394.35	11.476
394.71	11.418
395.07	11.090
395.42	10.569
395.78	11.768
396.14	11.980
396.50	12.093
396.85	12.079
397.21	11.344
397.57	11.283
397.92	11.599
398.28	10.818
398.64	10.872
399.00	11.696
399.35	11.055
399.71	10.880
400.07	11.709
400.42	11.166
400.78	12.606
401.14	10.488
401.49	11.343
401.85	11.797
402.21	11.677
402.57	11.043
402.92	11.602
403.28	11.993
403.63	11.572
403.99	11.083
404.35	11.212
404.70	11.331
405.06	10.949
405.42	11.042
405.77	10.800
406.13	11.512
406.49	11.473
406.84	11.636
407.20	10.757
407.55	11.742
407.91	12.000
408.27	11.359
408.62	11.198
408.98	11.091
409.34	11.132
409.69	11.355
410.05	12.206
410.40	11.376
410.76	10.872
411.11	11.761
411.47	10.799
411.83	12.217
412.18	11.441
412.54	12.391
412.89	12.048
413.25	10.803
413.60	11.921
413.96	11.597
414.31	12.211
414.67	12.167
415.03	10.596
415.38	12.178
415.74	12.026
416.09	11.169
416.45	11.513
416.80	12.095
417.16	12.332
417.51	12.541
417.87	10.918
418.22	11.861
418.58	11.362
418.93	11.241
419.29	11.394
419.64	12.091
420.00	11.890
420.35	11.652
420.71	11.835
421.06	11.158
421.42	11.111
421.77	11.827
422.12	10.163
422.48	10.038
422.83	11.415
423.19	11.105
423.54	11.376
423.90	11.594
424.25	11.502
424.61	11.071
424.96	11.662
425.31	11.739
425.67	10.787
426.02	11.371
426.38	11.477
426.73	10.825
427.09	11.733
427.44	11.328
427.79	10.926
428.15	12.024
428.50	11.235
428.85	12.157
429.21	11.430
429.56	11.042
429.92	10.116
430.27	10.477
430.62	10.906
430.98	11.105
431.33	11.701
431.68	10.419
432.04	11.448
432.39	10.737
432.74	11.131
433.10	11.092
433.45	11.254
433.80	10.698
434.16	11.485
434.51	10.632
434.86	10.718
435.22	11.062
435.57	11.793
435.92	11.469
436.28	11.625
436.63	11.424
436.98	11.276
437.34	11.568
437.69	11.260
438.04	10.624
438.39	10.925
438.75	11.156
439.10	10.391
439.45	11.157
439.81	10.937
440.16	11.293
440.51	11.424
440.86	11.002
441.22	11.235
441.57	10.881
441.92	10.952
442.27	11.302
442.63	11.427
442.98	11.831
443.33	11.359
443.68	10.532
444.03	11.030
444.39	10.808
444.74	11.634
445.09	11.375
445.44	11.372
445.79	10.836
446.15	11.117
446.50	11.470
446.85	10.791
447.20	11.117
447.55	11.390
447.91	10.921
448.26	11.408
448.61	10.910
448.96	12.126
449.31	11.811
449.66	11.761
450.02	11.476
450.37	10.884
450.72	11.675
451.07	11.578
451.42	11.611
451.77	11.568
452.12	11.836
452.47	11.567
452.83	11.772
453.18	11.980
453.53	11.317
453.88	11.164
454.23	12.134
454.58	11.932
454.93	12.079
455.28	11.783
455.63	12.136
455.98	12.440
456.34	11.558
456.69	11.209
457.04	11.950
457.39	11.572
457.74	11.666
458.09	10.581
458.44	11.631
458.79	11.443
459.14	11.005
459.49	11.092
459.84	11.080
460.19	11.373
460.54	11.343
460.89	11.081
461.24	11.597
461.59	12.667
461.94	10.789
462.29	11.988
462.64	11.359
462.99	11.646
463.34	12.667
463.69	11.945
464.04	12.290
464.39	11.884
464.74	12.299
465.09	11.158
465.44	11.080
465.79	11.018
466.14	11.549
466.49	11.513
466.84	11.208
467.19	12.191
467.54	12.125
467.89	11.705
468.24	12.158
468.59	12.271
468.94	11.729
469.29	12.532
469.64	12.517
469.99	12.517
470.34	11.955
470.68	11.494
471.03	12.109
471.38	11.814
471.73	12.658
472.08	13.487
472.43	12.688
472.78	12.442
473.13	12.003
473.48	12.297
473.83	12.012
474.17	11.574
474.52	11.787
474.87	12.026
475.22	11.085
475.57	11.016
475.92	11.312
476.27	11.443
476.61	11.473
476.96	11.380
477.31	10.989
477.66	11.761
478.01	11.343
478.36	11.951
478.70	11.475
479.05	11.448
479.40	11.208
479.75	11.083
480.10	10.835
480.45	11.233
480.79	11.037
481.14	11.350
481.49	11.391
481.84	10.700
482.19	10.950
482.53	11.193
482.88	10.517
483.23	11.589
483.58	11.692
483.92	11.059
484.27	9.760
484.62	11.121
484.97	10.524
485.31	10.240
485.66	9.513
486.01	8.880
486.36	8.605
486.70	8.675
487.05	9.292
487.40	9.678
487.75	9.639
488.09	10.161
488.44	10.040
488.79	10.307
489.13	10.772
489.48	10.644
489.83	11.092
490.17	11.179
490.52	11.116
490.87	10.855
491.22	11.050
491.56	10.524
491.91	11.354
492.26	11.070
492.60	11.014
492.95	10.945
493.30	10.935
493.64	10.966
493.99	11.328
494.34	11.147
494.68	11.767
495.03	11.231
495.37	11.494
495.72	11.550
496.07	11.276
496.41	10.708
496.76	10.862
497.11	11.661
497.45	11.458
497.80	11.324
498.14	10.821
498.49	11.073
498.84	11.553
499.18	10.952
499.53	11.681
499.87	11.883
500.22	11.258
500.56	11.553
500.91	10.769
501.26	11.238
501.60	11.770
501.95	11.182
502.29	11.246
502.64	10.801
502.98	11.314
503.33	11.015
503.67	11.090
504.02	11.319
504.36	11.652
504.71	11.236
505.06	12.048
505.40	11.911
505.75	10.800
506.09	12.099
506.44	11.100
506.78	11.495
507.13	10.904
507.47	12.475
507.82	11.601
508.16	12.209
508.51	11.821
508.85	11.221
509.19	12.143
509.54	11.378
509.88	11.540
510.23	11.054
510.57	12.693
510.92	11.289
511.26	11.100
511.61	11.929
511.95	11.378
512.30	11.559
512.64	12.037
512.98	12.219
513.33	11.884
513.67	11.526
514.02	11.472
514.36	12.070
514.70	12.009
515.05	12.270
515.39	12.283
515.74	12.275
516.08	12.577
516.42	13.263
516.77	12.653
517.11	12.264
517.46	13.093
517.80	12.950
518.14	11.175
518.49	12.194
518.83	12.557
519.17	12.298
519.52	12.790
519.86	12.436
520.20	12.486
520.55	13.166
520.89	13.200
521.23	12.304
521.58	13.325
521.92	12.982
522.26	12.569
522.61	12.897
522.95	13.076
523.29	12.538
523.64	12.622
523.98	13.247
524.32	12.666
524.66	12.387
525.01	12.990
525.35	12.701
525.69	12.562
526.04	13.209
526.38	12.447
526.72	13.129
527.06	12.680
527.41	12.871
527.75	12.990
528.09	13.295
528.43	12.492
528.78	12.477
529.12	12.727
529.46	13.411
529.80	12.129
530.15	13.084
530.49	12.246
530.83	13.228
531.17	12.533
531.51	13.619
531.86	12.839
532.20	13.299
532.54	13.389
532.88	13.030
533.22	12.804
533.57	12.963
533.91	12.583
534.25	12.576
534.59	13.240
534.93	12.731
535.27	13.277
535.62	13.065
535.96	13.057
536.30	12.333
536.64	13.844
536.98	12.807
537.32	12.640
537.66	13.400
538.01	13.957
538.35	13.833
538.69	13.338
539.03	12.541
539.37	11.821
539.71	11.601
540.05	12.484
540.39	12.757
540.73	14.101
541.07	12.979
541.42	13.242
541.76	13.613
542.10	14.036
542.44	12.318
542.78	14.756
543.12	12.156
543.46	12.918
543.80	13.012
544.14	12.709
544.48	13.714
544.82	12.508
545.16	12.947
545.50	12.596
545.84	13.642
546.18	13.872
546.52	14.040
546.86	13.677
547.20	13.554
547.54	12.759
547.88	13.839
548.22	12.765
548.56	13.019
548.90	12.420
549.24	12.862
549.58	13.711
549.92	13.187
550.26	13.281
550.60	13.416
550.94	13.169
551.28	12.655
551.62	14.091
551.96	12.772
552.30	12.833
552.64	13.590
552.98	14.441
553.32	13.351
553.66	13.497
554.00	13.246
554.34	13.527
554.68	14.092
555.02	13.047
555.36	13.918
555.69	14.005
556.03	13.526
556.37	14.052
556.71	13.029
557.05	13.025
557.39	14.486
557.73	13.903
558.07	13.198
558.41	13.314
558.75	13.446
559.08	14.169
559.42	13.908
559.76	13.456
560.10	13.348
560.44	12.928
560.78	12.375
561.12	12.863
561.45	13.233
561.79	12.393
562.13	12.408
562.47	12.842
562.81	12.971
563.15	14.247
563.48	14.058
563.82	13.242
564.16	13.015
564.50	12.760
564.84	13.338
565.17	12.162
565.51	13.099
565.85	12.817
566.19	12.711
566.52	12.603
566.86	12.658
567.20	13.090
567.54	12.842
567.88	11.353
568.21	13.069
568.55	12.032
568.89	11.479
569.23	11.275
569.56	11.700
569.90	11.170
570.24	10.836
570.57	10.677
570.91	10.246
571.25	10.191
571.59	10.545
571.92	10.397
572.26	10.052
572.60	10.090
572.93	10.585
573.27	10.145
573.61	10.302
573.95	10.000
574.28	9.899
574.62	9.670
574.96	9.630
575.29	9.675
575.63	10.264
575.97	9.841
576.30	10.143
576.64	9.704
576.98	9.188
577.31	9.658
577.65	9.403
577.98	9.027
578.32	9.373
578.66	9.706
578.99	9.815
579.33	9.489
579.67	9.487
580.00	9.638
580.34	9.492
580.67	9.785
581.01	9.962
581.35	9.245
581.68	9.001
582.02	9.253
582.35	9.295
582.69	9.532
583.02	9.395
583.36	9.915
583.70	9.940
584.03	10.084
584.37	10.066
584.70	9.483
585.04	9.785
585.37	9.739
585.71	10.103
586.04	9.761
586.38	10.057
586.72	10.577
587.05	9.889
587.39	9.815
587.72	9.920
588.06	10.165
588.39	10.041
588.73	10.120
589.06	10.533
589.40	10.673
589.73	10.665
590.07	10.641
590.40	10.340
590.73	11.007
591.07	11.274
591.40	11.388
591.74	11.991
592.07	11.169
592.41	11.740
592.74	11.161
593.08	10.460
593.41	10.060
593.75	9.931
594.08	10.258
594.41	10.817
594.75	10.795
595.08	10.487
595.42	10.893
595.75	10.684
596.09	10.890
596.42	11.395
596.75	11.397
597.09	12.035
597.42	10.540
597.75	11.082
598.09	11.609
598.42	11.040
598.76	10.782
599.09	10.566
599.42	10.517
599.76	10.835
600.09	10.528
600.42	10.299
600.76	10.286
601.09	10.601
601.42	10.959
601.76	11.044
602.09	10.356
602.42	10.987
602.76	12.011
603.09	11.408
603.42	10.816
603.76	10.671
604.09	11.012
604.42	10.640
604.76	11.683
605.09	11.184
605.42	11.287
605.75	11.010
606.09	11.021
606.42	10.094
606.75	11.033
607.09	10.967
607.42	10.697
607.75	10.759
608.08	10.899
608.42	11.654
608.75	11.317
609.08	11.240
609.41	11.614
609.75	11.958
610.08	11.404
610.41	11.592
610.74	11.116
611.07	11.759
611.41	11.531
611.74	11.714
612.07	11.646
612.40	11.752
612.73	12.105
613.07	11.961
613.40	12.059
613.73	11.274
614.06	11.989
614.39	12.061
614.72	12.368
615.06	12.132
615.39	11.200
615.72	12.014
616.05	10.898
616.38	12.173
616.71	12.352
617.05	12.780
617.38	12.327
617.71	12.553
618.04	12.500
618.37	12.714
618.70	12.632
619.03	13.289
619.36	12.627
619.69	13.239
620.03	13.049
620.36	13.235
620.69	13.425
621.02	13.053
621.35	13.156
621.68	13.629
622.01	14.087
622.34	13.691
622.67	13.764
623.00	13.280
623.33	12.294
623.66	13.081
623.99	13.328
624.32	13.552
624.65	13.983
624.99	13.314
625.32	13.106
625.65	14.576
625.98	14.143
626.31	15.319
626.64	14.204
626.97	13.882
627.30	14.298
627.63	15.669
627.96	14.550
628.29	15.136
628.62	15.096
628.95	16.698
629.28	15.146
629.61	14.940
629.94	15.524
630.26	15.062
630.59	15.920
630.92	14.751
631.25	15.696
631.58	14.915
631.91	14.909
632.24	14.346
632.57	15.740
632.90	15.789
633.23	16.443
633.56	17.288
633.89	16.421
634.22	16.913
634.55	16.805
634.88	15.449
635.20	16.607
635.53	16.386
635.86	16.584
636.19	15.882
636.52	16.724
636.85	16.380
637.18	15.899
637.51	16.667
637.83	15.043
638.16	15.729
638.49	17.254
638.82	18.205
639.15	18.000
639.48	16.334
639.81	18.231
640.13	18.490
640.46	18.121
640.79	17.437
641.12	16.231
641.45	17.039
641.77	17.084
642.10	18.129
642.43	17.267
642.76	16.718
643.09	17.485
643.41	18.968
643.74	20.833
644.07	16.921
644.40	19.479
644.73	20.945
645.05	18.067
645.38	18.167
645.71	19.002
646.04	18.272
646.36	19.866
646.69	20.067
647.02	20.578
647.35	20.962
647.67	22.478
648.00	19.512
648.33	18.647
648.66	18.030
648.98	18.141
649.31	17.339
649.64	18.685
649.96	17.735
650.29	18.799
650.62	16.667
650.94	21.232
651.27	21.453
651.60	19.800
651.92	18.690
652.25	16.775
652.58	18.692
652.90	20.379
653.23	18.490
653.56	19.528
653.88	17.750
654.21	21.169
654.54	17.657
654.86	19.470
655.19	16.216
655.52	10.699
655.84	7.427
656.17	9.595
656.49	13.025
656.82	13.402
657.15	10.270
657.47	7.722
657.80	6.252
658.13	6.424
658.45	9.612
658.78	9.554
659.10	10.254
659.43	10.654
659.75	11.478
660.08	12.595
660.41	15.084
660.73	17.916
661.06	18.471
661.38	20.182
661.71	21.923
662.03	20.710
662.36	22.068
662.68	21.486
663.01	22.222
663.33	20.807
663.66	21.429
663.98	20.086
664.31	21.218
664.63	20.445
664.96	21.730
665.28	22.131
665.61	21.053
665.93	20.926
666.26	20.690
666.58	22.176
666.91	22.410
667.23	24.045
667.56	22.246
667.88	22.863
668.21	24.520
668.53	21.692
668.86	20.996
669.18	24.947
669.50	22.174
669.83	23.747
670.15	23.556
670.48	17.865
670.80	23.491
671.13	24.628
671.45	22.553
671.77	20.570
672.10	22.181
672.42	20.318
672.75	17.745
673.07	20.599
673.39	17.722
673.72	18.359
674.04	19.804
674.37	20.000
674.69	21.268
675.01	20.293
675.34	24.025
675.66	22.105
675.98	22.811
676.31	21.849
676.63	23.142
676.95	21.593
677.28	21.729
677.60	21.978
677.92	22.152
678.25	21.766
678.57	20.717
678.89	21.443
679.22	20.039
679.54	21.374
679.86	20.183
680.18	19.678
680.51	19.858
680.83	18.861
681.15	20.755
681.48	22.684
681.80	19.536
682.12	19.157
682.44	17.021
682.77	20.774
683.09	22.961
683.41	22.838
683.73	22.075
684.06	25.000
684.38	20.352
684.70	18.798
685.02	21.388
685.34	20.147
685.67	18.182
685.99	17.182
686.31	18.089
686.63	16.254
686.96	20.179
687.28	17.509
687.60	18.478
687.92	21.755
688.24	19.962
688.56	20.080
688.89	24.066
689.21	22.926
689.53	21.921
689.85	21.729
690.17	20.497
690.49	23.992
690.82	23.131
691.14	18.973
691.46	19.620
691.78	21.084
692.10	21.488
692.42	21.158
692.74	18.465
693.06	18.936
693.39	21.971
693.71	22.052
694.03	21.684
694.35	20.563
694.67	21.510
694.99	27.561
695.31	22.304
695.63	20.813
695.95	23.227
696.27	20.305
696.59	23.834
696.91	24.352
697.23	20.892
697.56	21.748
697.88	19.632
698.20	20.625
698.52	22.796
698.84	22.494
699.16	20.737
699.48	22.328
699.80	23.430
700.12	24.935
700.44	23.342
700.76	26.519
701.08	25.000
701.40	25.698
701.72	24.781
702.04	27.557
702.36	20.963
702.68	24.929
703.00	20.499
703.32	21.277
703.64	23.324
703.96	25.070
704.28	22.674
704.60	27.273
704.91	27.893
705.23	25.220
705.55	30.233
705.87	33.223
706.19	25.088
706.51	28.972
706.83	28.788
707.15	26.050
707.47	24.495
707.79	26.290
708.11	20.320
708.43	20.952
708.74	19.643
709.06	24.156
709.38	24.147
709.70	25.581
710.02	27.893
710.34	24.545
710.66	24.478
710.98	26.136
711.29	25.581
711.61	30.088
711.93	25.641
712.25	29.904
712.57	24.265
712.89	22.837
713.20	27.964
713.52	29.276
713.84	25.000
714.16	24.390
714.48	27.299
714.80	28.267
715.11	29.107
715.43	26.706
715.75	22.899
716.07	24.281
716.39	25.705
716.70	28.239
717.02	29.137
717.34	28.269
717.66	29.851
717.97	33.466
718.29	27.778
718.61	27.372
718.93	28.309
719.24	32.872
719.56	24.746
719.88	30.169
720.20	30.405
720.51	28.920
720.83	27.881
721.15	27.239
721.46	26.950
721.78	26.882
722.10	27.925
722.42	28.571
722.73	31.835
723.05	29.508
723.37	31.579
723.68	32.046
724.00	31.301
724.32	34.677
724.63	33.740
724.95	31.799
725.27	30.364
725.58	28.906
725.90	30.657
726.22	27.547
726.53	29.167
726.85	26.621
727.16	28.470
727.48	28.014
727.80	31.818
728.11	31.884
728.43	26.538
728.74	28.315
729.06	31.022
729.38	33.824
729.69	30.605
730.01	26.621
730.32	26.042
730.64	27.759
730.96	23.762
731.27	28.808
731.59	27.523
731.90	23.324
732.22	25.466
732.53	25.697
732.85	27.885
733.16	26.045
733.48	27.907
733.80	28.247
734.11	27.389
734.43	25.444
734.74	24.286
735.06	21.490
735.37	28.613
735.69	26.115
736.00	28.105
736.32	27.414
736.63	27.476
736.95	27.796
737.26	23.129
737.58	24.194
737.89	26.421
738.21	29.010
738.52	26.786
738.83	24.528
739.15	31.154
739.46	32.117
739.78	27.083
740.09	28.923
740.41	28.710
740.72	23.345
741.04	29.630
741.35	32.500
741.66	34.667
741.98	27.830
742.29	36.364
742.61	36.207
742.92	29.412
743.23	29.487
743.55	33.600
743.86	27.193
744.18	38.053
744.49	34.450
744.80	31.925
745.12	40.000
745.43	29.515
745.74	31.982
746.06	34.404
746.37	32.287
746.68	33.032
747.00	36.111
747.31	38.571
747.62	28.761
747.94	29.956
748.25	30.638
748.56	33.921
748.88	33.168
749.19	34.500
749.50	33.023
749.82	27.642
750.13	28.163
750.44	27.737
750.75	30.175
751.07	31.511
751.38	29.268
751.69	26.354
752.01	28.571
752.32	26.715
752.63	29.433
752.94	27.869
753.26	34.400
753.57	25.203
753.88	34.375
754.19	28.929
754.51	32.639
754.82	25.993
755.13	30.189
755.44	31.955
755.75	29.197
756.07	26.241
756.38	19.708
756.69	26.174
757.00	23.054
757.31	21.068
757.63	24.561
757.94	23.056
758.25	21.814
758.56	22.716
758.87	22.043
759.18	23.030
759.50	21.630
759.81	24.922
760.12	21.875
760.43	21.203
760.74	24.185
761.05	23.446
761.36	22.727
761.67	28.693
761.99	24.534
762.30	27.778
762.61	28.626
762.92	33.594
763.23	28.571
763.54	35.600
763.85	26.562
764.16	33.846
764.47	31.179
764.78	24.382
765.10	25.000
765.41	22.714
765.72	27.545
766.03	26.019
766.34	28.000
766.65	29.787
766.96	35.470
767.27	34.010
767.58	39.062
767.89	40.000
768.20	39.080
768.51	36.548
768.82	35.780
769.13	27.642
769.44	28.745
769.75	29.614
770.06	27.523
770.37	32.579
770.68	32.407
770.99	31.556
771.30	29.508
771.61	33.632
771.92	27.049
772.23	32.353
772.54	31.795
772.85	37.696
773.16	42.021
773.47	42.935
773.78	45.685
774.09	38.690
774.39	41.520
774.70	37.654
775.01	43.478
775.32	54.902
775.63	46.053
775.94	43.885
776.25	51.969
776.56	51.493
776.87	49.180
777.18	46.094
777.48	49.618
777.79	51.515
778.10	51.852
778.41	52.679
778.72	38.686
779.03	51.678
779.34	38.926
779.65	38.514
779.95	43.558
780.26	39.869
780.57	51.034
780.88	53.906
781.19	46.617
781.50	51.351
781.80	43.396
782.11	35.028
782.42	39.873
782.73	42.945
783.04	45.270
783.34	35.211
783.65	50.000
783.96	46.269
784.27	44.755
784.57	38.849
784.88	34.259
785.19	53.175
785.50	53.774
785.81	54.478
786.11	50.000
786.42	58.915
786.73	52.212
787.04	61.321
787.34	58.929
787.65	56.000
787.96	54.054
788.26	56.198
788.57	61.864
788.88	62.810
789.19	47.917
789.49	54.545
789.80	51.908
790.11	76.190
790.41	64.356
790.72	71.084
791.03	67.391
791.33	68.605
791.64	61.856
791.95	62.376
792.25	72.222
792.56	70.130
792.87	88.462
793.17	79.747
793.48	87.356
793.79	65.517
794.09	69.318
794.40	50.420
794.70	61.029
795.01	42.222
795.32	45.324
795.62	54.331
795.93	56.034
796.23	57.522
796.54	65.882
796.85	63.514
797.15	95.775
797.46	92.424
797.76	86.747
798.07	87.342
798.37	78.462
798.68	78.788
798.99	74.648
799.29	74.026
799.60	70.455
799.90	76.712
800.21	76.119
800.51	79.310
800.82	96.491
801.12	90.164
801.43	101.515
801.73	78.378
802.04	101.587
802.34	82.716
802.65	81.250
802.95	93.220
803.26	98.438
803.56	75.714
803.87	95.385
804.17	79.412
804.48	114.815
804.78	81.034
805.09	102.941
805.39	100.000
805.70	92.857
806.00	104.918
806.30	80.303
806.61	81.707
806.91	64.557
807.22	73.684
807.52	71.642
807.83	90.141
808.13	81.250
808.43	100.000
808.74	76.316
809.04	91.304
809.35	97.015
809.65	81.579
809.95	109.677
810.26	100.000
810.56	98.413
810.86	109.091
811.17	126.190
811.47	103.333
811.77	85.185
812.08	116.364
812.38	122.000
812.69	169.444
812.99	138.636
813.29	112.245
813.59	114.286
813.90	122.449
814.20	96.364
814.50	95.385
814.81	100.000
815.11	118.367
815.41	103.279
815.72	145.238
816.02	123.636
816.32	140.476
816.62	127.500
816.93	143.902
817.23	159.524
817.53	109.091
817.84	178.788
818.14	123.913
818.44	124.444
818.74	155.882
819.04	132.500
819.35	134.286
819.65	182.353
819.95	182.143
820.25	265.000
820.56	158.974
820.86	140.909
821.16	141.860
821.46	123.077
821.76	138.000
822.07	157.143
822.37	150.000
822.67	172.727
822.97	107.843
823.27	185.714
823.57	140.541
823.88	155.000
824.18	196.667
824.48	166.667
824.78	152.000
825.08	195.833
825.38	145.946
825.69	139.024
825.99	204.167
826.29	148.276
826.59	157.895
826.89	160.526
827.19	152.941
827.49	187.097
827.79	143.182
828.09	125.000
828.39	125.532
828.70	126.531
829.00	214.815
829.30	196.774
829.60	155.000
829.90	360.000
830.20	200.000
830.50	195.652
830.80	173.913
831.10	210.000
831.40	193.333
831.70	213.043
832.00	246.154
832.30	174.074
832.60	293.750
832.90	220.000
833.20	392.857
833.50	203.226
833.80	186.207
834.10	234.375
834.40	226.923
834.70	272.222
835.00	304.762
835.30	188.571
835.60	338.462
835.90	213.793
836.20	378.571
836.50	162.069
836.80	196.000
837.10	175.000
837.40	285.714
837.70	305.882
838.00	214.815
838.30	209.524
838.60	290.476
838.90	226.923
839.19	260.000
839.49	364.286
839.79	305.000
840.09	245.000
840.39	271.429
840.69	260.870
840.99	300.000
841.29	540.000
841.59	433.333
841.88	362.500
842.18	151.724
842.48	233.333
842.78	183.333
843.08	256.522
843.38	212.500
843.68	900.000
843.97	219.231
844.27	213.793
844.57	347.619
844.87	300.000
845.17	244.444
845.47	1533.333
845.76	522.222
846.06	358.824
846.36	500.000
846.66	414.286
846.96	343.750
847.25	454.545
847.55	490.909
847.85	260.870
848.15	470.000
848.44	364.286
848.74	250.000
849.04	270.588
849.34	580.000
849.63	331.579
849.93	490.909
850.23	1140.000
850.53	371.429
850.82	2400.000
851.12	-4000.000
851.42	4100.000
851.71	310.000
852.01	-1133.333
852.31	245.833
852.61	1966.667
852.90	242.857
853.20	224.000
853.50	370.588
853.79	276.190
854.09	237.500
854.39	400.000
854.68	148.649
854.98	200.000
855.28	163.333
855.57	206.897
855.87	214.815
856.17	247.368
856.46	260.000
856.76	358.824
857.05	206.897
857.35	262.500
857.65	393.333
857.94	230.435
858.24	238.462
858.53	255.000
858.83	250.000
859.13	353.333
859.42	0.000
859.72	600.000
860.01	481.818
860.31	304.545
860.60	294.737
860.90	217.391
861.20	622.222
861.49	516.667
861.79	-4500.000
862.08	762.500
862.38	261.905
862.67	330.769
862.97	376.471
863.26	577.778
863.56	255.556
863.85	350.000
864.15	487.500
864.44	393.333
864.74	833.333
865.03	612.500
865.33	247.368
865.62	518.182
865.92	461.538
866.21	433.333
866.51	0.000
866.80	390.909
867.10	1000.000
867.39	461.538
867.69	481.818
867.98	305.263
868.27	490.909
868.57	336.842
868.86	-5000.000
869.16	431.250
869.45	2350.000
869.75	-4400.000
870.04	416.667
870.33	685.714
870.63	1050.000
870.92	2300.000
871.22	685.714
871.51	347.059
871.80	238.095
872.10	350.000
>>>>>End Processed Spectral Data<<<<<
