SpectraSuite Data File
++++++++++++++++++++++++++++++++++++
Date: Wed May 13 19:33:52 PDT 2015
User: schluterlab
Dark Spectrum Present: Yes
Reference Spectrum Present: Yes
Number of Sampled Component Spectra: 1
Spectrometers: USB2E3373
Integration Time (usec): 3000 (USB2E3373)
Spectra Averaged: 3 (USB2E3373)
Boxcar Smoothing: 0 (USB2E3373)
Correct for Electrical Dark: No (USB2E3373)
Strobe/Lamp Enabled: No (USB2E3373)
Correct for Detector Non-linearity: No (USB2E3373)
Correct for Stray Light: No (USB2E3373)
Number of Pixels in Processed Spectrum: 2048
>>>>>Begin Processed Spectral Data<<<<<
178.53	0.000
178.91	-1450.000
179.29	-1375.000
179.67	-216.667
180.04	-1325.000
180.42	2950.000
180.80	1240.000
181.18	-1350.000
181.56	585.714
181.94	0.000
182.31	-585.714
182.69	1733.333
183.07	-587.500
183.45	-566.667
183.83	609.091
184.20	-430.000
184.58	2600.000
184.96	5300.000
185.34	-980.000
185.72	-625.000
186.09	-2550.000
186.47	2850.000
186.85	2650.000
187.23	5000.000
187.61	-1900.000
187.98	1550.000
188.36	581.818
188.74	572.727
189.12	-1020.000
189.49	590.000
189.87	-5600.000
190.25	-1325.000
190.63	435.714
191.00	553.846
191.38	1000.000
191.76	-1450.000
192.14	1550.000
192.51	575.000
192.89	983.333
193.27	687.500
193.65	-1325.000
194.02	610.000
194.40	1080.000
194.78	570.000
195.15	533.333
195.53	770.000
195.91	-2350.000
196.29	412.500
196.66	368.421
197.04	-400.000
197.42	0.000
197.79	690.000
198.17	-4600.000
198.55	685.714
198.92	750.000
199.30	1100.000
199.68	0.000
200.05	427.778
200.43	871.429
200.81	5600.000
201.18	1933.333
201.56	-1500.000
201.94	700.000
202.31	688.889
202.69	441.667
203.07	630.000
203.44	0.000
203.82	1350.000
204.19	800.000
204.57	450.000
204.95	625.000
205.32	1700.000
205.70	545.455
206.08	428.571
206.45	2750.000
206.83	412.500
207.20	950.000
207.58	880.000
207.96	377.778
208.33	787.500
208.71	-850.000
209.08	900.000
209.46	644.444
209.84	545.455
210.21	-1633.333
210.59	1475.000
210.96	-562.500
211.34	3150.000
211.71	610.000
212.09	783.333
212.46	0.000
212.84	1800.000
213.22	1600.000
213.59	-6000.000
213.97	900.000
214.34	885.714
214.72	518.182
215.09	1120.000
215.47	-2650.000
215.84	-2550.000
216.22	1733.333
216.59	457.143
216.97	1450.000
217.34	490.909
217.72	-833.333
218.09	0.000
218.47	-5100.000
218.84	644.444
219.22	814.286
219.59	1966.667
219.97	-700.000
220.34	940.000
220.72	-1766.667
221.09	485.714
221.47	1675.000
221.84	-883.333
222.22	0.000
222.59	1425.000
222.97	-3150.000
223.34	1240.000
223.72	438.462
224.09	1120.000
224.46	2450.000
224.84	-5900.000
225.21	-1100.000
225.59	-5100.000
225.96	630.000
226.34	365.000
226.71	2800.000
227.08	762.500
227.46	590.000
227.83	-1250.000
228.21	-2700.000
228.58	655.556
228.95	-2750.000
229.33	-2550.000
229.70	2233.333
230.08	842.857
230.45	-780.000
230.82	450.000
231.20	816.667
231.57	785.714
231.95	483.333
232.32	290.909
232.69	463.636
233.07	814.286
233.44	376.923
233.81	-1833.333
234.19	331.579
234.56	483.333
234.93	458.333
235.31	518.182
235.68	361.538
236.05	421.429
236.43	221.212
236.80	263.158
237.17	5700.000
237.55	271.429
237.92	260.714
238.29	228.571
238.67	203.226
239.04	231.034
239.41	152.778
239.79	130.435
240.16	154.762
240.53	181.818
240.91	133.333
241.28	144.000
241.65	112.000
242.02	110.145
242.40	117.742
242.77	111.667
243.14	81.720
243.51	97.753
243.89	84.706
244.26	95.556
244.63	78.495
245.00	78.723
245.38	81.188
245.75	74.766
246.12	67.890
246.49	75.912
246.87	82.400
247.24	74.615
247.61	67.857
247.98	66.667
248.36	63.514
248.73	60.510
249.10	63.694
249.47	56.497
249.84	60.428
250.22	55.615
250.59	57.396
250.96	56.566
251.33	52.607
251.70	53.465
252.08	58.571
252.45	46.637
252.82	50.870
253.19	45.957
253.56	49.412
253.94	49.793
254.31	50.781
254.68	52.308
255.05	46.863
255.42	45.528
255.79	49.632
256.16	45.126
256.54	46.290
256.91	49.466
257.28	41.007
257.65	40.924
258.02	44.099
258.39	42.902
258.76	42.475
259.14	44.048
259.51	44.985
259.88	42.236
260.25	43.505
260.62	39.595
260.99	41.304
261.36	42.943
261.73	41.547
262.10	39.535
262.47	44.507
262.85	40.669
263.22	40.171
263.59	39.886
263.96	39.560
264.33	37.598
264.70	40.526
265.07	40.665
265.44	40.404
265.81	36.496
266.18	40.452
266.55	35.854
266.92	39.558
267.29	39.815
267.66	34.862
268.03	38.182
268.40	36.215
268.77	35.561
269.14	35.586
269.51	37.020
269.88	38.228
270.25	34.086
270.62	34.831
270.99	39.140
271.36	37.124
271.73	36.682
272.10	32.174
272.47	35.914
272.84	39.610
273.21	39.832
273.58	36.463
273.95	34.172
274.32	34.917
274.69	33.405
275.06	34.055
275.43	37.234
275.80	35.271
276.17	33.809
276.54	37.630
276.91	34.980
277.28	32.422
277.65	35.590
278.02	34.369
278.39	38.477
278.76	31.455
279.13	34.151
279.50	35.382
279.87	35.458
280.23	35.529
280.60	33.462
280.97	33.457
281.34	36.283
281.71	35.455
282.08	34.357
282.45	33.273
282.82	34.281
283.19	31.373
283.56	30.877
283.92	34.010
284.29	32.628
284.66	33.938
285.03	30.741
285.40	31.338
285.77	33.670
286.14	31.088
286.51	31.667
286.87	34.701
287.24	31.922
287.61	31.300
287.98	31.331
288.35	30.111
288.72	31.620
289.08	31.299
289.45	30.807
289.82	30.244
290.19	29.042
290.56	29.556
290.93	28.248
291.29	28.221
291.66	29.941
292.03	30.378
292.40	29.222
292.77	27.219
293.13	28.657
293.50	27.988
293.87	27.704
294.24	27.852
294.60	26.929
294.97	26.744
295.34	28.350
295.71	27.273
296.08	25.499
296.44	25.997
296.81	25.495
297.18	28.049
297.55	24.670
297.91	25.726
298.28	25.971
298.65	26.501
299.02	26.877
299.38	25.498
299.75	23.854
300.12	24.393
300.48	24.750
300.85	24.168
301.22	24.459
301.59	21.843
301.95	25.945
302.32	25.546
302.69	24.492
303.05	24.000
303.42	24.444
303.79	23.103
304.15	23.077
304.52	22.827
304.89	21.719
305.25	24.014
305.62	24.689
305.99	24.439
306.35	22.707
306.72	22.870
307.09	25.305
307.45	23.311
307.82	23.996
308.19	23.289
308.55	22.762
308.92	24.812
309.29	22.703
309.65	22.906
310.02	24.630
310.38	22.903
310.75	22.492
311.12	23.746
311.48	22.780
311.85	22.956
312.22	23.517
312.58	22.349
312.95	23.442
313.31	22.136
313.68	22.661
314.05	23.866
314.41	24.020
314.78	23.263
315.14	22.741
315.51	23.687
315.87	23.069
316.24	23.337
316.61	24.756
316.97	24.560
317.34	22.994
317.70	25.430
318.07	24.447
318.43	26.223
318.80	25.679
319.16	26.083
319.53	26.360
319.89	26.381
320.26	27.500
320.62	26.984
320.99	29.596
321.35	28.990
321.72	28.747
322.08	29.516
322.45	31.244
322.81	30.911
323.18	32.177
323.54	30.705
323.91	31.698
324.27	33.078
324.64	33.551
325.00	32.552
325.37	34.031
325.73	35.548
326.10	36.011
326.46	36.380
326.83	36.324
327.19	36.892
327.56	36.847
327.92	38.233
328.29	38.154
328.65	40.331
329.01	40.523
329.38	42.183
329.74	40.720
330.11	42.224
330.47	42.516
330.84	42.188
331.20	41.439
331.56	40.092
331.93	42.963
332.29	43.035
332.66	41.947
333.02	42.230
333.38	43.451
333.75	42.959
334.11	44.217
334.48	43.390
334.84	45.221
335.20	44.273
335.57	43.336
335.93	44.196
336.29	44.322
336.66	44.995
337.02	43.167
337.38	45.000
337.75	43.316
338.11	44.494
338.47	44.475
338.84	45.280
339.20	44.404
339.56	46.077
339.93	44.364
340.29	44.022
340.65	44.831
341.02	44.764
341.38	45.552
341.74	43.772
342.11	44.978
342.47	45.374
342.83	44.435
343.20	45.974
343.56	44.229
343.92	45.439
344.28	45.408
344.65	45.744
345.01	45.118
345.37	45.111
345.73	45.008
346.10	45.951
346.46	46.441
346.82	45.634
347.19	45.781
347.55	45.567
347.91	44.660
348.27	46.097
348.63	46.154
349.00	45.227
349.36	46.059
349.72	46.111
350.08	45.462
350.45	47.356
350.81	45.735
351.17	45.948
351.53	45.864
351.89	45.462
352.26	47.277
352.62	46.431
352.98	45.138
353.34	45.522
353.70	46.563
354.07	46.774
354.43	46.111
354.79	47.064
355.15	46.608
355.51	47.802
355.87	46.694
356.24	45.847
356.60	45.309
356.96	47.707
357.32	47.751
357.68	47.559
358.04	46.002
358.40	47.110
358.77	46.635
359.13	47.198
359.49	46.588
359.85	46.190
360.21	47.608
360.57	46.459
360.93	48.462
361.29	47.014
361.66	47.446
362.02	49.104
362.38	48.061
362.74	47.321
363.10	46.706
363.46	48.423
363.82	48.450
364.18	46.843
364.54	47.920
364.90	48.371
365.26	48.088
365.62	47.845
365.98	47.261
366.35	47.278
366.71	48.735
367.07	48.361
367.43	49.202
367.79	49.322
368.15	49.210
368.51	49.273
368.87	48.751
369.23	48.866
369.59	49.964
369.95	48.456
370.31	49.858
370.67	49.420
371.03	50.562
371.39	49.781
371.75	50.662
372.11	48.222
372.47	51.100
372.83	50.865
373.19	50.289
373.55	50.554
373.91	52.430
374.27	50.172
374.63	50.036
374.99	51.271
375.35	49.895
375.71	50.034
376.07	51.235
376.42	51.169
376.78	51.292
377.14	50.543
377.50	51.854
377.86	50.598
378.22	51.138
378.58	49.561
378.94	51.603
379.30	52.354
379.66	51.713
380.02	52.580
380.38	51.366
380.74	52.341
381.09	52.139
381.45	53.165
381.81	51.843
382.17	52.675
382.53	52.453
382.89	53.765
383.25	53.784
383.61	54.275
383.97	52.846
384.32	51.903
384.68	53.036
385.04	52.305
385.40	52.755
385.76	54.238
386.12	54.145
386.48	54.059
386.83	55.933
387.19	55.659
387.55	53.741
387.91	55.018
388.27	54.323
388.62	53.964
388.98	54.668
389.34	55.194
389.70	53.893
390.06	55.640
390.42	55.707
390.77	56.489
391.13	56.158
391.49	55.711
391.85	55.888
392.20	55.079
392.56	57.134
392.92	56.092
393.28	55.740
393.64	55.576
393.99	55.406
394.35	56.762
394.71	55.897
395.07	55.389
395.42	58.096
395.78	57.761
396.14	57.604
396.50	57.769
396.85	58.423
397.21	57.090
397.57	57.285
397.92	57.332
398.28	56.839
398.64	56.511
399.00	58.478
399.35	57.360
399.71	57.986
400.07	58.368
400.42	58.037
400.78	58.504
401.14	57.744
401.49	59.224
401.85	57.532
402.21	57.066
402.57	58.544
402.92	59.458
403.28	60.150
403.63	59.344
403.99	59.554
404.35	58.788
404.70	58.993
405.06	59.231
405.42	59.451
405.77	57.943
406.13	58.183
406.49	59.018
406.84	58.712
407.20	59.456
407.55	59.030
407.91	60.533
408.27	62.157
408.62	58.940
408.98	58.395
409.34	59.779
409.69	60.839
410.05	60.843
410.40	60.550
410.76	60.932
411.11	60.072
411.47	61.278
411.83	60.843
412.18	59.926
412.54	60.897
412.89	60.542
413.25	61.452
413.60	61.581
413.96	60.170
414.31	60.814
414.67	61.027
415.03	61.391
415.38	61.469
415.74	62.830
416.09	63.553
416.45	62.048
416.80	63.186
417.16	63.606
417.51	62.575
417.87	61.657
418.22	63.281
418.58	63.008
418.93	63.452
419.29	61.935
419.64	63.539
420.00	62.866
420.35	62.087
420.71	63.957
421.06	62.530
421.42	61.988
421.77	63.565
422.12	61.089
422.48	63.033
422.83	64.065
423.19	63.149
423.54	64.945
423.90	64.058
424.25	63.261
424.61	63.750
424.96	63.907
425.31	63.843
425.67	63.034
426.02	64.057
426.38	66.606
426.73	64.658
427.09	65.775
427.44	65.727
427.79	64.405
428.15	64.881
428.50	64.892
428.85	65.375
429.21	65.875
429.56	65.319
429.92	64.519
430.27	63.952
430.62	64.311
430.98	64.712
431.33	64.227
431.68	65.236
432.04	64.963
432.39	67.047
432.74	67.145
433.10	66.780
433.45	67.114
433.80	66.020
434.16	65.331
434.51	64.684
434.86	66.363
435.22	67.927
435.57	68.936
435.92	66.472
436.28	67.319
436.63	68.212
436.98	66.514
437.34	67.740
437.69	68.261
438.04	67.622
438.39	67.224
438.75	67.868
439.10	68.827
439.45	68.713
439.81	67.190
440.16	68.041
440.51	67.487
440.86	68.153
441.22	68.409
441.57	67.357
441.92	67.042
442.27	67.976
442.63	67.457
442.98	68.901
443.33	65.924
443.68	68.095
444.03	68.277
444.39	67.186
444.74	67.262
445.09	67.439
445.44	68.234
445.79	67.986
446.15	67.390
446.50	67.905
446.85	68.191
447.20	68.587
447.55	68.844
447.91	69.388
448.26	67.223
448.61	68.852
448.96	69.214
449.31	68.616
449.66	69.049
450.02	68.189
450.37	68.594
450.72	69.656
451.07	68.434
451.42	67.295
451.77	70.288
452.12	67.148
452.47	68.595
452.83	70.163
453.18	68.704
453.53	69.326
453.88	68.163
454.23	69.456
454.58	70.624
454.93	70.820
455.28	69.451
455.63	69.964
455.98	69.940
456.34	71.294
456.69	70.758
457.04	69.845
457.39	69.725
457.74	68.601
458.09	69.293
458.44	68.301
458.79	68.221
459.14	68.962
459.49	69.410
459.84	68.089
460.19	68.768
460.54	67.303
460.89	68.897
461.24	68.974
461.59	69.901
461.94	68.064
462.29	71.276
462.64	68.730
462.99	67.079
463.34	70.600
463.69	69.794
464.04	69.043
464.39	68.000
464.74	68.568
465.09	67.612
465.44	67.479
465.79	68.512
466.14	66.721
466.49	68.020
466.84	68.243
467.19	68.075
467.54	69.000
467.89	69.748
468.24	68.412
468.59	69.719
468.94	68.723
469.29	68.445
469.64	70.214
469.99	70.568
470.34	70.410
470.68	71.408
471.03	69.116
471.38	71.716
471.73	69.154
472.08	70.066
472.43	70.226
472.78	67.874
473.13	69.255
473.48	67.978
473.83	68.780
474.17	68.762
474.52	69.045
474.87	70.344
475.22	69.008
475.57	66.631
475.92	68.295
476.27	67.644
476.61	68.285
476.96	68.224
477.31	67.085
477.66	69.037
478.01	67.067
478.36	68.588
478.70	68.640
479.05	68.424
479.40	68.321
479.75	67.717
480.10	68.390
480.45	67.730
480.79	68.132
481.14	66.732
481.49	68.439
481.84	68.633
482.19	67.833
482.53	65.917
482.88	67.659
483.23	67.850
483.58	66.697
483.92	68.697
484.27	66.231
484.62	66.724
484.97	65.865
485.31	66.781
485.66	63.643
486.01	61.735
486.36	59.265
486.70	59.096
487.05	60.329
487.40	62.513
487.75	63.390
488.09	64.635
488.44	65.377
488.79	68.391
489.13	67.647
489.48	68.352
489.83	66.767
490.17	67.909
490.52	66.829
490.87	66.576
491.22	67.576
491.56	66.469
491.91	66.915
492.26	67.019
492.60	66.682
492.95	65.529
493.30	66.822
493.64	67.009
493.99	66.388
494.34	66.327
494.68	67.262
495.03	67.716
495.37	66.496
495.72	66.764
496.07	67.285
496.41	65.000
496.76	66.315
497.11	65.466
497.45	65.673
497.80	65.691
498.14	65.556
498.49	66.683
498.84	66.539
499.18	66.143
499.53	66.619
499.87	66.869
500.22	64.814
500.56	67.379
500.91	65.385
501.26	67.046
501.60	65.971
501.95	66.040
502.29	66.823
502.64	66.015
502.98	66.293
503.33	64.991
503.67	64.316
504.02	65.295
504.36	65.232
504.71	65.608
505.06	65.446
505.40	65.095
505.75	64.802
506.09	65.403
506.44	65.861
506.78	65.904
507.13	65.876
507.47	65.859
507.82	66.109
508.16	65.502
508.51	66.514
508.85	66.435
509.19	66.173
509.54	65.153
509.88	64.915
510.23	66.375
510.57	67.492
510.92	66.442
511.26	65.365
511.61	66.961
511.95	64.823
512.30	65.589
512.64	65.986
512.98	67.042
513.33	66.328
513.67	63.661
514.02	65.909
514.36	67.013
514.70	65.966
515.05	66.592
515.39	66.405
515.74	66.723
516.08	66.350
516.42	66.926
516.77	67.001
517.11	65.816
517.46	66.253
517.80	66.202
518.14	64.737
518.49	66.803
518.83	66.818
519.17	66.628
519.52	66.780
519.86	66.458
520.20	66.012
520.55	67.026
520.89	67.701
521.23	67.732
521.58	67.227
521.92	67.912
522.26	66.016
522.61	68.162
522.95	65.746
523.29	66.951
523.64	67.256
523.98	67.160
524.32	66.285
524.66	66.566
525.01	66.912
525.35	66.605
525.69	65.456
526.04	65.234
526.38	65.955
526.72	65.583
527.06	66.102
527.41	64.851
527.75	65.916
528.09	67.630
528.43	66.221
528.78	65.212
529.12	66.000
529.46	65.646
529.80	66.151
530.15	65.919
530.49	64.000
530.83	65.443
531.17	67.232
531.51	68.029
531.86	66.645
532.20	66.102
532.54	66.047
532.88	67.330
533.22	65.022
533.57	63.827
533.91	63.396
534.25	63.609
534.59	63.026
534.93	63.653
535.27	65.359
535.62	65.018
535.96	65.913
536.30	64.336
536.64	64.263
536.98	66.092
537.32	63.529
537.66	64.933
538.01	65.372
538.35	64.706
538.69	63.816
539.03	64.327
539.37	63.387
539.71	64.809
540.05	65.229
540.39	65.183
540.73	63.454
541.07	63.011
541.42	65.819
541.76	63.677
542.10	64.618
542.44	64.901
542.78	64.756
543.12	63.596
543.46	63.344
543.80	64.867
544.14	62.003
544.48	64.444
544.82	63.182
545.16	64.411
545.50	62.982
545.84	63.508
546.18	62.963
546.52	64.831
546.86	64.330
547.20	63.924
547.54	62.525
547.88	63.202
548.22	62.017
548.56	62.075
548.90	61.204
549.24	62.963
549.58	62.960
549.92	64.354
550.26	65.767
550.60	61.964
550.94	63.592
551.28	63.789
551.62	64.127
551.96	62.456
552.30	62.662
552.64	62.948
552.98	63.593
553.32	63.250
553.66	63.531
554.00	63.830
554.34	62.871
554.68	63.090
555.02	62.835
555.36	63.326
555.69	61.705
556.03	61.104
556.37	61.869
556.71	62.483
557.05	62.255
557.39	62.351
557.73	61.962
558.07	63.452
558.41	63.676
558.75	63.556
559.08	63.908
559.42	65.231
559.76	63.382
560.10	62.170
560.44	61.356
560.78	60.346
561.12	61.609
561.45	61.147
561.79	61.107
562.13	60.966
562.47	62.022
562.81	61.994
563.15	60.936
563.48	61.472
563.82	62.035
564.16	60.432
564.50	59.766
564.84	58.913
565.17	59.331
565.51	59.744
565.85	61.041
566.19	59.236
566.52	60.038
566.86	57.685
567.20	59.021
567.54	58.333
567.88	56.871
568.21	57.037
568.55	56.421
568.89	56.323
569.23	54.100
569.56	53.239
569.90	53.132
570.24	53.211
570.57	52.227
570.91	51.002
571.25	50.618
571.59	51.193
571.92	50.115
572.26	50.722
572.60	51.441
572.93	50.555
573.27	50.813
573.61	50.391
573.95	50.388
574.28	49.271
574.62	48.858
574.96	48.435
575.29	48.982
575.63	49.441
575.97	49.596
576.30	49.628
576.64	48.446
576.98	48.785
577.31	48.752
577.65	47.926
577.98	47.768
578.32	46.902
578.66	48.071
578.99	48.185
579.33	48.705
579.67	48.504
580.00	47.974
580.34	49.383
580.67	48.428
581.01	48.437
581.35	47.228
581.68	46.792
582.02	46.458
582.35	46.456
582.69	46.807
583.02	47.667
583.36	48.421
583.70	48.676
584.03	49.347
584.37	49.328
584.70	49.451
585.04	48.092
585.37	47.926
585.71	48.214
586.04	47.717
586.38	48.485
586.72	48.605
587.05	48.519
587.39	47.784
587.72	47.642
588.06	48.106
588.39	48.587
588.73	49.076
589.06	49.891
589.40	49.663
589.73	49.595
590.07	49.929
590.40	49.909
590.73	50.859
591.07	50.956
591.40	50.401
591.74	51.212
592.07	50.131
592.41	50.475
592.74	49.850
593.08	48.068
593.41	47.960
593.75	46.502
594.08	47.637
594.41	48.427
594.75	48.614
595.08	48.604
595.42	48.967
595.75	48.469
596.09	49.606
596.42	49.037
596.75	49.557
597.09	51.039
597.42	49.115
597.75	49.418
598.09	49.217
598.42	48.797
598.76	48.480
599.09	47.815
599.42	46.761
599.76	47.145
600.09	47.322
600.42	46.822
600.76	46.464
601.09	47.614
601.42	46.804
601.76	47.894
602.09	47.708
602.42	48.368
602.76	48.206
603.09	48.308
603.42	48.614
603.76	46.913
604.09	46.413
604.42	47.778
604.76	48.503
605.09	48.493
605.42	47.285
605.75	48.055
606.09	47.824
606.42	48.100
606.75	47.366
607.09	46.923
607.42	47.711
607.75	45.992
608.08	46.895
608.42	47.243
608.75	47.430
609.08	48.242
609.41	47.454
609.75	48.499
610.08	48.351
610.41	48.557
610.74	48.581
611.07	50.000
611.41	47.645
611.74	49.472
612.07	48.033
612.40	49.161
612.73	47.895
613.07	50.216
613.40	49.394
613.73	47.509
614.06	48.495
614.39	48.558
614.72	47.789
615.06	47.899
615.39	48.036
615.72	47.597
616.05	47.741
616.38	49.305
616.71	49.762
617.05	48.881
617.38	49.008
617.71	50.090
618.04	49.099
618.37	48.019
618.70	49.347
619.03	51.382
619.36	51.120
619.69	50.704
620.03	51.442
620.36	50.668
620.69	51.096
621.02	50.885
621.35	50.901
621.68	50.857
622.01	51.393
622.34	51.210
622.67	51.103
623.00	49.523
623.33	49.035
623.66	52.180
623.99	51.399
624.32	50.357
624.65	49.364
624.99	49.504
625.32	51.050
625.65	50.188
625.98	51.345
626.31	50.933
626.64	52.163
626.97	51.953
627.30	52.369
627.63	52.174
627.96	52.817
628.29	53.018
628.62	52.790
628.95	54.245
629.28	51.095
629.61	53.987
629.94	53.143
630.26	52.812
630.59	52.812
630.92	52.490
631.25	52.813
631.58	52.452
631.91	54.868
632.24	54.958
632.57	52.676
632.90	55.373
633.23	54.027
633.56	55.819
633.89	54.360
634.22	54.143
634.55	58.580
634.88	54.970
635.20	56.153
635.53	56.386
635.86	56.312
636.19	55.647
636.52	54.095
636.85	53.837
637.18	54.608
637.51	53.664
637.83	51.788
638.16	56.010
638.49	55.164
638.82	57.396
639.15	55.250
639.48	55.611
639.81	57.641
640.13	55.339
640.46	54.765
640.79	55.878
641.12	54.470
641.45	56.844
641.77	57.732
642.10	59.503
642.43	56.456
642.76	60.681
643.09	59.509
643.41	56.904
643.74	56.636
644.07	56.402
644.40	59.816
644.73	57.323
645.05	59.113
645.38	56.872
645.71	58.615
646.04	58.804
646.36	62.104
646.69	61.706
647.02	60.204
647.35	59.622
647.67	60.177
648.00	58.699
648.33	55.941
648.66	54.697
648.98	56.372
649.31	56.353
649.64	55.157
649.96	54.844
650.29	55.450
650.62	55.016
650.94	56.726
651.27	59.628
651.60	56.073
651.92	54.792
652.25	55.212
652.58	54.206
652.90	58.294
653.23	54.391
653.56	56.063
653.88	54.675
654.21	55.134
654.54	57.756
654.86	55.452
655.19	52.568
655.52	34.728
655.84	29.955
656.17	38.847
656.49	52.210
656.82	54.456
657.15	41.978
657.47	31.729
657.80	24.379
658.13	25.965
658.45	39.628
658.78	39.666
659.10	41.517
659.43	44.588
659.75	47.253
660.08	51.519
660.41	56.425
660.73	58.069
661.06	58.758
661.38	60.000
661.71	60.385
662.03	60.355
662.36	56.064
662.68	57.631
663.01	58.990
663.33	60.297
663.66	58.613
663.98	57.451
664.31	60.714
664.63	55.870
664.96	54.930
665.28	59.221
665.61	56.140
665.93	55.734
666.26	59.432
666.58	57.322
666.91	59.197
667.23	58.876
667.56	58.531
667.88	60.684
668.21	58.209
668.53	59.653
668.86	60.390
669.18	59.062
669.50	58.478
669.83	60.566
670.15	60.000
670.48	59.041
670.80	62.284
671.13	58.386
671.45	54.894
671.77	56.212
672.10	54.898
672.42	51.413
672.75	54.063
673.07	53.345
673.39	52.622
673.72	56.250
674.04	55.882
674.37	54.757
674.69	56.851
675.01	53.138
675.34	58.727
675.66	57.684
675.98	53.564
676.31	55.252
676.63	57.325
676.95	54.927
677.28	59.579
677.60	56.264
677.92	56.962
678.25	53.799
678.57	53.785
678.89	54.108
679.22	51.473
679.54	54.389
679.86	52.661
680.18	53.309
680.51	53.546
680.83	51.246
681.15	53.019
681.48	55.766
681.80	53.772
682.12	52.299
682.44	50.290
682.77	53.564
683.09	57.940
683.41	56.319
683.73	54.746
684.06	54.132
684.38	51.076
684.70	51.938
685.02	53.283
685.34	50.000
685.67	48.601
685.99	48.282
686.31	49.659
686.63	47.880
686.96	48.750
687.28	51.625
687.60	53.080
687.92	53.748
688.24	50.570
688.56	52.410
688.89	56.224
689.21	55.677
689.53	51.148
689.85	56.763
690.17	50.518
690.49	53.291
690.82	56.075
691.14	51.116
691.46	53.165
691.78	50.201
692.10	53.719
692.42	51.896
692.74	47.925
693.06	52.340
693.39	50.924
693.71	53.493
694.03	55.158
694.35	51.299
694.67	52.860
694.99	56.585
695.31	51.471
695.63	53.349
695.95	57.702
696.27	56.345
696.59	54.663
696.91	56.218
697.23	52.347
697.56	50.533
697.88	45.399
698.20	51.667
698.52	52.473
698.84	50.780
699.16	51.613
699.48	54.394
699.80	52.899
700.12	60.000
700.44	58.355
700.76	54.420
701.08	55.172
701.40	54.469
701.72	55.394
702.04	60.227
702.36	49.008
702.68	56.091
703.00	56.510
703.32	51.862
703.64	51.206
703.96	57.939
704.28	56.395
704.60	53.959
704.91	58.160
705.23	55.718
705.55	65.781
705.87	62.458
706.19	63.958
706.51	56.075
706.83	58.485
707.15	53.782
707.47	50.253
707.79	52.580
708.11	49.315
708.43	50.714
708.74	50.765
709.06	52.468
709.38	53.281
709.70	55.814
710.02	57.567
710.34	56.970
710.66	54.030
710.98	55.966
711.29	55.814
711.61	56.637
711.93	53.205
712.25	56.913
712.57	59.559
712.89	58.824
713.20	53.799
713.52	57.895
713.84	55.063
714.16	52.744
714.48	52.011
714.80	55.623
715.11	55.620
715.43	54.599
715.75	51.014
716.07	59.105
716.39	55.172
716.70	57.807
717.02	59.712
717.34	54.417
717.66	61.194
717.97	63.745
718.29	54.074
718.61	57.664
718.93	59.191
719.24	55.709
719.56	53.898
719.88	57.627
720.20	59.797
720.51	59.233
720.83	56.877
721.15	59.328
721.46	55.674
721.78	55.556
722.10	60.377
722.42	55.639
722.73	55.805
723.05	63.115
723.37	63.158
723.68	61.390
724.00	55.691
724.32	60.081
724.63	62.195
724.95	61.925
725.27	59.514
725.58	59.375
725.90	58.759
726.22	53.962
726.53	54.167
726.85	50.512
727.16	53.381
727.48	55.674
727.80	55.682
728.11	57.971
728.43	56.923
728.74	55.556
729.06	58.029
729.38	61.029
729.69	53.025
730.01	51.536
730.32	51.389
730.64	52.843
730.96	49.175
731.27	54.967
731.59	53.211
731.90	50.437
732.22	50.621
732.53	52.012
732.85	51.282
733.16	51.768
733.48	50.831
733.80	52.273
734.11	52.866
734.43	47.929
734.74	49.429
735.06	45.845
735.37	52.023
735.69	49.682
736.00	50.980
736.32	52.336
736.63	49.201
736.95	51.438
737.26	46.259
737.58	52.258
737.89	53.177
738.21	50.512
738.52	54.286
738.83	52.075
739.15	52.692
739.46	56.204
739.78	56.597
740.09	48.923
740.41	54.839
740.72	49.477
741.04	55.185
741.35	53.333
741.66	58.667
741.98	56.132
742.29	68.421
742.61	59.914
742.92	61.538
743.23	56.410
743.55	55.600
743.86	58.333
744.18	60.177
744.49	61.244
744.80	61.502
745.12	63.636
745.43	52.863
745.74	61.261
746.06	56.422
746.37	59.641
746.68	59.729
747.00	59.722
747.31	62.857
747.62	52.655
747.94	57.709
748.25	50.638
748.56	59.912
748.88	63.366
749.19	69.000
749.50	58.605
749.82	56.504
750.13	55.918
750.44	52.920
750.75	52.281
751.07	50.804
751.38	54.007
751.69	53.430
752.01	51.504
752.32	48.375
752.63	52.128
752.94	53.689
753.26	55.200
753.57	52.439
753.88	55.469
754.19	49.643
754.51	54.514
754.82	48.014
755.13	56.981
755.44	56.015
755.75	45.985
756.07	53.546
756.38	50.000
756.69	46.980
757.00	45.210
757.31	45.994
757.63	42.982
757.94	45.308
758.25	42.402
758.56	42.963
758.87	41.129
759.18	46.667
759.50	45.768
759.81	46.106
760.12	42.500
760.43	44.126
760.74	45.109
761.05	47.458
761.36	42.781
761.67	48.011
761.99	44.099
762.30	46.528
762.61	51.527
762.92	53.516
763.23	48.319
763.54	56.800
763.85	52.734
764.16	56.154
764.47	50.190
764.78	47.703
765.10	45.570
765.41	46.313
765.72	43.713
766.03	46.082
766.34	47.000
766.65	56.170
766.96	57.692
767.27	58.883
767.58	59.375
767.89	65.263
768.20	64.943
768.51	60.406
768.82	56.422
769.13	47.561
769.44	51.012
769.75	50.644
770.06	49.083
770.37	55.204
770.68	56.019
770.99	46.222
771.30	49.590
771.61	55.605
771.92	54.918
772.23	56.303
772.54	60.000
772.85	62.304
773.16	57.979
773.47	60.870
773.78	57.360
774.09	62.500
774.39	64.912
774.70	66.049
775.01	71.014
775.32	69.935
775.63	69.737
775.94	60.432
776.25	76.378
776.56	77.612
776.87	72.951
777.18	78.125
777.48	77.863
777.79	75.000
778.10	70.370
778.41	77.679
778.72	59.854
779.03	69.128
779.34	62.416
779.65	70.270
779.95	65.031
780.26	70.588
780.57	72.414
780.88	80.469
781.19	69.173
781.50	72.973
781.80	67.925
782.11	52.542
782.42	62.025
782.73	60.123
783.04	68.919
783.34	63.380
783.65	69.178
783.96	75.373
784.27	58.741
784.57	61.871
784.88	71.296
785.19	75.397
785.50	78.302
785.81	77.612
786.11	77.869
786.42	76.744
786.73	66.372
787.04	85.849
787.34	86.607
787.65	88.000
787.96	77.477
788.26	66.942
788.57	72.034
788.88	76.033
789.19	70.139
789.49	78.788
789.80	70.229
790.11	87.619
790.41	92.079
790.72	84.337
791.03	91.304
791.33	79.070
791.64	80.412
791.95	86.139
792.25	92.222
792.56	101.299
792.87	110.256
793.17	113.924
793.48	94.253
793.79	91.954
794.09	89.773
794.40	76.471
794.70	60.294
795.01	60.000
795.32	67.626
795.62	70.866
795.93	78.448
796.23	74.336
796.54	88.235
796.85	87.838
797.15	111.268
797.46	107.576
797.76	98.795
798.07	101.266
798.37	107.692
798.68	110.606
798.99	77.465
799.29	93.506
799.60	86.364
799.90	109.589
800.21	117.910
800.51	124.138
800.82	135.088
801.12	111.475
801.43	113.636
801.73	93.243
802.04	115.873
802.34	107.407
802.65	117.187
802.95	120.339
803.26	126.563
803.56	105.714
803.87	109.231
804.17	104.412
804.48	138.889
804.78	122.414
805.09	94.118
805.39	136.538
805.70	103.571
806.00	121.311
806.30	109.091
806.61	98.780
806.91	101.266
807.22	100.000
807.52	97.015
807.83	107.042
808.13	109.375
808.43	140.000
808.74	81.579
809.04	105.797
809.35	104.478
809.65	103.947
809.95	130.645
810.26	115.254
810.56	103.175
810.86	179.545
811.17	147.619
811.47	130.000
811.77	124.074
812.08	145.455
812.38	124.000
812.69	169.444
812.99	172.727
813.29	148.980
813.59	147.619
813.90	130.612
814.20	127.273
814.50	104.615
814.81	117.647
815.11	134.694
815.41	101.639
815.72	188.095
816.02	140.000
816.32	159.524
816.62	165.000
816.93	146.341
817.23	183.333
817.53	154.545
817.84	187.879
818.14	152.174
818.44	157.778
818.74	197.059
819.04	165.000
819.35	174.286
819.65	188.235
819.95	185.714
820.25	255.000
820.56	192.308
820.86	168.182
821.16	165.116
821.46	151.282
821.76	166.000
822.07	182.857
822.37	207.500
822.67	221.212
822.97	121.569
823.27	210.714
823.57	197.297
823.88	185.000
824.18	216.667
824.48	152.381
824.78	212.000
825.08	225.000
825.38	172.973
825.69	165.854
825.99	325.000
826.29	148.276
826.59	189.474
826.89	168.421
827.19	200.000
827.49	216.129
827.79	177.273
828.09	150.000
828.39	138.298
828.70	146.939
829.00	181.481
829.30	251.613
829.60	157.500
829.90	380.000
830.20	192.857
830.50	226.087
830.80	282.609
831.10	230.000
831.40	213.333
831.70	221.739
832.00	257.692
832.30	266.667
832.60	281.250
832.90	223.333
833.20	421.429
833.50	222.581
833.80	189.655
834.10	215.625
834.40	242.308
834.70	300.000
835.00	361.905
835.30	180.000
835.60	407.692
835.90	251.724
836.20	435.714
836.50	251.724
836.80	216.000
837.10	161.111
837.40	285.714
837.70	382.353
838.00	240.741
838.30	228.571
838.60	314.286
838.90	253.846
839.19	290.000
839.49	442.857
839.79	375.000
840.09	325.000
840.39	314.286
840.69	265.217
840.99	366.667
841.29	530.000
841.59	441.667
841.88	368.750
842.18	210.345
842.48	304.762
842.78	230.000
843.08	252.174
843.38	228.125
843.68	1050.000
843.97	250.000
844.27	210.345
844.57	309.524
844.87	318.750
845.17	225.926
845.47	1700.000
845.76	522.222
846.06	323.529
846.36	587.500
846.66	478.571
846.96	318.750
847.25	527.273
847.55	481.818
847.85	278.261
848.15	580.000
848.44	421.429
848.74	272.222
849.04	347.059
849.34	620.000
849.63	226.316
849.93	490.909
850.23	1200.000
850.53	464.286
850.82	2500.000
851.12	-4700.000
851.42	5700.000
851.71	290.000
852.01	-1600.000
852.31	270.833
852.61	2000.000
852.90	290.476
853.20	232.000
853.50	329.412
853.79	276.190
854.09	183.333
854.39	375.000
854.68	205.405
854.98	251.613
855.28	213.333
855.57	224.138
855.87	248.148
856.17	242.105
856.46	300.000
856.76	276.471
857.05	206.897
857.35	241.667
857.65	306.667
857.94	252.174
858.24	223.077
858.53	275.000
858.83	281.818
859.13	366.667
859.42	0.000
859.72	611.111
860.01	427.273
860.31	313.636
860.60	321.053
860.90	243.478
861.20	666.667
861.49	516.667
861.79	-4000.000
862.08	662.500
862.38	271.429
862.67	400.000
862.97	358.824
863.26	622.222
863.56	300.000
863.85	508.333
864.15	662.500
864.44	373.333
864.74	933.333
865.03	675.000
865.33	331.579
865.62	518.182
865.92	446.154
866.21	441.667
866.51	0.000
866.80	400.000
867.10	1220.000
867.39	530.769
867.69	500.000
867.98	321.053
868.27	536.364
868.57	373.684
868.86	-4300.000
869.16	387.500
869.45	2650.000
869.75	-5100.000
870.04	425.000
870.33	771.429
870.63	1350.000
870.92	3500.000
871.22	985.714
871.51	376.471
871.80	223.810
872.10	392.857
>>>>>End Processed Spectral Data<<<<<
