SpectraSuite Data File
++++++++++++++++++++++++++++++++++++
Date: Wed May 13 19:30:32 PDT 2015
User: schluterlab
Dark Spectrum Present: Yes
Reference Spectrum Present: Yes
Number of Sampled Component Spectra: 1
Spectrometers: USB2E3373
Integration Time (usec): 3000 (USB2E3373)
Spectra Averaged: 3 (USB2E3373)
Boxcar Smoothing: 0 (USB2E3373)
Correct for Electrical Dark: No (USB2E3373)
Strobe/Lamp Enabled: No (USB2E3373)
Correct for Detector Non-linearity: No (USB2E3373)
Correct for Stray Light: No (USB2E3373)
Number of Pixels in Processed Spectrum: 2048
>>>>>Begin Processed Spectral Data<<<<<
178.53	0.000
178.91	-1500.000
179.29	-1150.000
179.67	-261.111
180.04	-1350.000
180.42	2950.000
180.80	1300.000
181.18	-1175.000
181.56	742.857
181.94	0.000
182.31	-771.429
182.69	1933.333
183.07	-600.000
183.45	-511.111
183.83	545.455
184.20	-410.000
184.58	2500.000
184.96	5900.000
185.34	-940.000
185.72	-537.500
186.09	-2250.000
186.47	2500.000
186.85	2550.000
187.23	5400.000
187.61	-1666.667
187.98	1475.000
188.36	536.364
188.74	527.273
189.12	-920.000
189.49	610.000
189.87	-5000.000
190.25	-1150.000
190.63	442.857
191.00	415.385
191.38	850.000
191.76	-1350.000
192.14	1500.000
192.51	650.000
192.89	1100.000
193.27	687.500
193.65	-1250.000
194.02	570.000
194.40	1040.000
194.78	570.000
195.15	608.333
195.53	620.000
195.91	-2300.000
196.29	368.750
196.66	352.632
197.04	-350.000
197.42	0.000
197.79	560.000
198.17	-4700.000
198.55	814.286
198.92	725.000
199.30	1040.000
199.68	0.000
200.05	383.333
200.43	885.714
200.81	4900.000
201.18	1933.333
201.56	-1733.333
201.94	600.000
202.31	566.667
202.69	491.667
203.07	570.000
203.44	0.000
203.82	1350.000
204.19	814.286
204.57	457.143
204.95	750.000
205.32	1466.667
205.70	545.455
206.08	385.714
206.45	2400.000
206.83	368.750
207.20	933.333
207.58	700.000
207.96	333.333
208.33	650.000
208.71	-883.333
209.08	857.143
209.46	577.778
209.84	500.000
210.21	-1933.333
210.59	1650.000
210.96	-575.000
211.34	2450.000
211.71	770.000
212.09	783.333
212.46	0.000
212.84	1766.667
213.22	1350.000
213.59	-4200.000
213.97	866.667
214.34	842.857
214.72	663.636
215.09	880.000
215.47	-2300.000
215.84	-2550.000
216.22	2033.333
216.59	478.571
216.97	1600.000
217.34	472.727
217.72	-750.000
218.09	0.000
218.47	-4500.000
218.84	711.111
219.22	714.286
219.59	1833.333
219.97	-728.571
220.34	1120.000
220.72	-1866.667
221.09	407.143
221.47	1400.000
221.84	-1066.667
222.22	0.000
222.59	1350.000
222.97	-2450.000
223.34	1240.000
223.72	392.308
224.09	1080.000
224.46	2650.000
224.84	-4700.000
225.21	-1080.000
225.59	-5100.000
225.96	640.000
226.34	360.000
226.71	2800.000
227.08	687.500
227.46	660.000
227.83	-1300.000
228.21	-1900.000
228.58	666.667
228.95	-2800.000
229.33	-2350.000
229.70	1900.000
230.08	871.429
230.45	-920.000
230.82	508.333
231.20	850.000
231.57	700.000
231.95	500.000
232.32	281.818
232.69	463.636
233.07	700.000
233.44	400.000
233.81	-2066.667
234.19	300.000
234.56	500.000
234.93	408.333
235.31	490.909
235.68	376.923
236.05	342.857
236.43	230.303
236.80	305.263
237.17	3500.000
237.55	247.619
237.92	228.571
238.29	261.905
238.67	187.097
239.04	217.241
239.41	158.333
239.79	134.783
240.16	152.381
240.53	150.000
240.91	125.490
241.28	130.000
241.65	114.000
242.02	107.246
242.40	90.323
242.77	110.000
243.14	84.946
243.51	89.888
243.89	94.118
244.26	80.000
244.63	90.323
245.00	81.915
245.38	92.079
245.75	67.290
246.12	60.550
246.49	75.912
246.87	65.600
247.24	68.462
247.61	65.000
247.98	65.359
248.36	60.811
248.73	61.783
249.10	64.331
249.47	59.322
249.84	60.428
250.22	49.733
250.59	55.030
250.96	62.626
251.33	54.028
251.70	53.465
252.08	50.952
252.45	53.363
252.82	50.435
253.19	52.340
253.56	50.196
253.94	50.622
254.31	44.922
254.68	48.462
255.05	48.339
255.42	43.089
255.79	49.632
256.16	50.903
256.54	46.290
256.91	50.534
257.28	46.043
257.65	44.554
258.02	44.410
258.39	43.533
258.76	42.140
259.14	45.833
259.51	40.426
259.88	40.373
260.25	47.734
260.62	41.040
260.99	43.168
261.36	42.342
261.73	43.553
262.10	43.605
262.47	44.507
262.85	40.947
263.22	35.897
263.59	42.450
263.96	40.659
264.33	38.642
264.70	40.526
265.07	42.711
265.44	41.162
265.81	38.686
266.18	41.206
266.55	39.268
266.92	40.295
267.29	38.889
267.66	37.615
268.03	38.636
268.40	38.551
268.77	36.516
269.14	36.712
269.51	40.632
269.88	40.793
270.25	40.181
270.62	37.753
270.99	38.710
271.36	36.052
271.73	41.355
272.10	37.609
272.47	36.129
272.84	34.848
273.21	36.688
273.58	37.555
273.95	35.849
274.32	33.264
274.69	34.261
275.06	35.433
275.43	36.383
275.80	34.068
276.17	36.049
276.54	37.214
276.91	37.154
277.28	34.570
277.65	34.816
278.02	34.783
278.39	33.594
278.76	34.000
279.13	33.396
279.50	34.078
279.87	33.466
280.23	35.529
280.60	33.075
280.97	33.641
281.34	35.221
281.71	34.545
282.08	32.630
282.45	32.364
282.82	33.925
283.19	33.690
283.56	31.754
283.92	33.672
284.29	31.570
284.66	34.301
285.03	33.092
285.40	33.627
285.77	31.818
286.14	31.261
286.51	32.833
286.87	32.479
287.24	31.596
287.61	32.103
287.98	31.656
288.35	32.171
288.72	31.153
289.08	30.360
289.45	29.654
289.82	30.894
290.19	28.728
290.56	29.709
290.93	29.758
291.29	29.448
291.66	29.204
292.03	29.215
292.40	30.837
292.77	28.846
293.13	28.955
293.50	30.612
293.87	27.704
294.24	28.741
294.60	25.182
294.97	26.599
295.34	29.196
295.71	28.409
296.08	25.783
296.44	26.410
296.81	24.703
297.18	28.184
297.55	25.462
297.91	27.177
298.28	26.640
298.65	28.198
299.02	26.350
299.38	25.232
299.75	25.876
300.12	25.415
300.48	24.500
300.85	24.538
301.22	25.605
301.59	25.379
301.95	24.685
302.32	24.519
302.69	25.687
303.05	24.121
303.42	24.691
303.79	24.689
304.15	23.427
304.52	21.553
304.89	23.810
305.25	23.086
305.62	26.501
305.99	23.140
306.35	24.497
306.72	23.879
307.09	23.751
307.45	25.563
307.82	23.661
308.19	25.386
308.55	24.703
308.92	24.382
309.29	23.442
309.65	23.224
310.02	24.524
310.38	23.548
310.75	24.604
311.12	25.179
311.48	23.824
311.85	25.891
312.22	24.766
312.58	23.701
312.95	25.871
313.31	24.466
313.68	25.780
314.05	26.134
314.41	24.824
314.78	26.385
315.14	24.926
315.51	24.717
315.87	26.733
316.24	26.912
316.61	26.803
316.97	25.930
317.34	25.049
317.70	26.291
318.07	26.083
318.43	26.027
318.80	27.648
319.16	28.060
319.53	25.704
319.89	28.095
320.26	28.200
320.62	27.480
320.99	28.889
321.35	27.475
321.72	28.953
322.08	28.529
322.45	30.846
322.81	28.973
323.18	27.842
323.54	29.406
323.91	28.679
324.27	30.115
324.64	28.145
325.00	28.945
325.37	30.846
325.73	31.418
326.10	30.627
326.46	29.839
326.83	30.544
327.19	29.974
327.56	31.098
327.92	31.584
328.29	31.233
328.65	31.584
329.01	31.137
329.38	32.192
329.74	33.056
330.11	32.045
330.47	32.691
330.84	31.618
331.20	31.967
331.56	31.284
331.93	32.593
332.29	31.766
332.66	33.009
333.02	33.364
333.38	33.333
333.75	32.086
334.11	32.295
334.48	30.878
334.84	31.618
335.20	32.636
335.57	32.004
335.93	30.893
336.29	30.952
336.66	31.199
337.02	30.950
337.38	32.963
337.75	30.481
338.11	30.976
338.47	31.676
338.84	31.989
339.20	31.009
339.56	32.938
339.93	31.455
340.29	32.065
340.65	31.373
341.02	32.548
341.38	32.028
341.74	30.702
342.11	32.140
342.47	32.952
342.83	32.363
343.20	32.554
343.56	30.918
343.92	31.579
344.28	32.143
344.65	32.846
345.01	31.229
345.37	31.046
345.73	31.641
346.10	31.714
346.46	31.780
346.82	31.301
347.19	31.245
347.55	31.363
347.91	31.958
348.27	32.621
348.63	32.358
349.00	31.553
349.36	31.445
349.72	30.874
350.08	31.280
350.45	32.710
350.81	31.763
351.17	31.686
351.53	33.251
351.89	31.931
352.26	32.439
352.62	32.077
352.98	31.199
353.34	31.306
353.70	31.342
354.07	31.774
354.43	30.476
354.79	30.410
355.15	31.684
355.51	33.573
355.87	32.408
356.24	32.003
356.60	30.714
356.96	32.341
357.32	30.989
357.68	31.969
358.04	31.671
358.40	31.116
358.77	31.064
359.13	31.176
359.49	31.765
359.85	31.746
360.21	31.978
360.57	32.607
360.93	32.000
361.29	29.705
361.66	31.502
362.02	32.239
362.38	32.015
362.74	32.366
363.10	30.718
363.46	30.741
363.82	31.519
364.18	30.617
364.54	32.021
364.90	32.011
365.26	31.324
365.62	32.213
365.98	31.848
366.35	30.587
366.71	32.610
367.07	31.318
367.43	32.148
367.79	31.620
368.15	33.190
368.51	31.468
368.87	33.833
369.23	31.895
369.59	31.789
369.95	32.206
370.31	32.051
370.67	31.594
371.03	31.985
371.39	30.977
371.75	32.059
372.11	32.077
372.47	32.331
372.83	32.709
373.19	30.925
373.55	32.594
373.91	33.505
374.27	31.615
374.63	32.145
374.99	32.627
375.35	31.821
375.71	32.077
376.07	32.990
376.42	32.187
376.78	32.604
377.14	33.175
377.50	32.715
377.86	31.981
378.22	33.123
378.58	31.516
378.94	31.804
379.30	31.489
379.66	32.805
380.02	32.432
380.38	30.540
380.74	33.253
381.09	33.007
381.45	33.805
381.81	32.494
382.17	33.758
382.53	33.711
382.89	33.827
383.25	32.958
383.61	34.139
383.97	33.146
384.32	33.125
384.68	32.280
385.04	33.313
385.40	32.755
385.76	33.907
386.12	33.808
386.48	33.984
386.83	34.766
387.19	34.385
387.55	33.952
387.91	33.374
388.27	33.415
388.62	34.726
388.98	33.170
389.34	35.106
389.70	34.335
390.06	35.234
390.42	35.473
390.77	33.206
391.13	34.971
391.49	34.898
391.85	35.837
392.20	34.511
392.56	34.533
392.92	34.667
393.28	33.964
393.64	35.072
393.99	34.820
394.35	35.112
394.71	35.069
395.07	34.517
395.42	34.858
395.78	34.987
396.14	35.009
396.50	37.531
396.85	36.618
397.21	35.573
397.57	35.586
397.92	35.998
398.28	35.594
398.64	35.962
399.00	35.087
399.35	35.477
399.71	35.648
400.07	36.606
400.42	36.564
400.78	36.972
401.14	37.134
401.49	36.597
401.85	35.995
402.21	36.826
402.57	36.582
402.92	36.948
403.28	37.414
403.63	37.191
403.99	37.134
404.35	37.515
404.70	36.451
405.06	36.692
405.42	37.492
405.77	37.429
406.13	37.810
406.49	37.079
406.84	36.621
407.20	37.648
407.55	38.800
407.91	37.733
408.27	38.609
408.62	38.892
408.98	38.358
409.34	38.192
409.69	39.226
410.05	39.095
410.40	38.593
410.76	37.575
411.11	39.264
411.47	38.722
411.83	39.462
412.18	39.023
412.54	39.788
412.89	38.614
413.25	39.551
413.60	40.148
413.96	39.709
414.31	39.915
414.67	39.670
415.03	40.861
415.38	39.433
415.74	40.579
416.09	41.019
416.45	40.495
416.80	39.590
417.16	41.153
417.51	41.009
417.87	39.756
418.22	40.946
418.58	41.575
418.93	41.708
419.29	40.993
419.64	40.176
420.00	40.610
420.35	41.217
420.71	41.363
421.06	40.155
421.42	40.409
421.77	41.087
422.12	39.921
422.48	40.961
422.83	41.235
423.19	41.768
423.54	41.788
423.90	40.986
424.25	41.429
424.61	41.071
424.96	42.682
425.31	41.750
425.67	41.124
426.02	41.543
426.38	42.308
426.73	40.784
427.09	42.614
427.44	42.898
427.79	41.921
428.15	41.905
428.50	42.422
428.85	43.027
429.21	42.076
429.56	41.524
429.92	41.721
430.27	42.056
430.62	41.321
430.98	41.515
431.33	41.701
431.68	42.356
432.04	42.173
432.39	42.890
432.74	42.729
433.10	43.633
433.45	43.615
433.80	42.738
434.16	42.949
434.51	40.632
434.86	42.474
435.22	43.079
435.57	42.796
435.92	43.125
436.28	43.594
436.63	41.943
436.98	42.873
437.34	43.292
437.69	43.641
438.04	42.777
438.39	43.940
438.75	42.650
439.10	43.855
439.45	43.447
439.81	43.988
440.16	42.518
440.51	43.351
440.86	44.296
441.22	43.548
441.57	43.259
441.92	43.398
442.27	42.949
442.63	42.917
442.98	44.000
443.33	43.913
443.68	43.934
444.03	42.899
444.39	43.330
444.74	43.777
445.09	43.558
445.44	42.865
445.79	43.246
446.15	43.145
446.50	43.188
446.85	43.114
447.20	42.631
447.55	43.384
447.91	43.464
448.26	43.962
448.61	45.223
448.96	44.297
449.31	44.319
449.66	43.894
450.02	44.457
450.37	43.594
450.72	43.993
451.07	43.327
451.42	43.769
451.77	45.332
452.12	43.476
452.47	44.216
452.83	44.406
453.18	44.010
453.53	44.712
453.88	43.591
454.23	44.650
454.58	44.640
454.93	45.518
455.28	44.015
455.63	45.328
455.98	45.655
456.34	45.603
456.69	45.585
457.04	46.130
457.39	44.243
457.74	44.748
458.09	44.163
458.44	44.812
458.79	43.221
459.14	45.485
459.49	45.593
459.84	43.158
460.19	43.960
460.54	43.924
460.89	44.761
461.24	46.266
461.59	45.322
461.94	45.006
462.29	44.748
462.64	45.054
462.99	43.917
463.34	44.400
463.69	45.403
464.04	45.275
464.39	45.043
464.74	44.266
465.09	44.451
465.44	44.488
465.79	43.904
466.14	44.116
466.49	43.604
466.84	44.133
467.19	44.780
467.54	44.875
467.89	44.418
468.24	44.386
468.59	44.872
468.94	43.739
469.29	44.730
469.64	46.787
469.99	46.211
470.34	44.914
470.68	47.342
471.03	45.102
471.38	46.838
471.73	45.503
472.08	46.579
472.43	46.043
472.78	45.556
473.13	45.571
473.48	45.256
473.83	45.488
474.17	44.680
474.52	46.154
474.87	45.768
475.22	45.212
475.57	42.934
475.92	44.344
476.27	44.307
476.61	44.402
476.96	45.739
477.31	45.160
477.66	45.569
478.01	44.119
478.36	44.051
478.70	43.614
479.05	44.941
479.40	45.855
479.75	46.060
480.10	44.732
480.45	44.074
480.79	43.192
481.14	44.667
481.49	44.234
481.84	43.850
482.19	44.071
482.53	43.945
482.88	43.229
483.23	44.299
483.58	44.086
483.92	44.705
484.27	42.440
484.62	43.448
484.97	43.279
485.31	43.699
485.66	41.372
486.01	39.296
486.36	38.833
486.70	38.635
487.05	38.994
487.40	40.909
487.75	41.895
488.09	42.493
488.44	42.128
488.79	43.906
489.13	43.812
489.48	44.168
489.83	43.720
490.17	43.884
490.52	43.933
490.87	43.826
491.22	44.384
491.56	44.419
491.91	43.834
492.26	43.776
492.60	44.793
492.95	42.984
493.30	43.551
493.64	43.677
493.99	42.665
494.34	44.126
494.68	44.185
495.03	44.220
495.37	43.416
495.72	44.298
496.07	43.852
496.41	42.920
496.76	43.712
497.11	43.584
497.45	43.596
497.80	43.522
498.14	43.382
498.49	44.683
498.84	44.295
499.18	43.571
499.53	44.017
499.87	44.082
500.22	43.099
500.56	44.854
500.91	43.990
501.26	43.623
501.60	44.423
501.95	43.217
502.29	44.939
502.64	44.227
502.98	43.712
503.33	42.687
503.67	43.759
504.02	43.779
504.36	43.285
504.71	44.406
505.06	43.855
505.40	44.482
505.75	44.359
506.09	44.315
506.44	43.957
506.78	43.887
507.13	43.513
507.47	44.899
507.82	44.276
508.16	44.428
508.51	45.053
508.85	43.247
509.19	43.316
509.54	44.082
509.88	44.152
510.23	44.473
510.57	45.408
510.92	44.640
511.26	43.474
511.61	44.865
511.95	43.841
512.30	44.698
512.64	44.922
512.98	44.748
513.33	44.861
513.67	45.037
514.02	43.452
514.36	44.894
514.70	43.719
515.05	44.730
515.39	44.756
515.74	44.257
516.08	45.612
516.42	46.226
516.77	44.426
517.11	44.950
517.46	44.187
517.80	45.877
518.14	43.717
518.49	45.274
518.83	44.943
519.17	44.746
519.52	44.426
519.86	45.408
520.20	45.665
520.55	46.379
520.89	46.107
521.23	46.019
521.58	44.478
521.92	44.519
522.26	45.027
522.61	47.040
522.95	45.549
523.29	45.344
523.64	45.793
523.98	45.779
524.32	45.537
524.66	45.701
525.01	45.956
525.35	45.105
525.69	44.828
526.04	44.922
526.38	44.905
526.72	44.233
527.06	45.072
527.41	44.864
527.75	46.624
528.09	46.179
528.43	45.889
528.78	46.281
529.12	44.121
529.46	46.479
529.80	44.926
530.15	45.171
530.49	44.308
530.83	45.253
531.17	46.084
531.51	46.498
531.86	45.484
532.20	46.154
532.54	46.252
532.88	46.085
533.22	45.846
533.57	44.444
533.91	43.648
534.25	43.682
534.59	44.417
534.93	44.676
535.27	43.935
535.62	45.482
535.96	44.570
536.30	45.073
536.64	44.173
536.98	44.592
537.32	44.174
537.66	44.733
538.01	45.293
538.35	44.796
538.69	45.565
539.03	43.275
539.37	43.578
539.71	43.876
540.05	44.837
540.39	45.050
540.73	44.179
541.07	43.933
541.42	45.140
541.76	43.742
542.10	45.084
542.44	45.563
542.78	44.664
543.12	42.546
543.46	44.787
543.80	44.567
544.14	41.977
544.48	44.571
544.82	44.003
545.16	44.632
545.50	44.087
545.84	44.019
546.18	44.108
546.52	44.529
546.86	45.292
547.20	44.909
547.54	44.489
547.88	43.559
548.22	43.337
548.56	43.648
548.90	43.150
549.24	44.916
549.58	43.724
549.92	44.712
550.26	43.750
550.60	43.707
550.94	43.239
551.28	44.550
551.62	43.925
551.96	43.719
552.30	44.096
552.64	43.475
552.98	42.915
553.32	42.481
553.66	44.240
554.00	43.857
554.34	43.478
554.68	43.133
555.02	43.583
555.36	43.911
555.69	42.422
556.03	43.271
556.37	44.407
556.71	42.838
557.05	42.717
557.39	43.597
557.73	43.896
558.07	43.945
558.41	42.547
558.75	44.820
559.08	43.624
559.42	44.293
559.76	44.044
560.10	43.754
560.44	43.746
560.78	41.317
561.12	42.744
561.45	42.373
561.79	42.584
562.13	42.388
562.47	43.306
562.81	44.142
563.15	43.077
563.48	42.042
563.82	42.270
564.16	42.577
564.50	42.448
564.84	40.961
565.17	41.699
565.51	40.895
565.85	41.751
566.19	41.014
566.52	42.305
566.86	40.868
567.20	41.450
567.54	40.982
567.88	40.847
568.21	40.106
568.55	39.838
568.89	39.397
569.23	37.478
569.56	38.340
569.90	37.509
570.24	37.029
570.57	36.960
570.91	36.070
571.25	35.701
571.59	35.965
571.92	35.513
572.26	36.193
572.60	35.946
572.93	35.832
573.27	35.640
573.61	35.790
573.95	35.891
574.28	35.302
574.62	34.742
574.96	34.409
575.29	34.336
575.63	34.553
575.97	34.861
576.30	35.130
576.64	34.875
576.98	34.298
577.31	34.473
577.65	34.180
577.98	34.218
578.32	33.459
578.66	34.172
578.99	33.965
579.33	34.326
579.67	33.933
580.00	34.188
580.34	34.196
580.67	34.342
581.01	34.428
581.35	34.097
581.68	33.216
582.02	32.814
582.35	32.984
582.69	33.352
583.02	33.647
583.36	33.641
583.70	34.515
584.03	34.195
584.37	34.967
584.70	34.457
585.04	33.659
585.37	33.877
585.71	33.529
586.04	33.728
586.38	34.848
586.72	34.410
587.05	34.067
587.39	33.377
587.72	33.883
588.06	33.965
588.39	34.102
588.73	34.262
589.06	34.995
589.40	34.781
589.73	34.636
590.07	35.231
590.40	34.454
590.73	35.363
591.07	36.264
591.40	35.386
591.74	35.584
592.07	36.300
592.41	35.883
592.74	34.157
593.08	33.511
593.41	33.850
593.75	33.292
594.08	33.624
594.41	34.924
594.75	34.972
595.08	34.037
595.42	34.676
595.75	33.903
596.09	34.923
596.42	35.128
596.75	34.529
597.09	35.325
597.42	34.401
597.75	35.403
598.09	35.435
598.42	35.395
598.76	34.212
599.09	33.523
599.42	33.297
599.76	33.785
600.09	33.188
600.42	33.893
600.76	32.786
601.09	32.714
601.42	33.828
601.76	34.004
602.09	34.111
602.42	33.838
602.76	34.381
603.09	33.753
603.42	34.518
603.76	33.003
604.09	34.316
604.42	33.999
604.76	35.302
605.09	33.770
605.42	33.946
605.75	33.320
606.09	33.306
606.42	34.083
606.75	33.637
607.09	33.445
607.42	33.590
607.75	32.827
608.08	33.391
608.42	33.572
608.75	34.085
609.08	32.701
609.41	33.603
609.75	34.350
610.08	34.684
610.41	34.125
610.74	34.153
611.07	34.881
611.41	34.298
611.74	34.490
612.07	34.472
612.40	34.995
612.73	33.474
613.07	35.291
613.40	35.018
613.73	33.193
614.06	34.785
614.39	33.456
614.72	34.105
615.06	33.403
615.39	33.864
615.72	32.924
616.05	33.865
616.38	33.741
616.71	34.145
617.05	34.629
617.38	33.794
617.71	34.535
618.04	36.058
618.37	33.530
618.70	34.723
619.03	36.382
619.36	35.709
619.69	35.493
620.03	35.096
620.36	36.698
620.69	36.507
621.02	35.619
621.35	35.552
621.68	35.514
622.01	35.604
622.34	36.157
622.67	35.741
623.00	34.556
623.33	36.097
623.66	36.240
623.99	35.714
624.32	34.593
624.65	33.898
624.99	34.561
625.32	35.409
625.65	35.612
625.98	36.741
626.31	36.858
626.64	36.980
626.97	37.157
627.30	36.991
627.63	36.751
627.96	37.090
628.29	37.183
628.62	38.609
628.95	38.208
629.28	36.770
629.61	37.672
629.94	38.571
630.26	37.560
630.59	36.511
630.92	37.165
631.25	38.203
631.58	37.638
631.91	37.830
632.24	37.975
632.57	39.035
632.90	40.241
633.23	38.702
633.56	40.565
633.89	39.977
634.22	38.933
634.55	40.710
634.88	40.240
635.20	40.621
635.53	40.000
635.86	38.243
636.19	38.706
636.52	38.754
636.85	37.915
637.18	37.788
637.51	39.125
637.83	37.731
638.16	40.281
638.49	38.413
638.82	39.823
639.15	40.375
639.48	38.155
639.81	40.214
640.13	40.495
640.46	39.329
640.79	38.970
641.12	40.303
641.45	41.341
641.77	42.857
642.10	41.228
642.43	40.240
642.76	41.641
643.09	42.025
643.41	41.426
643.74	40.895
644.07	40.701
644.40	41.564
644.73	43.307
645.05	42.631
645.38	40.600
645.71	40.902
646.04	43.023
646.36	42.237
646.69	42.475
647.02	41.837
647.35	44.330
647.67	42.124
648.00	42.439
648.33	40.429
648.66	41.364
648.98	41.679
649.31	38.416
649.64	38.864
649.96	39.344
650.29	40.126
650.62	39.320
650.94	41.005
651.27	43.074
651.60	43.594
651.92	42.173
652.25	39.251
652.58	38.785
652.90	40.916
653.23	37.134
653.56	37.323
653.88	40.729
654.21	41.232
654.54	38.284
654.86	38.941
655.19	36.351
655.52	25.643
655.84	22.063
656.17	28.471
656.49	38.430
656.82	39.272
657.15	29.664
657.47	22.191
657.80	17.033
658.13	17.525
658.45	26.311
658.78	26.993
659.10	28.013
659.43	29.918
659.75	31.889
660.08	33.608
660.41	38.641
660.73	40.407
661.06	40.127
661.38	42.727
661.71	42.692
662.03	42.406
662.36	39.960
662.68	41.968
663.01	41.818
663.33	42.887
663.66	44.538
663.98	42.981
664.31	42.437
664.63	40.891
664.96	41.650
665.28	42.418
665.61	39.766
665.93	42.857
666.26	40.568
666.58	41.004
666.91	43.129
667.23	41.798
667.56	43.844
667.88	43.590
668.21	41.151
668.53	41.432
668.86	43.939
669.18	46.482
669.50	41.087
669.83	45.969
670.15	42.222
670.48	42.266
670.80	42.672
671.13	40.977
671.45	40.000
671.77	40.122
672.10	38.817
672.42	41.696
672.75	39.138
673.07	39.437
673.39	37.432
673.72	38.281
674.04	40.980
674.37	39.417
674.69	38.855
675.01	41.004
675.34	42.916
675.66	42.105
675.98	41.752
676.31	40.546
676.63	42.463
676.95	41.929
677.28	41.355
677.60	41.099
677.92	44.093
678.25	41.273
678.57	39.243
678.89	41.483
679.22	38.703
679.54	39.695
679.86	40.734
680.18	37.925
680.51	36.879
680.83	39.146
681.15	41.132
681.48	38.752
681.80	38.878
682.12	38.123
682.44	38.685
682.77	40.326
683.09	42.918
683.41	39.690
683.73	39.956
684.06	41.942
684.38	39.530
684.70	39.341
685.02	38.274
685.34	35.348
685.67	35.140
685.99	36.598
686.31	36.519
686.63	33.569
686.96	36.071
687.28	36.462
687.60	36.594
687.92	38.208
688.24	37.072
688.56	39.960
688.89	42.739
689.21	42.358
689.53	39.457
689.85	42.350
690.17	37.681
690.49	39.278
690.82	40.187
691.14	38.839
691.46	38.819
691.78	39.157
692.10	38.636
692.42	38.523
692.74	36.307
693.06	36.809
693.39	40.246
693.71	36.900
694.03	38.526
694.35	41.775
694.67	37.071
694.99	41.463
695.31	39.951
695.63	42.344
695.95	42.298
696.27	39.848
696.59	42.487
696.91	40.415
697.23	36.620
697.56	38.380
697.88	33.742
698.20	40.000
698.52	38.280
698.84	38.530
699.16	39.862
699.48	39.905
699.80	41.787
700.12	44.156
700.44	40.318
700.76	41.989
701.08	41.379
701.40	39.665
701.72	47.522
702.04	44.318
702.36	39.943
702.68	43.626
703.00	39.335
703.32	38.830
703.64	42.627
703.96	43.175
704.28	40.698
704.60	43.109
704.91	45.401
705.23	44.868
705.55	47.176
705.87	49.169
706.19	47.350
706.51	42.368
706.83	43.636
707.15	40.896
707.47	38.131
707.79	43.489
708.11	36.301
708.43	37.619
708.74	39.541
709.06	43.377
709.38	40.157
709.70	45.058
710.02	42.433
710.34	43.030
710.66	43.881
710.98	42.614
711.29	41.860
711.61	46.018
711.93	44.551
712.25	45.981
712.57	48.162
712.89	45.675
713.20	42.857
713.52	44.408
713.84	44.304
714.16	39.939
714.48	41.667
714.80	47.416
715.11	43.804
715.43	41.543
715.75	38.551
716.07	45.367
716.39	44.828
716.70	44.186
717.02	50.000
717.34	44.523
717.66	48.134
717.97	49.801
718.29	43.704
718.61	49.635
718.93	43.382
719.24	43.945
719.56	43.729
719.88	42.712
720.20	49.324
720.51	47.038
720.83	46.840
721.15	42.537
721.46	43.972
721.78	47.670
722.10	47.170
722.42	48.872
722.73	44.569
723.05	45.082
723.37	47.368
723.68	47.490
724.00	48.374
724.32	46.774
724.63	45.528
724.95	45.607
725.27	46.154
725.58	48.047
725.90	48.905
726.22	48.302
726.53	42.014
726.85	45.392
727.16	45.196
727.48	40.071
727.80	45.455
728.11	42.029
728.43	44.615
728.74	41.219
729.06	50.365
729.38	45.956
729.69	45.907
730.01	42.321
730.32	43.056
730.64	44.147
730.96	41.914
731.27	42.053
731.59	42.202
731.90	40.525
732.22	38.509
732.53	38.700
732.85	44.231
733.16	41.158
733.48	40.532
733.80	44.481
734.11	40.127
734.43	42.012
734.74	32.571
735.06	40.115
735.37	39.884
735.69	40.127
736.00	39.869
736.32	42.056
736.63	40.256
736.95	42.173
737.26	35.714
737.58	41.935
737.89	42.475
738.21	41.980
738.52	41.429
738.83	41.509
739.15	46.923
739.46	45.985
739.78	42.014
740.09	40.923
740.41	41.613
740.72	40.767
741.04	43.333
741.35	50.833
741.66	58.222
741.98	44.340
742.29	50.239
742.61	52.155
742.92	45.701
743.23	49.573
743.55	45.200
743.86	50.000
744.18	50.885
744.49	53.110
744.80	52.582
745.12	52.727
745.43	49.780
745.74	53.604
746.06	50.917
746.37	49.776
746.68	44.796
747.00	55.556
747.31	50.952
747.62	46.903
747.94	48.018
748.25	44.681
748.56	47.137
748.88	48.020
749.19	59.000
749.50	54.419
749.82	48.780
750.13	42.857
750.44	40.876
750.75	46.667
751.07	44.695
751.38	39.721
751.69	43.321
752.01	42.857
752.32	46.931
752.63	39.362
752.94	44.672
753.26	49.600
753.57	39.837
753.88	48.828
754.19	43.214
754.51	44.792
754.82	41.516
755.13	40.000
755.44	43.985
755.75	40.511
756.07	42.553
756.38	38.321
756.69	39.933
757.00	37.425
757.31	38.576
757.63	37.719
757.94	37.265
758.25	34.804
758.56	30.864
758.87	38.978
759.18	40.606
759.50	35.110
759.81	39.875
760.12	35.625
760.43	38.682
760.74	36.413
761.05	38.418
761.36	34.759
761.67	36.364
761.99	37.578
762.30	45.833
762.61	41.603
762.92	44.922
763.23	40.336
763.54	45.200
763.85	42.969
764.16	44.231
764.47	42.966
764.78	40.283
765.10	38.291
765.41	38.348
765.72	37.126
766.03	37.304
766.34	37.667
766.65	43.404
766.96	47.436
767.27	50.254
767.58	53.125
767.89	54.211
768.20	58.621
768.51	43.147
768.82	49.083
769.13	39.837
769.44	41.700
769.75	39.056
770.06	40.826
770.37	53.846
770.68	47.222
770.99	44.889
771.30	37.705
771.61	50.224
771.92	46.311
772.23	47.059
772.54	48.205
772.85	53.927
773.16	48.936
773.47	53.804
773.78	55.330
774.09	54.167
774.39	53.216
774.70	56.173
775.01	61.594
775.32	60.784
775.63	58.553
775.94	58.273
776.25	70.079
776.56	72.388
776.87	63.934
777.18	62.500
777.48	61.069
777.79	65.152
778.10	63.704
778.41	67.857
778.72	51.825
779.03	63.758
779.34	59.060
779.65	60.811
779.95	51.534
780.26	59.477
780.57	61.379
780.88	71.094
781.19	55.639
781.50	58.784
781.80	54.717
782.11	47.458
782.42	49.367
782.73	60.123
783.04	58.784
783.34	62.676
783.65	66.438
783.96	59.701
784.27	58.741
784.57	57.554
784.88	65.741
785.19	65.873
785.50	66.038
785.81	66.418
786.11	74.590
786.42	68.217
786.73	65.487
787.04	66.038
787.34	69.643
787.65	82.000
787.96	70.270
788.26	62.810
788.57	74.576
788.88	63.636
789.19	60.417
789.49	75.758
789.80	61.069
790.11	89.524
790.41	80.198
790.72	83.133
791.03	83.696
791.33	93.023
791.64	67.010
791.95	82.178
792.25	86.667
792.56	107.792
792.87	100.000
793.17	91.139
793.48	90.805
793.79	81.609
794.09	77.273
794.40	66.387
794.70	69.853
795.01	51.852
795.32	59.712
795.62	62.992
795.93	64.655
796.23	62.832
796.54	82.353
796.85	91.892
797.15	101.408
797.46	89.394
797.76	102.410
798.07	94.937
798.37	92.308
798.68	86.364
798.99	88.732
799.29	90.909
799.60	86.364
799.90	94.521
800.21	105.970
800.51	129.310
800.82	107.018
801.12	86.885
801.43	118.182
801.73	91.892
802.04	119.048
802.34	104.938
802.65	107.812
802.95	123.729
803.26	112.500
803.56	77.143
803.87	95.385
804.17	86.765
804.48	138.889
804.78	105.172
805.09	101.471
805.39	103.846
805.70	100.000
806.00	126.230
806.30	92.424
806.61	85.366
806.91	83.544
807.22	96.053
807.52	86.567
807.83	102.817
808.13	96.875
808.43	98.333
808.74	85.526
809.04	108.696
809.35	105.970
809.65	101.316
809.95	129.032
810.26	105.085
810.56	106.349
810.86	129.545
811.17	154.762
811.47	103.333
811.77	131.481
812.08	125.455
812.38	126.000
812.69	155.556
812.99	159.091
813.29	159.184
813.59	107.143
813.90	130.612
814.20	118.182
814.50	90.769
814.81	113.235
815.11	124.490
815.41	113.115
815.72	152.381
816.02	121.818
816.32	142.857
816.62	152.500
816.93	146.341
817.23	130.952
817.53	140.909
817.84	157.576
818.14	150.000
818.44	133.333
818.74	173.529
819.04	160.000
819.35	151.429
819.65	217.647
819.95	175.000
820.25	235.000
820.56	164.103
820.86	140.909
821.16	137.209
821.46	138.462
821.76	160.000
822.07	148.571
822.37	157.500
822.67	166.667
822.97	127.451
823.27	225.000
823.57	162.162
823.88	185.000
824.18	200.000
824.48	161.905
824.78	232.000
825.08	229.167
825.38	172.973
825.69	129.268
825.99	300.000
826.29	175.862
826.59	194.737
826.89	128.947
827.19	214.706
827.49	183.871
827.79	134.091
828.09	140.909
828.39	131.915
828.70	142.857
829.00	200.000
829.30	203.226
829.60	155.000
829.90	426.667
830.20	221.429
830.50	195.652
830.80	213.043
831.10	196.667
831.40	180.000
831.70	195.652
832.00	230.769
832.30	196.296
832.60	375.000
832.90	243.333
833.20	428.571
833.50	212.903
833.80	203.448
834.10	203.125
834.40	226.923
834.70	272.222
835.00	290.476
835.30	202.857
835.60	353.846
835.90	224.138
836.20	407.143
836.50	217.241
836.80	220.000
837.10	202.778
837.40	276.190
837.70	417.647
838.00	214.815
838.30	252.381
838.60	304.762
838.90	250.000
839.19	320.000
839.49	450.000
839.79	365.000
840.09	305.000
840.39	295.238
840.69	260.870
840.99	338.889
841.29	420.000
841.59	350.000
841.88	362.500
842.18	200.000
842.48	276.190
842.78	173.333
843.08	239.130
843.38	196.875
843.68	983.333
843.97	234.615
844.27	210.345
844.57	280.952
844.87	393.750
845.17	237.037
845.47	1533.333
845.76	500.000
846.06	317.647
846.36	550.000
846.66	407.143
846.96	331.250
847.25	472.727
847.55	436.364
847.85	247.826
848.15	490.000
848.44	385.714
848.74	261.111
849.04	394.118
849.34	600.000
849.63	257.895
849.93	509.091
850.23	1060.000
850.53	421.429
850.82	2600.000
851.12	-5000.000
851.42	5000.000
851.71	285.000
852.01	-1333.333
852.31	275.000
852.61	1866.667
852.90	276.190
853.20	256.000
853.50	376.471
853.79	290.476
854.09	245.833
854.39	312.500
854.68	167.568
854.98	203.226
855.28	186.667
855.57	213.793
855.87	218.519
856.17	315.789
856.46	300.000
856.76	300.000
857.05	213.793
857.35	229.167
857.65	340.000
857.94	256.522
858.24	242.308
858.53	290.000
858.83	277.273
859.13	313.333
859.42	0.000
859.72	677.778
860.01	472.727
860.31	281.818
860.60	321.053
860.90	200.000
861.20	588.889
861.49	500.000
861.79	-4400.000
862.08	662.500
862.38	304.762
862.67	384.615
862.97	341.176
863.26	600.000
863.56	250.000
863.85	408.333
864.15	562.500
864.44	413.333
864.74	850.000
865.03	562.500
865.33	294.737
865.62	400.000
865.92	423.077
866.21	450.000
866.51	0.000
866.80	481.818
867.10	1220.000
867.39	361.538
867.69	472.727
867.98	273.684
868.27	454.545
868.57	310.526
868.86	-4100.000
869.16	381.250
869.45	2350.000
869.75	-4800.000
870.04	458.333
870.33	628.571
870.63	1250.000
870.92	2700.000
871.22	685.714
871.51	311.765
871.80	252.381
872.10	428.571
>>>>>End Processed Spectral Data<<<<<
