SpectraSuite Data File
++++++++++++++++++++++++++++++++++++
Date: Wed May 13 19:32:01 PDT 2015
User: schluterlab
Dark Spectrum Present: Yes
Reference Spectrum Present: Yes
Number of Sampled Component Spectra: 1
Spectrometers: USB2E3373
Integration Time (usec): 3000 (USB2E3373)
Spectra Averaged: 3 (USB2E3373)
Boxcar Smoothing: 0 (USB2E3373)
Correct for Electrical Dark: No (USB2E3373)
Strobe/Lamp Enabled: No (USB2E3373)
Correct for Detector Non-linearity: No (USB2E3373)
Correct for Stray Light: No (USB2E3373)
Number of Pixels in Processed Spectrum: 2048
>>>>>Begin Processed Spectral Data<<<<<
178.53	0.000
178.91	-1425.000
179.29	-1400.000
179.67	-294.444
180.04	-1400.000
180.42	2750.000
180.80	1120.000
181.18	-1150.000
181.56	728.571
181.94	0.000
182.31	-728.571
182.69	1933.333
183.07	-537.500
183.45	-544.444
183.83	554.545
184.20	-310.000
184.58	2150.000
184.96	5000.000
185.34	-740.000
185.72	-612.500
186.09	-2700.000
186.47	3300.000
186.85	2600.000
187.23	5500.000
187.61	-1866.667
187.98	1450.000
188.36	527.273
188.74	654.545
189.12	-1020.000
189.49	590.000
189.87	-4900.000
190.25	-1300.000
190.63	500.000
191.00	492.308
191.38	700.000
191.76	-1200.000
192.14	1400.000
192.51	750.000
192.89	1050.000
193.27	625.000
193.65	-1300.000
194.02	570.000
194.40	820.000
194.78	550.000
195.15	525.000
195.53	720.000
195.91	-1900.000
196.29	431.250
196.66	347.368
197.04	-370.000
197.42	0.000
197.79	680.000
198.17	-4800.000
198.55	685.714
198.92	712.500
199.30	1160.000
199.68	0.000
200.05	355.556
200.43	971.429
200.81	5000.000
201.18	1600.000
201.56	-1866.667
201.94	511.111
202.31	677.778
202.69	475.000
203.07	610.000
203.44	0.000
203.82	1250.000
204.19	700.000
204.57	507.143
204.95	562.500
205.32	1666.667
205.70	554.545
206.08	450.000
206.45	2800.000
206.83	418.750
207.20	983.333
207.58	720.000
207.96	400.000
208.33	775.000
208.71	-666.667
209.08	871.429
209.46	622.222
209.84	518.182
210.21	-1866.667
210.59	1450.000
210.96	-612.500
211.34	3150.000
211.71	580.000
212.09	783.333
212.46	0.000
212.84	1933.333
213.22	1475.000
213.59	-4500.000
213.97	1100.000
214.34	842.857
214.72	609.091
215.09	1200.000
215.47	-2300.000
215.84	-2600.000
216.22	1566.667
216.59	400.000
216.97	1500.000
217.34	545.455
217.72	-883.333
218.09	0.000
218.47	-5000.000
218.84	700.000
219.22	871.429
219.59	1833.333
219.97	-714.286
220.34	1020.000
220.72	-1633.333
221.09	478.571
221.47	1550.000
221.84	-900.000
222.22	0.000
222.59	1400.000
222.97	-2550.000
223.34	1260.000
223.72	446.154
224.09	1220.000
224.46	2300.000
224.84	-4600.000
225.21	-980.000
225.59	-4300.000
225.96	600.000
226.34	315.000
226.71	3100.000
227.08	837.500
227.46	520.000
227.83	-1125.000
228.21	-2500.000
228.58	733.333
228.95	-2750.000
229.33	-2600.000
229.70	2033.333
230.08	800.000
230.45	-1020.000
230.82	441.667
231.20	933.333
231.57	685.714
231.95	483.333
232.32	218.182
232.69	427.273
233.07	742.857
233.44	315.385
233.81	-1500.000
234.19	315.789
234.56	525.000
234.93	450.000
235.31	509.091
235.68	400.000
236.05	450.000
236.43	190.909
236.80	284.211
237.17	5800.000
237.55	295.238
237.92	250.000
238.29	309.524
238.67	212.903
239.04	251.724
239.41	163.889
239.79	145.652
240.16	190.476
240.53	170.455
240.91	154.902
241.28	152.000
241.65	142.000
242.02	131.884
242.40	135.484
242.77	133.333
243.14	101.075
243.51	101.124
243.89	102.353
244.26	90.000
244.63	98.925
245.00	82.979
245.38	96.040
245.75	89.720
246.12	88.991
246.49	78.832
246.87	90.400
247.24	80.000
247.61	79.286
247.98	75.817
248.36	70.946
248.73	75.159
249.10	70.064
249.47	69.492
249.84	73.797
250.22	64.171
250.59	65.089
250.96	65.657
251.33	63.981
251.70	65.347
252.08	62.381
252.45	60.987
252.82	62.609
253.19	63.830
253.56	60.392
253.94	62.656
254.31	60.937
254.68	54.231
255.05	57.934
255.42	62.602
255.79	60.662
256.16	57.762
256.54	56.184
256.91	56.940
257.28	53.237
257.65	54.125
258.02	54.969
258.39	58.675
258.76	55.853
259.14	55.060
259.51	52.584
259.88	51.553
260.25	58.610
260.62	51.734
260.99	54.969
261.36	52.553
261.73	51.289
262.10	52.035
262.47	51.831
262.85	50.418
263.22	51.282
263.59	52.137
263.96	51.648
264.33	50.392
264.70	50.526
265.07	51.918
265.44	51.263
265.81	46.715
266.18	49.497
266.55	50.244
266.92	49.877
267.29	50.463
267.66	47.248
268.03	47.727
268.40	50.000
268.77	46.539
269.14	46.622
269.51	47.856
269.88	46.853
270.25	48.081
270.62	48.764
270.99	44.516
271.36	47.425
271.73	50.234
272.10	48.043
272.47	48.172
272.84	47.403
273.21	46.751
273.58	47.162
273.95	43.187
274.32	45.041
274.69	48.608
275.06	45.079
275.43	45.957
275.80	47.495
276.17	45.621
276.54	45.738
276.91	46.245
277.28	43.945
277.65	43.133
278.02	48.033
278.39	46.094
278.76	43.818
279.13	45.094
279.50	42.831
279.87	45.618
280.23	46.507
280.60	45.261
280.97	45.841
281.34	44.956
281.71	44.000
282.08	44.722
282.45	45.455
282.82	42.274
283.19	40.285
283.56	44.561
283.92	44.162
284.29	43.915
284.66	43.376
285.03	41.591
285.40	42.958
285.77	43.434
286.14	40.587
286.51	42.833
286.87	40.684
287.24	44.951
287.61	40.931
287.98	41.396
288.35	40.571
288.72	38.785
289.08	40.063
289.45	41.351
289.82	39.675
290.19	36.735
290.56	37.060
290.93	37.462
291.29	39.417
291.66	38.348
292.03	39.535
292.40	39.941
292.77	37.278
293.13	36.567
293.50	38.047
293.87	38.222
294.24	36.000
294.60	37.263
294.97	37.645
295.34	37.236
295.71	36.648
296.08	35.613
296.44	36.176
296.81	35.535
297.18	36.856
297.55	33.773
297.91	36.016
298.28	36.412
298.65	36.162
299.02	36.495
299.38	37.317
299.75	34.367
300.12	35.249
300.48	34.875
300.85	35.882
301.22	36.051
301.59	34.596
301.95	34.635
302.32	34.531
302.69	34.886
303.05	33.212
303.42	33.210
303.79	34.202
304.15	32.051
304.52	34.299
304.89	32.753
305.25	32.367
305.62	32.616
305.99	33.766
306.35	33.445
306.72	33.857
307.09	33.851
307.45	34.797
307.82	33.259
308.19	32.781
308.55	35.167
308.92	33.835
309.29	33.157
309.65	32.662
310.02	34.038
310.38	34.194
310.75	35.164
311.12	33.470
311.48	34.483
311.85	35.639
312.22	34.651
312.58	33.992
312.95	35.164
313.31	33.398
313.68	35.863
314.05	35.897
314.41	34.774
314.78	35.750
315.14	34.856
315.51	34.501
315.87	34.059
316.24	34.657
316.61	36.062
316.97	34.344
317.34	34.247
317.70	36.807
318.07	34.552
318.43	36.106
318.80	34.677
319.16	35.593
319.53	35.178
319.89	36.190
320.26	37.100
320.62	36.508
320.99	36.768
321.35	36.465
321.72	38.296
322.08	38.302
322.45	38.806
322.81	38.178
323.18	38.825
323.54	38.590
323.91	39.623
324.27	39.101
324.64	39.795
325.00	38.683
325.37	39.854
325.73	40.575
326.10	40.600
326.46	39.785
326.83	41.933
327.19	40.222
327.56	40.854
327.92	42.257
328.29	41.260
328.65	42.265
329.01	41.426
329.38	40.796
329.74	40.259
330.11	41.565
330.47	40.496
330.84	41.452
331.20	42.168
331.56	43.119
331.93	41.944
332.29	40.550
332.66	41.770
333.02	40.311
333.38	41.102
333.75	41.533
334.11	41.548
334.48	40.905
334.84	41.636
335.20	40.727
335.57	40.254
335.93	39.018
336.29	39.469
336.66	39.315
337.02	39.095
337.38	40.926
337.75	39.750
338.11	39.928
338.47	40.239
338.84	40.330
339.20	38.257
339.56	40.602
339.93	39.455
340.29	39.583
340.65	39.661
341.02	41.012
341.38	39.858
341.74	39.298
342.11	40.699
342.47	40.088
342.83	38.955
343.20	39.481
343.56	38.332
343.92	40.263
344.28	40.136
344.65	38.263
345.01	38.131
345.37	37.393
345.73	38.409
346.10	39.898
346.46	38.305
346.82	38.633
347.19	38.012
347.55	38.342
347.91	39.159
348.27	38.948
348.63	39.047
349.00	38.592
349.36	38.177
349.72	38.573
350.08	37.439
350.45	38.975
350.81	38.180
351.17	37.763
351.53	38.575
351.89	36.799
352.26	38.753
352.62	37.851
352.98	37.520
353.34	37.880
353.70	37.480
354.07	37.823
354.43	36.825
354.79	37.249
355.15	38.468
355.51	38.449
355.87	37.551
356.24	37.215
356.60	36.568
356.96	37.409
357.32	37.612
357.68	37.244
358.04	36.659
358.40	36.896
358.77	36.463
359.13	37.490
359.49	36.784
359.85	37.143
360.21	37.480
360.57	38.911
360.93	38.154
361.29	38.322
361.66	37.848
362.02	37.761
362.38	36.274
362.74	36.682
363.10	36.491
363.46	37.858
363.82	36.735
364.18	36.050
364.54	38.484
364.90	37.677
365.26	37.206
365.62	37.619
365.98	36.888
366.35	35.673
366.71	36.587
367.07	37.218
367.43	37.228
367.79	36.688
368.15	37.356
368.51	35.538
368.87	36.902
369.23	36.942
369.59	37.002
369.95	37.426
370.31	37.322
370.67	36.232
371.03	37.079
371.39	36.880
371.75	38.235
372.11	37.198
372.47	38.343
372.83	36.888
373.19	36.344
373.55	37.694
373.91	38.365
374.27	36.838
374.63	37.818
374.99	37.994
375.35	37.334
375.71	35.984
376.07	36.626
376.42	36.451
376.78	37.243
377.14	36.364
377.50	37.152
377.86	35.771
378.22	36.662
378.58	34.962
378.94	35.827
379.30	36.959
379.66	37.500
380.02	36.978
380.38	36.491
380.74	35.474
381.09	36.919
381.45	36.570
381.81	36.609
382.17	36.306
382.53	36.981
382.89	37.099
383.25	36.273
383.61	37.546
383.97	36.023
384.32	36.432
384.68	36.493
385.04	36.509
385.40	35.294
385.76	35.872
386.12	36.464
386.48	36.627
386.83	36.883
387.19	36.735
387.55	37.291
387.91	36.336
388.27	36.235
388.62	37.062
388.98	35.995
389.34	36.859
389.70	35.684
390.06	37.136
390.42	36.706
390.77	36.641
391.13	36.758
391.49	37.310
391.85	36.155
392.20	35.584
392.56	37.311
392.92	36.139
393.28	34.852
393.64	36.691
393.99	36.652
394.35	35.484
394.71	36.575
395.07	35.514
395.42	36.588
395.78	36.132
396.14	36.065
396.50	37.719
396.85	36.936
397.21	35.388
397.57	36.702
397.92	35.216
398.28	35.202
398.64	35.842
399.00	35.143
399.35	34.687
399.71	35.127
400.07	36.073
400.42	35.153
400.78	36.610
401.14	35.610
401.49	35.164
401.85	34.906
402.21	35.749
402.57	35.040
402.92	36.192
403.28	35.603
403.63	35.087
403.99	35.605
404.35	34.727
404.70	35.132
405.06	34.537
405.42	36.369
405.77	34.000
406.13	34.650
406.49	34.418
406.84	35.322
407.20	34.279
407.55	34.844
407.91	36.267
408.27	35.737
408.62	35.641
408.98	34.252
409.34	35.178
409.69	35.226
410.05	34.325
410.40	35.535
410.76	33.513
411.11	34.982
411.47	35.208
411.83	34.942
412.18	34.137
412.54	34.371
412.89	33.916
413.25	34.416
413.60	34.404
413.96	34.244
414.31	34.994
414.67	34.981
415.03	34.636
415.38	35.309
415.74	34.662
416.09	34.095
416.45	34.538
416.80	35.691
417.16	35.322
417.51	35.567
417.87	34.554
418.22	35.016
418.58	35.055
418.93	34.521
419.29	35.837
419.64	34.635
420.00	34.573
420.35	35.130
420.71	35.266
421.06	34.905
421.42	35.497
421.77	35.202
422.12	34.419
422.48	35.078
422.83	35.061
423.19	35.856
423.54	35.345
423.90	35.188
424.25	35.678
424.61	34.762
424.96	35.160
425.31	34.939
425.67	35.281
426.02	35.314
426.38	36.569
426.73	35.459
427.09	36.596
427.44	36.630
427.79	36.400
428.15	36.190
428.50	36.981
428.85	36.353
429.21	35.174
429.56	35.666
429.92	35.732
430.27	35.501
430.62	35.740
430.98	36.066
431.33	35.515
431.68	36.021
432.04	35.463
432.39	35.979
432.74	36.924
433.10	37.634
433.45	36.327
433.80	36.086
434.16	36.378
434.51	36.684
434.86	37.343
435.22	37.743
435.57	37.264
435.92	35.986
436.28	37.900
436.63	37.528
436.98	37.779
437.34	38.044
437.69	37.456
438.04	37.549
438.39	37.910
438.75	37.885
439.10	37.039
439.45	37.839
439.81	37.341
440.16	37.606
440.51	37.200
440.86	37.522
441.22	37.319
441.57	38.854
441.92	37.257
442.27	37.890
442.63	37.757
442.98	37.972
443.33	37.935
443.68	37.687
444.03	37.628
444.39	38.121
444.74	38.312
445.09	38.275
445.44	37.124
445.79	37.160
446.15	37.533
446.50	37.318
446.85	37.564
447.20	38.042
447.55	38.638
447.91	37.452
448.26	37.896
448.61	38.101
448.96	38.649
449.31	38.920
449.66	39.223
450.02	37.772
450.37	37.585
450.72	38.804
451.07	37.233
451.42	37.994
451.77	37.581
452.12	38.106
452.47	37.562
452.83	38.112
453.18	37.836
453.53	38.528
453.88	38.039
454.23	38.673
454.58	39.128
454.93	39.606
455.28	37.469
455.63	38.592
455.98	39.048
456.34	38.882
456.69	38.823
457.04	39.257
457.39	38.223
457.74	38.595
458.09	38.355
458.44	38.255
458.79	37.961
459.14	38.939
459.49	38.412
459.84	38.338
460.19	38.303
460.54	37.558
460.89	38.453
461.24	38.980
461.59	38.989
461.94	38.841
462.29	39.050
462.64	38.226
462.99	38.517
463.34	38.933
463.69	38.899
464.04	38.551
464.39	38.841
464.74	38.384
465.09	38.299
465.44	38.006
465.79	38.255
466.14	38.588
466.49	38.432
466.84	39.288
467.19	39.288
467.54	39.062
467.89	39.136
468.24	38.685
468.59	40.537
468.94	38.546
469.29	39.203
469.64	38.956
469.99	40.189
470.34	39.630
470.68	39.871
471.03	40.000
471.38	40.167
471.73	39.307
472.08	39.803
472.43	37.688
472.78	39.500
473.13	39.474
473.48	40.200
473.83	39.939
474.17	39.266
474.52	39.516
474.87	40.630
475.22	39.756
475.57	40.193
475.92	39.565
476.27	39.910
476.61	38.996
476.96	39.967
477.31	39.613
477.66	40.591
478.01	39.415
478.36	40.984
478.70	39.304
479.05	39.297
479.40	40.174
479.75	39.908
480.10	39.662
480.45	38.077
480.79	39.608
481.14	39.432
481.49	39.867
481.84	39.140
482.19	39.391
482.53	39.083
482.88	38.995
483.23	39.766
483.58	39.581
483.92	39.644
484.27	38.126
484.62	38.707
484.97	37.801
485.31	39.692
485.66	37.561
486.01	36.680
486.36	35.788
486.70	35.304
487.05	36.761
487.40	37.181
487.75	38.007
488.09	38.975
488.44	38.993
488.79	40.108
489.13	39.228
489.48	40.294
489.83	39.620
490.17	39.676
490.52	38.928
490.87	39.891
491.22	39.245
491.56	38.542
491.91	39.041
492.26	39.871
492.60	39.816
492.95	39.055
493.30	38.972
493.64	39.291
493.99	39.415
494.34	38.853
494.68	40.476
495.03	40.179
495.37	38.762
495.72	39.620
496.07	39.768
496.41	38.142
496.76	38.434
497.11	39.036
497.45	40.149
497.80	40.019
498.14	38.937
498.49	40.293
498.84	39.549
499.18	39.000
499.53	38.794
499.87	39.562
500.22	40.179
500.56	39.854
500.91	39.183
501.26	39.118
501.60	39.345
501.95	39.093
502.29	40.722
502.64	39.106
502.98	39.317
503.33	39.351
503.67	40.000
504.02	39.429
504.36	39.073
504.71	39.717
505.06	40.193
505.40	40.010
505.75	39.248
506.09	39.310
506.44	40.701
506.78	40.818
507.13	40.030
507.47	40.808
507.82	39.514
508.16	40.426
508.51	40.842
508.85	40.268
509.19	40.918
509.54	39.898
509.88	41.061
510.23	39.743
510.57	41.744
510.92	40.549
511.26	41.213
511.61	39.990
511.95	40.449
512.30	40.403
512.64	41.322
512.98	41.372
513.33	41.060
513.67	39.808
514.02	40.584
514.36	41.289
514.70	41.339
515.05	41.829
515.39	41.952
515.74	41.498
516.08	42.202
516.42	41.398
516.77	42.475
517.11	40.954
517.46	41.196
517.80	42.741
518.14	42.386
518.49	42.357
518.83	42.159
519.17	41.224
519.52	41.200
519.86	42.099
520.20	41.908
520.55	42.849
520.89	42.944
521.23	41.556
521.58	42.497
521.92	44.152
522.26	41.672
522.61	43.115
522.95	42.296
523.29	42.362
523.64	43.232
523.98	41.959
524.32	42.823
524.66	41.251
525.01	41.483
525.35	43.061
525.69	41.687
526.04	41.745
526.38	41.306
526.72	42.454
527.06	42.624
527.41	40.903
527.75	43.280
528.09	43.802
528.43	42.766
528.78	41.979
529.12	41.697
529.46	42.927
529.80	43.255
530.15	42.679
530.49	41.846
530.83	42.658
531.17	44.256
531.51	43.320
531.86	42.581
532.20	43.286
532.54	43.113
532.88	42.940
533.22	42.911
533.57	42.407
533.91	42.203
534.25	41.981
534.59	42.282
534.93	42.772
535.27	42.245
535.62	42.491
535.96	43.628
536.30	42.212
536.64	42.627
536.98	42.734
537.32	42.725
537.66	42.867
538.01	43.713
538.35	43.697
538.69	43.204
539.03	43.210
539.37	41.725
539.71	42.320
540.05	42.484
540.39	42.724
540.73	41.656
541.07	42.440
541.42	43.509
541.76	43.742
542.10	41.850
542.44	42.252
542.78	42.490
543.12	42.290
543.46	42.623
543.80	42.160
544.14	41.399
544.48	43.937
544.82	41.629
545.16	43.982
545.50	41.967
545.84	43.414
546.18	42.761
546.52	43.221
546.86	42.268
547.20	42.144
547.54	43.420
547.88	42.474
548.22	42.030
548.56	42.767
548.90	41.613
549.24	42.694
549.58	42.838
549.92	41.827
550.26	43.253
550.60	43.914
550.94	42.254
551.28	43.526
551.62	42.559
551.96	41.333
552.30	42.867
552.64	42.867
552.98	43.119
553.32	41.740
553.66	43.081
554.00	41.935
554.34	41.753
554.68	42.990
555.02	43.159
555.36	42.380
555.69	40.934
556.03	42.194
556.37	41.542
556.71	42.224
557.05	42.647
557.39	42.197
557.73	41.496
558.07	42.204
558.41	41.679
558.75	42.028
559.08	42.282
559.42	44.142
559.76	41.103
560.10	42.041
560.44	41.300
560.78	41.118
561.12	41.029
561.45	40.743
561.79	41.200
562.13	41.449
562.47	41.940
562.81	42.190
563.15	40.936
563.48	41.910
563.82	40.639
564.16	41.334
564.50	40.039
564.84	40.392
565.17	40.991
565.51	42.364
565.85	40.799
566.19	40.263
566.52	41.925
566.86	40.868
567.20	40.743
567.54	40.582
567.88	39.761
568.21	40.370
568.55	40.091
568.89	39.056
569.23	39.216
569.56	37.976
569.90	39.245
570.24	38.357
570.57	37.368
570.91	36.942
571.25	37.245
571.59	37.113
571.92	36.665
572.26	37.088
572.60	37.538
572.93	37.151
573.27	38.332
573.61	37.577
573.95	37.261
574.28	36.910
574.62	36.662
574.96	36.846
575.29	36.688
575.63	36.636
575.97	36.683
576.30	37.334
576.64	37.276
576.98	36.145
577.31	36.761
577.65	36.113
577.98	37.033
578.32	36.378
578.66	36.331
578.99	36.864
579.33	36.577
579.67	36.390
580.00	36.274
580.34	36.925
580.67	37.013
581.01	37.014
581.35	36.326
581.68	36.266
582.02	35.718
582.35	35.787
582.69	36.479
583.02	36.828
583.36	37.076
583.70	37.512
584.03	37.409
584.37	38.419
584.70	37.565
585.04	36.791
585.37	36.836
585.71	36.607
586.04	36.434
586.38	37.069
586.72	37.144
587.05	36.267
587.39	36.755
587.72	36.846
588.06	36.953
588.39	37.366
588.73	36.844
589.06	37.333
589.40	37.980
589.73	38.296
590.07	38.007
590.40	37.121
590.73	38.134
591.07	39.398
591.40	38.718
591.74	38.961
592.07	38.176
592.41	38.156
592.74	37.191
593.08	36.842
593.41	36.254
593.75	36.040
594.08	36.775
594.41	37.681
594.75	37.893
595.08	37.151
595.42	38.319
595.75	37.108
596.09	38.528
596.42	38.075
596.75	38.286
597.09	38.658
597.42	37.985
597.75	37.387
598.09	37.783
598.42	37.328
598.76	36.806
599.09	36.526
599.42	35.881
599.76	36.713
600.09	35.592
600.42	36.340
600.76	36.893
601.09	36.393
601.42	37.177
601.76	36.926
602.09	36.403
602.42	37.261
602.76	37.485
603.09	37.884
603.42	37.173
603.76	36.357
604.09	36.758
604.42	36.404
604.76	38.001
605.09	38.139
605.42	36.896
605.75	36.838
606.09	36.966
606.42	36.657
606.75	37.039
607.09	36.961
607.42	36.799
607.75	36.624
608.08	36.127
608.42	37.472
608.75	36.339
609.08	36.309
609.41	36.506
609.75	36.970
610.08	37.653
610.41	37.803
610.74	37.181
611.07	37.945
611.41	37.291
611.74	37.054
612.07	38.199
612.40	38.825
612.73	37.000
613.07	37.823
613.40	37.862
613.73	36.078
614.06	36.882
614.39	36.287
614.72	36.895
615.06	36.660
615.39	36.412
615.72	36.605
616.05	37.321
616.38	38.355
616.71	38.124
617.05	38.398
617.38	37.763
617.71	37.477
618.04	37.260
618.37	37.611
618.70	37.834
619.03	37.500
619.36	37.542
619.69	38.380
620.03	39.148
620.36	37.968
620.69	38.562
621.02	38.569
621.35	38.998
621.68	38.551
622.01	39.861
622.34	38.124
622.67	38.859
623.00	38.151
623.33	37.241
623.66	39.028
623.99	38.218
624.32	38.588
624.65	37.429
624.99	36.615
625.32	37.654
625.65	38.317
625.98	38.970
626.31	38.491
626.64	40.163
626.97	38.820
627.30	37.323
627.63	39.541
627.96	38.267
628.29	39.720
628.62	39.524
628.95	41.038
629.28	39.142
629.61	39.413
629.94	40.476
630.26	38.704
630.59	39.085
630.92	38.697
631.25	37.808
631.58	38.939
631.91	38.844
632.24	39.451
632.57	40.399
632.90	41.447
633.23	39.709
633.56	40.452
633.89	40.430
634.22	39.614
634.55	42.840
634.88	38.922
635.20	41.099
635.53	41.566
635.86	39.851
636.19	40.471
636.52	41.638
636.85	37.915
637.18	38.364
637.51	42.080
637.83	38.964
638.16	42.199
638.49	40.680
638.82	41.972
639.15	40.500
639.48	41.521
639.81	42.493
640.13	41.016
640.46	41.074
640.79	40.951
641.12	38.514
641.45	40.363
641.77	41.679
642.10	42.251
642.43	43.844
642.76	39.938
643.09	41.718
643.41	39.454
643.74	42.593
644.07	42.683
644.40	43.405
644.73	41.890
645.05	44.057
645.38	41.390
645.71	41.707
646.04	43.023
646.36	43.072
646.69	42.308
647.02	42.857
647.35	43.127
647.67	41.947
648.00	42.439
648.33	42.244
648.66	42.576
648.98	43.028
649.31	40.508
649.64	40.508
649.96	40.537
650.29	42.496
650.62	43.366
650.94	42.788
651.27	43.750
651.60	42.263
651.92	39.936
652.25	43.160
652.58	40.654
652.90	41.548
653.23	39.908
653.56	41.575
653.88	42.314
654.21	43.760
654.54	44.059
654.86	41.277
655.19	38.378
655.52	28.273
655.84	26.615
656.17	34.347
656.49	46.619
656.82	49.202
657.15	37.508
657.47	28.030
657.80	21.766
658.13	22.807
658.45	35.334
658.78	36.130
659.10	37.949
659.43	40.300
659.75	43.546
660.08	45.633
660.41	48.138
660.73	48.793
661.06	44.108
661.38	45.091
661.71	46.538
662.03	43.590
662.36	40.557
662.68	44.980
663.01	43.636
663.33	42.038
663.66	43.487
663.98	44.276
664.31	45.378
664.63	45.142
664.96	40.845
665.28	43.648
665.61	43.665
665.93	42.857
666.26	43.002
666.58	42.678
666.91	41.015
667.23	44.944
667.56	42.333
667.88	43.803
668.21	42.857
668.53	42.733
668.86	44.589
669.18	42.857
669.50	44.130
669.83	44.444
670.15	44.000
670.48	43.791
670.80	41.810
671.13	44.586
671.45	42.553
671.77	41.752
672.10	42.329
672.42	40.283
672.75	40.630
673.07	40.317
673.39	39.602
673.72	42.773
674.04	42.745
674.37	40.388
674.69	39.059
675.01	41.004
675.34	44.148
675.66	44.211
675.98	41.752
676.31	44.118
676.63	44.374
676.95	41.090
677.28	41.589
677.60	43.956
677.92	45.148
678.25	41.684
678.57	41.235
678.89	40.281
679.22	41.650
679.54	41.603
679.86	40.734
680.18	39.714
680.51	40.248
680.83	41.637
681.15	40.189
681.48	40.643
681.80	41.779
682.12	41.188
682.44	41.393
682.77	43.177
683.09	45.064
683.41	45.011
683.73	43.488
684.06	40.496
684.38	43.053
684.70	39.729
685.02	40.901
685.34	41.575
685.67	38.462
685.99	37.973
686.31	41.297
686.63	37.456
686.96	37.679
687.28	38.087
687.60	38.768
687.92	40.951
688.24	39.544
688.56	42.972
688.89	43.361
689.21	43.231
689.53	42.171
689.85	44.346
690.17	40.373
690.49	43.949
690.82	44.393
691.14	39.509
691.46	39.873
691.78	39.960
692.10	40.083
692.42	43.713
692.74	38.589
693.06	41.064
693.39	39.630
693.71	43.668
694.03	41.474
694.35	40.693
694.67	41.648
694.99	42.195
695.31	42.157
695.63	43.062
695.95	44.499
696.27	44.670
696.59	43.005
696.91	46.114
697.23	38.498
697.56	39.446
697.88	36.401
698.20	38.125
698.52	40.430
698.84	39.198
699.16	39.862
699.48	43.705
699.80	43.478
700.12	48.571
700.44	47.215
700.76	46.961
701.08	47.701
701.40	43.296
701.72	46.064
702.04	46.875
702.36	40.227
702.68	43.909
703.00	44.875
703.32	41.755
703.64	44.772
703.96	45.961
704.28	41.279
704.60	46.628
704.91	48.665
705.23	46.921
705.55	48.837
705.87	46.179
706.19	50.530
706.51	47.040
706.83	43.636
707.15	44.538
707.47	41.414
707.79	40.049
708.11	41.781
708.43	42.857
708.74	40.561
709.06	44.675
709.38	41.732
709.70	45.058
710.02	45.104
710.34	44.545
710.66	48.060
710.98	45.170
711.29	42.151
711.61	46.903
711.93	43.269
712.25	48.553
712.57	48.162
712.89	52.249
713.20	44.985
713.52	48.684
713.84	44.304
714.16	43.902
714.48	43.966
714.80	48.936
715.11	43.228
715.43	42.433
715.75	42.609
716.07	41.853
716.39	44.514
716.70	45.183
717.02	47.482
717.34	45.583
717.66	50.000
717.97	52.590
718.29	46.667
718.61	47.080
718.93	53.309
719.24	49.481
719.56	44.746
719.88	45.085
720.20	45.946
720.51	51.568
720.83	53.903
721.15	44.776
721.46	45.035
721.78	47.670
722.10	48.679
722.42	50.000
722.73	50.187
723.05	51.639
723.37	48.178
723.68	53.282
724.00	47.967
724.32	45.968
724.63	48.374
724.95	47.699
725.27	51.012
725.58	52.344
725.90	48.540
726.22	52.830
726.53	45.486
726.85	46.758
727.16	46.619
727.48	48.227
727.80	46.212
728.11	47.464
728.43	48.077
728.74	45.161
729.06	49.635
729.38	49.265
729.69	48.399
730.01	41.980
730.32	45.139
730.64	41.472
730.96	41.584
731.27	50.000
731.59	42.813
731.90	42.857
732.22	41.925
732.53	40.557
732.85	46.154
733.16	40.193
733.48	46.179
733.80	42.208
734.11	45.860
734.43	45.266
734.74	42.571
735.06	40.401
735.37	45.954
735.69	46.497
736.00	46.078
736.32	44.237
736.63	40.575
736.95	44.728
737.26	40.816
737.58	43.548
737.89	44.816
738.21	48.464
738.52	46.786
738.83	39.245
739.15	46.154
739.46	47.810
739.78	46.181
740.09	42.154
740.41	47.742
740.72	39.721
741.04	44.444
741.35	47.500
741.66	55.556
741.98	51.887
742.29	55.981
742.61	56.897
742.92	50.679
743.23	49.145
743.55	49.200
743.86	47.807
744.18	52.655
744.49	55.024
744.80	54.460
745.12	56.818
745.43	48.899
745.74	52.703
746.06	48.624
746.37	47.982
746.68	52.036
747.00	50.000
747.31	53.333
747.62	49.115
747.94	46.696
748.25	46.809
748.56	52.863
748.88	52.475
749.19	56.500
749.50	50.233
749.82	45.935
750.13	46.939
750.44	48.175
750.75	46.316
751.07	48.553
751.38	46.341
751.69	44.765
752.01	45.113
752.32	44.043
752.63	49.291
752.94	47.541
753.26	52.000
753.57	43.089
753.88	49.609
754.19	46.429
754.51	48.264
754.82	47.292
755.13	47.925
755.44	42.481
755.75	44.526
756.07	41.135
756.38	43.066
756.69	41.946
757.00	37.725
757.31	39.466
757.63	43.567
757.94	42.359
758.25	41.422
758.56	37.778
758.87	39.516
759.18	43.030
759.50	40.125
759.81	42.991
760.12	38.750
760.43	38.395
760.74	38.859
761.05	41.525
761.36	38.235
761.67	41.193
761.99	41.925
762.30	44.444
762.61	43.511
762.92	50.781
763.23	45.798
763.54	48.800
763.85	43.750
764.16	45.385
764.47	44.867
764.78	43.110
765.10	43.354
765.41	39.233
765.72	42.515
766.03	44.514
766.34	42.333
766.65	52.340
766.96	48.291
767.27	56.345
767.58	51.562
767.89	58.421
768.20	56.322
768.51	52.284
768.82	52.294
769.13	46.341
769.44	43.725
769.75	54.077
770.06	45.413
770.37	50.226
770.68	50.463
770.99	48.889
771.30	45.492
771.61	47.085
771.92	45.492
772.23	50.420
772.54	53.846
772.85	53.927
773.16	56.383
773.47	54.891
773.78	57.360
774.09	58.929
774.39	56.140
774.70	57.407
775.01	60.145
775.32	62.745
775.63	53.289
775.94	58.993
776.25	70.079
776.56	64.925
776.87	63.115
777.18	56.250
777.48	66.412
777.79	73.485
778.10	63.704
778.41	72.321
778.72	62.044
779.03	59.060
779.34	64.430
779.65	66.216
779.95	62.577
780.26	69.281
780.57	71.034
780.88	75.000
781.19	66.917
781.50	66.216
781.80	57.233
782.11	51.977
782.42	58.861
782.73	55.828
783.04	62.162
783.34	61.972
783.65	62.329
783.96	60.448
784.27	66.434
784.57	56.835
784.88	60.185
785.19	64.286
785.50	71.698
785.81	66.418
786.11	76.230
786.42	66.667
786.73	75.221
787.04	73.585
787.34	78.571
787.65	69.000
787.96	71.171
788.26	57.025
788.57	73.729
788.88	71.901
789.19	72.917
789.49	78.788
789.80	70.229
790.11	91.429
790.41	72.277
790.72	93.976
791.03	90.217
791.33	87.209
791.64	77.320
791.95	79.208
792.25	82.222
792.56	84.416
792.87	112.821
793.17	92.405
793.48	100.000
793.79	75.862
794.09	77.273
794.40	75.630
794.70	70.588
795.01	60.000
795.32	59.712
795.62	67.717
795.93	66.379
796.23	71.681
796.54	81.176
796.85	94.595
797.15	115.493
797.46	100.000
797.76	90.361
798.07	96.203
798.37	93.846
798.68	106.061
798.99	84.507
799.29	92.208
799.60	84.091
799.90	97.260
800.21	91.045
800.51	122.414
800.82	117.544
801.12	103.279
801.43	101.515
801.73	98.649
802.04	111.111
802.34	83.951
802.65	95.312
802.95	130.508
803.26	104.688
803.56	77.143
803.87	106.154
804.17	105.882
804.48	124.074
804.78	96.552
805.09	98.529
805.39	138.462
805.70	108.929
806.00	121.311
806.30	93.939
806.61	97.561
806.91	97.468
807.22	96.053
807.52	94.030
807.83	98.592
808.13	110.938
808.43	111.667
808.74	85.526
809.04	105.797
809.35	101.493
809.65	96.053
809.95	120.968
810.26	108.475
810.56	104.762
810.86	159.091
811.17	164.286
811.47	141.667
811.77	127.778
812.08	129.091
812.38	136.000
812.69	180.556
812.99	159.091
813.29	146.939
813.59	114.286
813.90	140.816
814.20	120.000
814.50	106.154
814.81	107.353
815.11	130.612
815.41	111.475
815.72	154.762
816.02	132.727
816.32	128.571
816.62	137.500
816.93	158.537
817.23	159.524
817.53	125.000
817.84	181.818
818.14	139.130
818.44	144.444
818.74	173.529
819.04	152.500
819.35	165.714
819.65	197.059
819.95	203.571
820.25	220.000
820.56	166.667
820.86	152.273
821.16	160.465
821.46	166.667
821.76	130.000
822.07	162.857
822.37	152.500
822.67	196.970
822.97	107.843
823.27	207.143
823.57	178.378
823.88	182.500
824.18	233.333
824.48	176.190
824.78	220.000
825.08	220.833
825.38	148.649
825.69	141.463
825.99	204.167
826.29	196.552
826.59	192.105
826.89	160.526
827.19	147.059
827.49	187.097
827.79	165.909
828.09	161.364
828.39	142.553
828.70	148.980
829.00	211.111
829.30	187.097
829.60	160.000
829.90	360.000
830.20	225.000
830.50	182.609
830.80	265.217
831.10	203.333
831.40	190.000
831.70	221.739
832.00	226.923
832.30	211.111
832.60	318.750
832.90	216.667
833.20	450.000
833.50	229.032
833.80	189.655
834.10	193.750
834.40	253.846
834.70	355.556
835.00	323.810
835.30	174.286
835.60	361.538
835.90	231.034
836.20	414.286
836.50	210.345
836.80	184.000
837.10	197.222
837.40	285.714
837.70	300.000
838.00	200.000
838.30	295.238
838.60	323.810
838.90	265.385
839.19	300.000
839.49	414.286
839.79	360.000
840.09	300.000
840.39	276.190
840.69	265.217
840.99	294.444
841.29	550.000
841.59	425.000
841.88	375.000
842.18	179.310
842.48	280.952
842.78	203.333
843.08	260.870
843.38	181.250
843.68	900.000
843.97	215.385
844.27	227.586
844.57	323.810
844.87	337.500
845.17	255.556
845.47	1600.000
845.76	544.444
846.06	329.412
846.36	575.000
846.66	435.714
846.96	306.250
847.25	481.818
847.55	454.545
847.85	260.870
848.15	520.000
848.44	371.429
848.74	311.111
849.04	341.176
849.34	560.000
849.63	252.632
849.93	490.909
850.23	940.000
850.53	457.143
850.82	2650.000
851.12	-5400.000
851.42	5100.000
851.71	280.000
852.01	-1833.333
852.31	262.500
852.61	1900.000
852.90	257.143
853.20	228.000
853.50	352.941
853.79	295.238
854.09	262.500
854.39	325.000
854.68	202.703
854.98	203.226
855.28	200.000
855.57	237.931
855.87	225.926
856.17	315.789
856.46	326.667
856.76	270.588
857.05	179.310
857.35	208.333
857.65	366.667
857.94	278.261
858.24	246.154
858.53	335.000
858.83	300.000
859.13	313.333
859.42	0.000
859.72	566.667
860.01	509.091
860.31	245.455
860.60	284.211
860.90	239.130
861.20	588.889
861.49	541.667
861.79	-3700.000
862.08	762.500
862.38	300.000
862.67	346.154
862.97	394.118
863.26	544.444
863.56	350.000
863.85	441.667
864.15	687.500
864.44	480.000
864.74	983.333
865.03	812.500
865.33	284.211
865.62	481.818
865.92	446.154
866.21	433.333
866.51	0.000
866.80	463.636
867.10	1280.000
867.39	500.000
867.69	472.727
867.98	273.684
868.27	490.909
868.57	357.895
868.86	-5200.000
869.16	375.000
869.45	2400.000
869.75	-4800.000
870.04	491.667
870.33	657.143
870.63	1225.000
870.92	2950.000
871.22	742.857
871.51	335.294
871.80	285.714
872.10	342.857
>>>>>End Processed Spectral Data<<<<<
