SpectraSuite Data File
++++++++++++++++++++++++++++++++++++
Date: Wed May 13 19:57:10 PDT 2015
User: schluterlab
Dark Spectrum Present: Yes
Reference Spectrum Present: Yes
Number of Sampled Component Spectra: 1
Spectrometers: USB2E3373
Integration Time (usec): 3000 (USB2E3373)
Spectra Averaged: 3 (USB2E3373)
Boxcar Smoothing: 0 (USB2E3373)
Correct for Electrical Dark: No (USB2E3373)
Strobe/Lamp Enabled: No (USB2E3373)
Correct for Detector Non-linearity: No (USB2E3373)
Correct for Stray Light: No (USB2E3373)
Number of Pixels in Processed Spectrum: 2048
>>>>>Begin Processed Spectral Data<<<<<
178.53	0.000
178.91	-1025.000
179.29	-1200.000
179.67	-250.000
180.04	-1275.000
180.42	2750.000
180.80	980.000
181.18	-1375.000
181.56	585.714
181.94	0.000
182.31	-628.571
182.69	1566.667
183.07	-537.500
183.45	-600.000
183.83	536.364
184.20	-370.000
184.58	2800.000
184.96	5200.000
185.34	-920.000
185.72	-625.000
186.09	-2450.000
186.47	2900.000
186.85	2750.000
187.23	5400.000
187.61	-1833.333
187.98	1200.000
188.36	590.909
188.74	527.273
189.12	-820.000
189.49	610.000
189.87	-4300.000
190.25	-1475.000
190.63	478.571
191.00	423.077
191.38	966.667
191.76	-1025.000
192.14	1375.000
192.51	500.000
192.89	966.667
193.27	525.000
193.65	-1050.000
194.02	510.000
194.40	960.000
194.78	590.000
195.15	516.667
195.53	590.000
195.91	-2200.000
196.29	356.250
196.66	294.737
197.04	-290.000
197.42	0.000
197.79	650.000
198.17	-5500.000
198.55	714.286
198.92	650.000
199.30	1080.000
199.68	0.000
200.05	361.111
200.43	757.143
200.81	5000.000
201.18	1766.667
201.56	-1433.333
201.94	500.000
202.31	588.889
202.69	416.667
203.07	500.000
203.44	0.000
203.82	1200.000
204.19	785.714
204.57	450.000
204.95	537.500
205.32	1500.000
205.70	554.545
206.08	400.000
206.45	2950.000
206.83	387.500
207.20	950.000
207.58	720.000
207.96	361.111
208.33	812.500
208.71	-950.000
209.08	714.286
209.46	566.667
209.84	354.545
210.21	-1333.333
210.59	1400.000
210.96	-587.500
211.34	2750.000
211.71	650.000
212.09	866.667
212.46	0.000
212.84	1666.667
213.22	1325.000
213.59	-3800.000
213.97	966.667
214.34	800.000
214.72	536.364
215.09	1040.000
215.47	-2050.000
215.84	-3100.000
216.22	1900.000
216.59	392.857
216.97	1500.000
217.34	527.273
217.72	-783.333
218.09	0.000
218.47	-4400.000
218.84	788.889
219.22	785.714
219.59	1733.333
219.97	-757.143
220.34	1220.000
220.72	-1433.333
221.09	385.714
221.47	1525.000
221.84	-816.667
222.22	0.000
222.59	1525.000
222.97	-2700.000
223.34	1040.000
223.72	353.846
224.09	1060.000
224.46	2550.000
224.84	-4100.000
225.21	-1000.000
225.59	-5100.000
225.96	470.000
226.34	285.000
226.71	2300.000
227.08	625.000
227.46	630.000
227.83	-950.000
228.21	-2150.000
228.58	666.667
228.95	-2550.000
229.33	-2500.000
229.70	1800.000
230.08	842.857
230.45	-820.000
230.82	350.000
231.20	616.667
231.57	700.000
231.95	550.000
232.32	259.091
232.69	427.273
233.07	814.286
233.44	323.077
233.81	-1466.667
234.19	326.316
234.56	433.333
234.93	383.333
235.31	518.182
235.68	453.846
236.05	400.000
236.43	163.636
236.80	226.316
237.17	4400.000
237.55	228.571
237.92	217.857
238.29	285.714
238.67	161.290
239.04	224.138
239.41	158.333
239.79	121.739
240.16	166.667
240.53	134.091
240.91	131.373
241.28	132.000
241.65	130.000
242.02	107.246
242.40	120.968
242.77	101.667
243.14	87.097
243.51	84.270
243.89	94.118
244.26	70.000
244.63	70.968
245.00	78.723
245.38	69.307
245.75	65.421
246.12	67.890
246.49	71.533
246.87	80.000
247.24	72.308
247.61	66.429
247.98	61.438
248.36	56.081
248.73	55.414
249.10	54.140
249.47	53.107
249.84	58.289
250.22	52.406
250.59	53.846
250.96	52.525
251.33	55.450
251.70	55.446
252.08	49.524
252.45	52.018
252.82	46.087
253.19	51.489
253.56	47.059
253.94	42.739
254.31	46.094
254.68	48.077
255.05	47.601
255.42	46.748
255.79	44.485
256.16	46.209
256.54	39.223
256.91	46.263
257.28	41.727
257.65	41.914
258.02	42.547
258.39	43.218
258.76	40.803
259.14	41.071
259.51	40.426
259.88	40.994
260.25	36.858
260.62	38.439
260.99	40.373
261.36	39.339
261.73	40.401
262.10	38.372
262.47	43.380
262.85	40.111
263.22	38.177
263.59	41.311
263.96	37.363
264.33	37.076
264.70	40.526
265.07	40.153
265.44	39.646
265.81	37.470
266.18	36.935
266.55	38.780
266.92	39.312
267.29	38.194
267.66	34.404
268.03	37.045
268.40	36.215
268.77	36.038
269.14	34.910
269.51	36.569
269.88	37.296
270.25	35.214
270.62	36.854
270.99	36.559
271.36	34.120
271.73	37.150
272.10	35.652
272.47	37.204
272.84	35.714
273.21	34.591
273.58	35.153
273.95	33.124
274.32	34.091
274.69	35.118
275.06	32.283
275.43	37.021
275.80	34.669
276.17	36.253
276.54	36.175
276.91	36.364
277.28	33.789
277.65	32.882
278.02	35.611
278.39	35.937
278.76	32.182
279.13	34.340
279.50	34.451
279.87	35.060
280.23	33.533
280.60	33.269
280.97	33.457
281.34	36.106
281.71	33.636
282.08	35.125
282.45	33.455
282.82	34.636
283.19	32.620
283.56	30.702
283.92	32.826
284.29	29.277
284.66	32.123
285.03	30.018
285.40	32.394
285.77	31.145
286.14	31.088
286.51	31.500
286.87	33.675
287.24	31.270
287.61	32.103
287.98	30.357
288.35	30.586
288.72	29.751
289.08	31.142
289.45	32.125
289.82	29.268
290.19	29.199
290.56	27.871
290.93	27.341
291.29	30.368
291.66	29.351
292.03	30.669
292.40	28.634
292.77	26.331
293.13	29.254
293.50	28.280
293.87	28.444
294.24	27.111
294.60	25.764
294.97	27.326
295.34	28.914
295.71	25.994
296.08	24.501
296.44	27.373
296.81	26.156
297.18	27.371
297.55	26.649
297.91	25.066
298.28	26.774
298.65	25.196
299.02	26.482
299.38	24.834
299.75	24.259
300.12	24.393
300.48	24.750
300.85	25.277
301.22	23.567
301.59	24.621
301.95	24.937
302.32	25.931
302.69	25.209
303.05	24.485
303.42	24.691
303.79	23.443
304.15	24.476
304.52	23.754
304.89	24.274
305.25	24.942
305.62	23.783
305.99	24.321
306.35	24.720
306.72	24.103
307.09	24.750
307.45	24.662
307.82	22.656
308.19	24.614
308.55	25.027
308.92	25.134
309.29	23.759
309.65	23.754
310.02	24.736
310.38	25.269
310.75	25.766
311.12	26.510
311.48	24.033
311.85	26.520
312.22	26.015
312.58	25.156
312.95	26.927
313.31	24.757
313.68	27.131
314.05	28.698
314.41	27.136
314.78	28.097
315.14	28.203
315.51	27.806
315.87	28.614
316.24	30.189
316.61	30.702
316.97	29.256
317.34	30.137
317.70	31.931
318.07	33.590
318.43	32.975
318.80	33.552
319.16	34.557
319.53	32.833
319.89	34.571
320.26	37.000
320.62	36.210
320.99	36.869
321.35	38.485
321.72	39.322
322.08	40.770
322.45	41.592
322.81	40.988
323.18	43.160
323.54	43.599
323.91	44.151
324.27	46.367
324.64	46.226
325.00	46.979
325.37	50.409
325.73	50.180
326.10	51.721
326.46	52.061
326.83	53.236
327.19	52.946
327.56	54.965
327.92	55.643
328.29	56.256
328.65	57.459
329.01	57.852
329.38	59.389
329.74	61.496
330.11	60.415
330.47	60.790
330.84	60.570
331.20	60.565
331.56	60.826
331.93	63.889
332.29	61.757
332.66	62.920
333.02	63.711
333.38	64.408
333.75	66.578
334.11	64.324
334.48	64.064
334.84	65.533
335.20	66.091
335.57	66.727
335.93	64.911
336.29	66.209
336.66	68.079
337.02	65.611
337.38	66.204
337.75	65.152
338.11	64.727
338.47	67.864
338.84	67.461
339.20	66.514
339.56	68.522
339.93	66.727
340.29	66.033
340.65	66.488
341.02	66.492
341.38	68.149
341.74	65.877
342.11	67.336
342.47	67.841
342.83	67.038
343.20	65.801
343.56	66.302
343.92	69.386
344.28	67.347
344.65	67.842
345.01	66.077
345.37	66.724
345.73	67.090
346.10	66.496
346.46	68.983
346.82	64.909
347.19	65.748
347.55	65.435
347.91	66.667
348.27	66.721
348.63	66.973
349.00	65.777
349.36	65.681
349.72	66.239
350.08	64.830
350.45	65.663
350.81	66.288
351.17	65.397
351.53	64.455
351.89	64.026
352.26	65.667
352.62	65.597
352.98	64.749
353.34	65.325
353.70	64.975
354.07	66.048
354.43	64.524
354.79	64.924
355.15	64.804
355.51	66.347
355.87	66.449
356.24	65.879
356.60	64.154
356.96	65.245
357.32	66.885
357.68	63.701
358.04	64.925
358.40	64.846
358.77	64.163
359.13	62.904
359.49	64.627
359.85	62.063
360.21	64.753
360.57	63.891
360.93	64.923
361.29	61.905
361.66	62.926
362.02	63.060
362.38	64.943
362.74	64.658
363.10	62.102
363.46	64.417
363.82	62.434
364.18	62.775
364.54	65.379
364.90	63.810
365.26	62.574
365.62	63.842
365.98	63.696
366.35	61.819
366.71	62.184
367.07	63.948
367.43	63.135
367.79	63.526
368.15	65.086
368.51	62.064
368.87	64.311
369.23	62.326
369.59	64.518
369.95	62.353
370.31	62.464
370.67	62.319
371.03	62.247
371.39	62.391
371.75	63.603
372.11	62.376
372.47	63.123
372.83	63.473
373.19	62.283
373.55	63.636
373.91	63.181
374.27	61.168
374.63	62.691
374.99	62.782
375.35	61.061
375.71	62.577
376.07	60.905
376.42	61.417
376.78	61.233
377.14	62.483
377.50	61.722
377.86	61.237
378.22	61.062
378.58	60.589
378.94	60.591
379.30	61.514
379.66	60.533
380.02	61.179
380.38	59.745
380.74	60.204
381.09	60.147
381.45	62.262
381.81	60.872
382.17	60.955
382.53	59.937
382.89	60.185
383.25	60.225
383.61	60.781
383.97	59.475
384.32	59.701
384.68	59.294
385.04	60.234
385.40	59.876
385.76	59.644
386.12	59.262
386.48	59.912
386.83	61.193
387.19	61.101
387.55	60.297
387.91	59.069
388.27	59.411
388.62	59.189
388.98	59.275
389.34	59.199
389.70	59.044
390.06	59.379
390.42	59.468
390.77	60.178
391.13	59.285
391.49	58.629
391.85	58.052
392.20	58.801
392.56	58.775
392.92	59.152
393.28	58.402
393.64	58.693
393.99	57.117
394.35	59.305
394.71	57.528
395.07	56.947
395.42	57.664
395.78	57.443
396.14	57.852
396.50	57.832
396.85	57.978
397.21	55.302
397.57	56.541
397.92	56.971
398.28	55.830
398.64	56.571
399.00	55.512
399.35	56.176
399.71	55.035
400.07	55.529
400.42	56.442
400.78	56.152
401.14	55.427
401.49	54.985
401.85	55.535
402.21	54.311
402.57	54.411
402.92	55.549
403.28	54.154
403.63	55.507
403.99	55.159
404.35	53.515
404.70	54.736
405.06	53.058
405.42	54.336
405.77	52.743
406.13	52.314
406.49	53.696
406.84	53.042
407.20	53.369
407.55	53.669
407.91	54.333
408.27	53.925
408.62	52.679
408.98	52.574
409.34	53.260
409.69	52.645
410.05	51.673
410.40	52.110
410.76	51.434
411.11	50.784
411.47	51.374
411.83	52.230
412.18	51.020
412.54	50.934
412.89	50.542
413.25	50.767
413.60	50.957
413.96	48.937
414.31	49.392
414.67	50.444
415.03	51.391
415.38	50.322
415.74	50.804
416.09	50.294
416.45	50.067
416.80	50.496
417.16	50.402
417.51	50.232
417.87	48.234
418.22	49.274
418.58	49.709
418.93	49.017
419.29	48.950
419.64	49.685
420.00	48.354
420.35	48.000
420.71	48.177
421.06	48.150
421.42	47.485
421.77	48.374
422.12	48.007
422.48	47.491
422.83	47.816
423.19	46.685
423.54	47.707
423.90	47.652
424.25	46.845
424.61	46.964
424.96	46.764
425.31	46.013
425.67	45.281
426.02	46.057
426.38	46.642
426.73	46.577
427.09	46.140
427.44	46.694
427.79	47.039
428.15	46.369
428.50	45.465
428.85	46.186
429.21	44.451
429.56	45.257
429.92	44.992
430.27	43.595
430.62	44.854
430.98	44.681
431.33	43.918
431.68	44.974
432.04	43.823
432.39	45.117
432.74	44.524
433.10	45.161
433.45	44.315
433.80	44.069
434.16	43.697
434.51	43.474
434.86	43.558
435.22	44.580
435.57	43.769
435.92	43.008
436.28	43.950
436.63	43.377
436.98	42.129
437.34	44.067
437.69	44.166
438.04	43.789
438.39	43.761
438.75	43.579
439.10	43.240
439.45	43.743
439.81	42.719
440.16	42.970
440.51	43.761
440.86	42.849
441.22	43.103
441.57	42.197
441.92	42.631
442.27	41.389
442.63	42.549
442.98	42.761
443.33	41.522
443.68	40.888
444.03	42.362
444.39	40.555
444.74	41.991
445.09	41.132
445.44	41.443
445.79	41.316
446.15	41.927
446.50	41.034
446.85	40.750
447.20	41.356
447.55	40.983
447.91	40.871
448.26	40.902
448.61	41.040
448.96	41.750
449.31	41.170
449.66	40.236
450.02	39.721
450.37	40.023
450.72	40.496
451.07	41.804
451.42	40.243
451.77	41.574
452.12	40.185
452.47	41.045
452.83	41.200
453.18	40.831
453.53	40.569
453.88	39.870
454.23	39.629
454.58	41.127
454.93	41.767
455.28	40.337
455.63	40.837
455.98	41.845
456.34	39.698
456.69	40.764
457.04	40.495
457.39	38.983
457.74	39.002
458.09	40.598
458.44	39.909
458.79	38.557
459.14	40.068
459.49	38.938
459.84	39.280
460.19	39.540
460.54	38.079
460.89	39.770
461.24	39.587
461.59	38.931
461.94	38.409
462.29	38.516
462.64	37.843
462.99	38.126
463.34	39.400
463.69	38.524
464.04	38.899
464.39	38.957
464.74	37.849
465.09	38.179
465.44	37.839
465.79	37.640
466.14	38.041
466.49	37.152
466.84	38.938
467.19	38.503
467.54	38.813
467.89	38.175
468.24	37.056
468.59	40.293
468.94	37.996
469.29	38.946
469.64	38.086
469.99	38.566
470.34	38.375
470.68	38.506
471.03	37.483
471.38	38.429
471.73	38.041
472.08	39.013
472.43	36.935
472.78	38.249
473.13	37.420
473.48	37.516
473.83	38.110
474.17	37.586
474.52	37.531
474.87	38.412
475.22	36.738
475.57	37.023
475.92	35.953
476.27	37.035
476.61	37.341
476.96	36.833
477.31	37.206
477.66	36.488
478.01	36.330
478.36	37.176
478.70	35.877
479.05	36.528
479.40	35.466
479.75	37.011
480.10	36.382
480.45	35.792
480.79	35.404
481.14	36.252
481.49	36.070
481.84	35.802
482.19	35.620
482.53	35.780
482.88	36.110
483.23	36.449
483.58	35.077
483.92	35.426
484.27	34.205
484.62	35.129
484.97	34.529
485.31	34.486
485.66	32.498
486.01	31.835
486.36	30.599
486.70	30.673
487.05	31.755
487.40	31.971
487.75	31.928
488.09	33.394
488.44	33.189
488.79	34.177
489.13	34.492
489.48	34.339
489.83	34.700
490.17	34.634
490.52	34.411
490.87	34.193
491.22	34.425
491.56	34.077
491.91	33.411
492.26	34.681
492.60	35.023
492.95	33.770
493.30	34.673
493.64	34.718
493.99	34.401
494.34	34.829
494.68	34.478
495.03	34.962
495.37	33.923
495.72	34.211
496.07	34.200
496.41	33.540
496.76	34.872
497.11	33.814
497.45	34.467
497.80	33.973
498.14	33.671
498.49	33.756
498.84	33.988
499.18	34.048
499.53	34.330
499.87	34.157
500.22	34.480
500.56	34.417
500.91	34.087
501.26	33.997
501.60	34.219
501.95	32.906
502.29	34.396
502.64	34.218
502.98	33.380
503.33	33.912
503.67	33.318
504.02	33.489
504.36	32.756
504.71	33.366
505.06	33.398
505.40	34.370
505.75	33.462
506.09	33.333
506.44	33.695
506.78	33.658
507.13	33.771
507.47	33.990
507.82	33.992
508.16	33.992
508.51	33.841
508.85	33.317
509.19	34.184
509.54	33.367
509.88	33.591
510.23	33.419
510.57	34.365
510.92	34.490
511.26	33.864
511.61	33.610
511.95	33.507
512.30	34.146
512.64	34.175
512.98	34.137
513.33	33.672
513.67	34.365
514.02	33.496
514.36	34.353
514.70	34.532
515.05	34.021
515.39	33.875
515.74	34.347
516.08	33.818
516.42	34.018
516.77	33.779
517.11	33.574
517.46	34.763
517.80	34.321
518.14	33.411
518.49	35.298
518.83	34.318
519.17	34.527
519.52	34.748
519.86	34.341
520.20	34.393
520.55	35.189
520.89	34.124
521.23	34.439
521.58	34.334
521.92	34.599
522.26	33.862
522.61	34.579
522.95	34.131
523.29	34.753
523.64	34.451
523.98	34.689
524.32	34.741
524.66	34.456
525.01	33.824
525.35	35.440
525.69	34.052
526.04	35.078
526.38	33.435
526.72	34.601
527.06	35.279
527.41	32.797
527.75	33.826
528.09	34.682
528.43	33.779
528.78	34.173
529.12	33.394
529.46	34.109
529.80	34.344
530.15	33.769
530.49	32.800
530.83	34.430
531.17	34.334
531.51	35.992
531.86	33.613
532.20	34.811
532.54	34.273
532.88	34.531
533.22	33.354
533.57	33.333
533.91	32.751
534.25	33.171
534.59	33.435
534.93	34.146
535.27	32.649
535.62	33.028
535.96	33.584
536.30	32.613
536.64	33.741
536.98	34.174
537.32	33.706
537.66	34.267
538.01	34.891
538.35	33.420
538.69	33.631
539.03	33.333
539.37	33.419
539.71	31.886
540.05	32.614
540.39	34.086
540.73	32.730
541.07	33.550
541.42	33.725
541.76	34.839
542.10	33.765
542.44	33.113
542.78	33.794
543.12	32.885
543.46	33.574
543.80	32.856
544.14	31.707
544.48	33.778
544.82	33.291
545.16	34.288
545.50	32.712
545.84	33.065
546.18	34.074
546.52	33.035
546.86	34.021
547.20	33.985
547.54	33.133
547.88	32.781
548.22	31.880
548.56	32.893
548.90	33.163
549.24	32.862
549.58	33.424
549.92	34.341
550.26	33.381
550.60	32.780
550.94	33.873
551.28	32.772
551.62	32.854
551.96	32.632
552.30	34.061
552.64	33.807
552.98	32.881
553.32	32.165
553.66	32.993
554.00	33.356
554.34	33.609
554.68	33.763
555.02	32.793
555.36	32.985
555.69	32.409
556.03	34.051
556.37	32.606
556.71	32.128
557.05	32.983
557.39	32.890
557.73	32.957
558.07	35.098
558.41	32.779
558.75	32.403
559.08	33.557
559.42	34.316
559.76	33.897
560.10	32.691
560.44	32.285
560.78	32.335
561.12	32.058
561.45	33.507
561.79	32.828
562.13	32.998
562.47	33.060
562.81	33.403
563.15	31.906
563.48	32.294
563.82	31.703
564.16	33.682
564.50	33.268
564.84	32.617
565.17	32.690
565.51	32.524
565.85	32.043
566.19	31.810
566.52	32.046
566.86	31.103
567.20	31.427
567.54	31.735
567.88	30.473
568.21	31.111
568.55	29.676
568.89	29.377
569.23	28.699
569.56	28.097
569.90	28.264
570.24	27.592
570.57	27.474
570.91	26.826
571.25	26.745
571.59	27.216
571.92	26.325
572.26	26.719
572.60	27.147
572.93	25.877
573.27	26.649
573.61	26.773
573.95	25.995
574.28	26.055
574.62	25.219
574.96	25.161
575.29	25.582
575.63	26.016
575.97	25.592
576.30	26.527
576.64	25.903
576.98	25.401
577.31	25.185
577.65	25.537
577.98	24.668
578.32	25.119
578.66	25.220
578.99	25.360
579.33	24.764
579.67	24.617
580.00	25.773
580.34	25.392
580.67	25.668
581.01	25.433
581.35	24.790
581.68	24.679
582.02	24.576
582.35	24.394
582.69	24.408
583.02	24.608
583.36	25.340
583.70	26.099
584.03	25.967
584.37	26.535
584.70	25.914
585.04	25.612
585.37	24.953
585.71	25.352
586.04	25.562
586.38	25.758
586.72	25.987
587.05	25.401
587.39	25.567
587.72	25.174
588.06	26.121
588.39	25.926
588.73	26.049
589.06	26.176
589.40	26.970
589.73	26.575
590.07	27.011
590.40	26.343
590.73	27.010
591.07	28.083
591.40	27.625
591.74	28.788
592.07	27.618
592.41	27.697
592.74	26.966
593.08	26.616
593.41	26.384
593.75	25.453
594.08	26.182
594.41	26.193
594.75	26.987
595.08	26.557
595.42	26.970
595.75	26.389
596.09	27.901
596.42	28.173
596.75	28.113
597.09	27.532
597.42	27.192
597.75	27.210
598.09	27.043
598.42	27.148
598.76	27.037
599.09	26.074
599.42	26.201
599.76	26.501
600.09	25.574
600.42	25.968
600.76	26.071
601.09	26.047
601.42	26.218
601.76	26.679
602.09	26.957
602.42	27.189
602.76	27.408
603.09	27.105
603.42	27.138
603.76	26.334
604.09	26.522
604.42	27.313
604.76	27.288
605.09	26.343
605.42	27.576
605.75	26.987
606.09	26.474
606.42	27.258
606.75	27.043
607.09	26.957
607.42	27.343
607.75	26.245
608.08	27.225
608.42	26.849
608.75	27.142
609.08	26.688
609.41	27.844
609.75	27.013
610.08	28.275
610.41	27.328
610.74	26.727
611.07	27.421
611.41	28.361
611.74	28.959
612.07	28.416
612.40	28.332
612.73	27.895
613.07	29.041
613.40	28.541
613.73	27.687
614.06	28.548
614.39	28.002
614.72	27.789
615.06	29.044
615.39	28.132
615.72	27.914
616.05	27.751
616.38	27.738
616.71	28.622
617.05	29.859
617.38	29.044
617.71	28.829
618.04	28.666
618.37	28.031
618.70	28.998
619.03	31.382
619.36	29.939
619.69	30.704
620.03	32.349
620.36	30.548
620.69	31.096
621.02	31.637
621.35	30.305
621.68	30.452
622.01	32.895
622.34	31.392
622.67	31.179
623.00	30.154
623.33	30.522
623.66	30.879
623.99	30.191
624.32	29.815
624.65	30.297
624.99	29.462
625.32	30.340
625.65	30.879
625.98	31.207
626.31	31.649
626.64	32.163
626.97	32.253
627.30	31.671
627.63	32.568
627.96	32.212
628.29	32.458
628.62	34.218
628.95	35.189
629.28	32.755
629.61	33.731
629.94	33.048
630.26	32.698
630.59	33.174
630.92	32.471
631.25	34.255
631.58	33.834
631.91	34.280
632.24	34.283
632.57	35.362
632.90	36.184
633.23	34.787
633.56	35.254
633.89	34.088
634.22	35.074
634.55	34.083
634.88	35.569
635.20	37.873
635.53	34.940
635.86	35.396
636.19	36.471
636.52	36.563
636.85	35.624
637.18	35.714
637.51	36.407
637.83	33.539
638.16	37.596
638.49	37.406
638.82	36.283
639.15	36.625
639.48	37.032
639.81	37.534
640.13	36.198
640.46	37.852
640.79	36.460
641.12	36.864
641.45	37.849
641.77	38.733
642.10	37.427
642.43	36.336
642.76	40.248
643.09	39.417
643.41	37.178
643.74	38.735
644.07	38.415
644.40	41.411
644.73	39.055
645.05	40.729
645.38	38.073
645.71	40.258
646.04	41.860
646.36	41.903
646.69	40.803
647.02	41.156
647.35	42.440
647.67	43.540
648.00	39.837
648.33	38.614
648.66	36.667
648.98	37.931
649.31	37.668
649.64	36.323
649.96	37.556
650.29	39.494
650.62	40.129
650.94	38.574
651.27	39.696
651.60	40.100
651.92	38.818
652.25	39.251
652.58	36.760
652.90	39.336
653.23	36.518
653.56	36.693
653.88	39.144
654.21	38.547
654.54	39.934
654.86	38.006
655.19	35.946
655.52	23.551
655.84	19.329
656.17	25.006
656.49	33.611
656.82	33.560
657.15	25.560
657.47	19.068
657.80	14.488
658.13	15.186
658.45	22.758
658.78	23.281
659.10	24.181
659.43	25.459
659.75	26.798
660.08	28.544
660.41	33.426
660.73	37.738
661.06	38.376
661.38	42.000
661.71	41.731
662.03	43.590
662.36	38.966
662.68	42.169
663.01	42.020
663.33	43.524
663.66	43.697
663.98	44.924
664.31	43.067
664.63	41.700
664.96	38.229
665.28	44.057
665.61	41.520
665.93	41.650
666.26	41.785
666.58	41.632
666.91	43.340
667.23	44.944
667.56	41.469
667.88	44.444
668.21	42.857
668.53	43.167
668.86	44.805
669.18	43.497
669.50	43.478
669.83	45.098
670.15	41.111
670.48	38.562
670.80	42.457
671.13	40.340
671.45	40.638
671.77	42.770
672.10	39.187
672.42	35.512
672.75	39.469
673.07	37.852
673.39	38.156
673.72	37.500
674.04	41.373
674.37	39.612
674.69	39.673
675.01	42.259
675.34	42.300
675.66	41.474
675.98	42.770
676.31	40.126
676.63	44.374
676.95	40.461
677.28	42.757
677.60	41.758
677.92	44.515
678.25	41.478
678.57	38.247
678.89	41.483
679.22	37.525
679.54	39.504
679.86	39.633
680.18	38.640
680.51	38.652
680.83	38.256
681.15	42.075
681.48	44.423
681.80	38.298
682.12	39.080
682.44	37.718
682.77	40.326
683.09	46.352
683.41	44.346
683.73	43.046
684.06	40.702
684.38	39.530
684.70	39.341
685.02	40.525
685.34	39.927
685.67	37.063
685.99	38.316
686.31	36.689
686.63	34.099
686.96	38.214
687.28	36.643
687.60	38.406
687.92	39.854
688.24	38.973
688.56	42.169
688.89	39.212
689.21	41.266
689.53	39.666
689.85	40.576
690.17	39.130
690.49	41.189
690.82	42.290
691.14	41.295
691.46	38.608
691.78	39.759
692.10	42.355
692.42	40.918
692.74	38.174
693.06	38.723
693.39	38.604
693.71	41.485
694.03	39.368
694.35	39.177
694.67	40.275
694.99	43.415
695.31	43.627
695.63	41.148
695.95	42.787
696.27	41.117
696.59	44.301
696.91	44.041
697.23	38.498
697.56	40.725
697.88	37.832
698.20	38.750
698.52	37.849
698.84	38.753
699.16	39.401
699.48	43.705
699.80	41.787
700.12	46.753
700.44	43.501
700.76	46.685
701.08	43.966
701.40	42.737
701.72	44.023
702.04	45.455
702.36	42.210
702.68	44.759
703.00	45.706
703.32	41.223
703.64	41.019
703.96	46.797
704.28	43.314
704.60	44.282
704.91	43.917
705.23	45.161
705.55	50.498
705.87	53.156
706.19	50.883
706.51	46.729
706.83	44.848
707.15	44.538
707.47	39.394
707.79	41.769
708.11	41.553
708.43	39.762
708.74	40.816
709.06	40.779
709.38	45.407
709.70	45.058
710.02	44.807
710.34	43.030
710.66	42.985
710.98	42.614
711.29	43.605
711.61	47.493
711.93	45.192
712.25	49.196
712.57	47.794
712.89	48.789
713.20	44.985
713.52	47.697
713.84	45.253
714.16	46.646
714.48	45.402
714.80	48.936
715.11	44.092
715.43	43.620
715.75	44.058
716.07	48.243
716.39	42.633
716.70	45.515
717.02	46.403
717.34	47.350
717.66	50.373
717.97	57.371
718.29	48.889
718.61	49.270
718.93	49.265
719.24	45.329
719.56	46.780
719.88	46.441
720.20	48.986
720.51	51.220
720.83	53.903
721.15	48.507
721.46	45.745
721.78	46.953
722.10	51.321
722.42	55.639
722.73	50.936
723.05	48.361
723.37	44.939
723.68	49.421
724.00	48.780
724.32	50.000
724.63	45.935
724.95	48.954
725.27	51.822
725.58	50.391
725.90	50.730
726.22	51.321
726.53	46.181
726.85	45.051
727.16	45.907
727.48	50.709
727.80	47.727
728.11	44.565
728.43	48.846
728.74	44.803
729.06	48.175
729.38	53.309
729.69	44.484
730.01	43.345
730.32	44.792
730.64	44.816
730.96	42.244
731.27	46.358
731.59	43.731
731.90	45.773
732.22	42.236
732.53	42.415
732.85	40.705
733.16	42.122
733.48	45.183
733.80	40.584
734.11	49.363
734.43	41.716
734.74	41.429
735.06	42.407
735.37	42.197
735.69	43.949
736.00	45.425
736.32	44.860
736.63	43.131
736.95	43.131
737.26	40.476
737.58	40.323
737.89	44.482
738.21	45.392
738.52	47.143
738.83	45.283
739.15	45.769
739.46	46.715
739.78	47.222
740.09	41.231
740.41	44.839
740.72	43.902
741.04	47.778
741.35	46.250
741.66	58.667
741.98	53.302
742.29	54.067
742.61	55.603
742.92	51.131
743.23	51.282
743.55	49.600
743.86	52.632
744.18	56.637
744.49	56.459
744.80	53.991
745.12	57.727
745.43	50.220
745.74	55.405
746.06	50.000
746.37	51.570
746.68	50.679
747.00	50.000
747.31	58.571
747.62	50.885
747.94	56.388
748.25	48.936
748.56	53.744
748.88	53.960
749.19	60.000
749.50	55.349
749.82	45.935
750.13	45.306
750.44	45.620
750.75	50.877
751.07	48.232
751.38	49.477
751.69	47.292
752.01	48.120
752.32	45.848
752.63	47.163
752.94	48.361
753.26	53.200
753.57	48.374
753.88	47.656
754.19	45.714
754.51	49.306
754.82	41.155
755.13	49.434
755.44	48.120
755.75	42.336
756.07	43.617
756.38	43.066
756.69	47.315
757.00	40.120
757.31	39.169
757.63	40.058
757.94	40.483
758.25	36.029
758.56	37.284
758.87	37.903
759.18	44.848
759.50	42.320
759.81	43.614
760.12	40.000
760.43	40.401
760.74	38.043
761.05	39.266
761.36	38.770
761.67	42.614
761.99	45.963
762.30	44.792
762.61	46.947
762.92	44.141
763.23	50.000
763.54	51.200
763.85	43.750
764.16	48.077
764.47	47.529
764.78	43.110
765.10	39.241
765.41	43.953
765.72	40.419
766.03	44.514
766.34	43.667
766.65	48.511
766.96	44.872
767.27	51.269
767.58	57.292
767.89	58.421
768.20	59.770
768.51	56.853
768.82	50.917
769.13	45.935
769.44	45.749
769.75	43.777
770.06	44.954
770.37	46.154
770.68	50.000
770.99	51.111
771.30	39.344
771.61	50.224
771.92	48.770
772.23	50.840
772.54	55.897
772.85	51.832
773.16	59.574
773.47	59.239
773.78	56.345
774.09	57.143
774.39	58.480
774.70	61.111
775.01	65.942
775.32	67.320
775.63	66.447
775.94	60.432
776.25	70.866
776.56	64.925
776.87	81.148
777.18	71.094
777.48	74.809
777.79	70.455
778.10	57.778
778.41	73.214
778.72	57.664
779.03	60.403
779.34	53.691
779.65	58.784
779.95	53.988
780.26	68.627
780.57	69.655
780.88	69.531
781.19	66.165
781.50	63.514
781.80	55.346
782.11	49.153
782.42	49.367
782.73	55.215
783.04	58.784
783.34	57.746
783.65	66.438
783.96	70.149
784.27	60.140
784.57	60.432
784.88	60.185
785.19	69.048
785.50	75.472
785.81	73.134
786.11	69.672
786.42	71.318
786.73	69.027
787.04	64.151
787.34	74.107
787.65	76.000
787.96	74.775
788.26	68.595
788.57	79.661
788.88	73.554
789.19	59.722
789.49	72.727
789.80	64.122
790.11	81.905
790.41	78.218
790.72	91.566
791.03	89.130
791.33	86.047
791.64	77.320
791.95	89.109
792.25	94.444
792.56	92.208
792.87	89.744
793.17	111.392
793.48	86.207
793.79	86.207
794.09	81.818
794.40	70.588
794.70	74.265
795.01	66.667
795.32	64.748
795.62	55.906
795.93	75.000
796.23	59.292
796.54	82.353
796.85	97.297
797.15	115.493
797.46	93.939
797.76	98.795
798.07	86.076
798.37	106.154
798.68	107.576
798.99	83.099
799.29	85.714
799.60	90.909
799.90	106.849
800.21	107.463
800.51	113.793
800.82	112.281
801.12	95.082
801.43	121.212
801.73	95.946
802.04	125.397
802.34	100.000
802.65	125.000
802.95	116.949
803.26	107.813
803.56	91.429
803.87	100.000
804.17	98.529
804.48	131.481
804.78	110.345
805.09	107.353
805.39	109.615
805.70	128.571
806.00	106.557
806.30	86.364
806.61	100.000
806.91	87.342
807.22	93.421
807.52	80.597
807.83	112.676
808.13	115.625
808.43	111.667
808.74	78.947
809.04	111.594
809.35	125.373
809.65	94.737
809.95	108.065
810.26	110.169
810.56	106.349
810.86	165.909
811.17	152.381
811.47	118.333
811.77	107.407
812.08	125.455
812.38	144.000
812.69	150.000
812.99	154.545
813.29	114.286
813.59	133.333
813.90	151.020
814.20	127.273
814.50	100.000
814.81	104.412
815.11	122.449
815.41	106.557
815.72	166.667
816.02	130.909
816.32	135.714
816.62	142.500
816.93	129.268
817.23	157.143
817.53	150.000
817.84	212.121
818.14	130.435
818.44	153.333
818.74	170.588
819.04	155.000
819.35	157.143
819.65	161.765
819.95	167.857
820.25	230.000
820.56	158.974
820.86	113.636
821.16	155.814
821.46	141.026
821.76	118.000
822.07	182.857
822.37	160.000
822.67	178.788
822.97	133.333
823.27	257.143
823.57	162.162
823.88	162.500
824.18	226.667
824.48	159.524
824.78	236.000
825.08	241.667
825.38	202.703
825.69	112.195
825.99	220.833
826.29	172.414
826.59	155.263
826.89	165.789
827.19	202.941
827.49	170.968
827.79	152.273
828.09	120.455
828.39	125.532
828.70	134.694
829.00	166.667
829.30	138.710
829.60	142.500
829.90	320.000
830.20	200.000
830.50	226.087
830.80	282.609
831.10	213.333
831.40	186.667
831.70	239.130
832.00	215.385
832.30	225.926
832.60	362.500
832.90	203.333
833.20	435.714
833.50	216.129
833.80	210.345
834.10	203.125
834.40	207.692
834.70	277.778
835.00	295.238
835.30	180.000
835.60	353.846
835.90	203.448
836.20	435.714
836.50	168.966
836.80	212.000
837.10	180.556
837.40	257.143
837.70	388.235
838.00	266.667
838.30	233.333
838.60	357.143
838.90	215.385
839.19	295.000
839.49	457.143
839.79	380.000
840.09	315.000
840.39	285.714
840.69	273.913
840.99	316.667
841.29	530.000
841.59	458.333
841.88	381.250
842.18	203.448
842.48	271.429
842.78	176.667
843.08	247.826
843.38	187.500
843.68	750.000
843.97	203.846
844.27	193.103
844.57	333.333
844.87	368.750
845.17	225.926
845.47	1466.667
845.76	500.000
846.06	335.294
846.36	512.500
846.66	435.714
846.96	312.500
847.25	481.818
847.55	409.091
847.85	252.174
848.15	670.000
848.44	392.857
848.74	294.444
849.04	347.059
849.34	520.000
849.63	310.526
849.93	436.364
850.23	1220.000
850.53	428.571
850.82	2550.000
851.12	-4200.000
851.42	5700.000
851.71	280.000
852.01	-1166.667
852.31	204.167
852.61	1800.000
852.90	257.143
853.20	232.000
853.50	317.647
853.79	247.619
854.09	225.000
854.39	356.250
854.68	175.676
854.98	187.097
855.28	180.000
855.57	231.034
855.87	225.926
856.17	289.474
856.46	280.000
856.76	305.882
857.05	206.897
857.35	229.167
857.65	333.333
857.94	273.913
858.24	196.154
858.53	275.000
858.83	259.091
859.13	346.667
859.42	0.000
859.72	533.333
860.01	454.545
860.31	290.909
860.60	252.632
860.90	252.174
861.20	611.111
861.49	500.000
861.79	-5200.000
862.08	625.000
862.38	280.952
862.67	261.538
862.97	347.059
863.26	511.111
863.56	333.333
863.85	408.333
864.15	575.000
864.44	406.667
864.74	1000.000
865.03	700.000
865.33	252.632
865.62	354.545
865.92	415.385
866.21	416.667
866.51	0.000
866.80	509.091
867.10	1080.000
867.39	423.077
867.69	418.182
867.98	247.368
868.27	518.182
868.57	342.105
868.86	-4400.000
869.16	356.250
869.45	1900.000
869.75	-5000.000
870.04	441.667
870.33	614.286
870.63	1300.000
870.92	2800.000
871.22	785.714
871.51	258.824
871.80	223.810
872.10	442.857
>>>>>End Processed Spectral Data<<<<<
