SpectraSuite Data File
++++++++++++++++++++++++++++++++++++
Date: Wed May 13 19:40:18 PDT 2015
User: schluterlab
Dark Spectrum Present: Yes
Reference Spectrum Present: Yes
Number of Sampled Component Spectra: 1
Spectrometers: USB2E3373
Integration Time (usec): 3000 (USB2E3373)
Spectra Averaged: 3 (USB2E3373)
Boxcar Smoothing: 0 (USB2E3373)
Correct for Electrical Dark: No (USB2E3373)
Strobe/Lamp Enabled: No (USB2E3373)
Correct for Detector Non-linearity: No (USB2E3373)
Correct for Stray Light: No (USB2E3373)
Number of Pixels in Processed Spectrum: 2048
>>>>>Begin Processed Spectral Data<<<<<
178.53	0.000
178.91	-1375.000
179.29	-1400.000
179.67	-261.111
180.04	-1325.000
180.42	2900.000
180.80	1060.000
181.18	-1225.000
181.56	728.571
181.94	0.000
182.31	-700.000
182.69	1900.000
183.07	-575.000
183.45	-511.111
183.83	636.364
184.20	-510.000
184.58	2500.000
184.96	5600.000
185.34	-1020.000
185.72	-637.500
186.09	-2350.000
186.47	2850.000
186.85	2400.000
187.23	4600.000
187.61	-1933.333
187.98	1650.000
188.36	554.545
188.74	509.091
189.12	-800.000
189.49	550.000
189.87	-4700.000
190.25	-1375.000
190.63	378.571
191.00	415.385
191.38	716.667
191.76	-1150.000
192.14	1500.000
192.51	687.500
192.89	1000.000
193.27	575.000
193.65	-1300.000
194.02	490.000
194.40	1060.000
194.78	630.000
195.15	483.333
195.53	660.000
195.91	-2650.000
196.29	312.500
196.66	363.158
197.04	-320.000
197.42	0.000
197.79	650.000
198.17	-5300.000
198.55	714.286
198.92	712.500
199.30	760.000
199.68	0.000
200.05	327.778
200.43	814.286
200.81	4900.000
201.18	1766.667
201.56	-2033.333
201.94	633.333
202.31	622.222
202.69	433.333
203.07	660.000
203.44	0.000
203.82	1325.000
204.19	742.857
204.57	450.000
204.95	687.500
205.32	1800.000
205.70	572.727
206.08	371.429
206.45	2800.000
206.83	350.000
207.20	883.333
207.58	960.000
207.96	294.444
208.33	762.500
208.71	-816.667
209.08	785.714
209.46	700.000
209.84	445.455
210.21	-1633.333
210.59	1600.000
210.96	-512.500
211.34	2950.000
211.71	630.000
212.09	783.333
212.46	0.000
212.84	1800.000
213.22	1325.000
213.59	-4800.000
213.97	916.667
214.34	800.000
214.72	554.545
215.09	1140.000
215.47	-2700.000
215.84	-2250.000
216.22	1566.667
216.59	435.714
216.97	1475.000
217.34	418.182
217.72	-766.667
218.09	0.000
218.47	-5700.000
218.84	688.889
219.22	828.571
219.59	1766.667
219.97	-657.143
220.34	1000.000
220.72	-1800.000
221.09	435.714
221.47	1450.000
221.84	-1016.667
222.22	0.000
222.59	1750.000
222.97	-2800.000
223.34	1220.000
223.72	492.308
224.09	1140.000
224.46	2500.000
224.84	-4100.000
225.21	-1020.000
225.59	-4700.000
225.96	640.000
226.34	280.000
226.71	2700.000
227.08	737.500
227.46	570.000
227.83	-1100.000
228.21	-2550.000
228.58	666.667
228.95	-2600.000
229.33	-2550.000
229.70	1766.667
230.08	900.000
230.45	-1000.000
230.82	441.667
231.20	816.667
231.57	657.143
231.95	450.000
232.32	281.818
232.69	390.909
233.07	542.857
233.44	438.462
233.81	-1833.333
234.19	305.263
234.56	433.333
234.93	391.667
235.31	454.545
235.68	392.308
236.05	428.571
236.43	166.667
236.80	284.211
237.17	4200.000
237.55	266.667
237.92	217.857
238.29	252.381
238.67	203.226
239.04	244.828
239.41	188.889
239.79	126.087
240.16	145.238
240.53	88.636
240.91	113.725
241.28	104.000
241.65	90.000
242.02	86.957
242.40	77.419
242.77	88.333
243.14	73.118
243.51	77.528
243.89	85.882
244.26	60.000
244.63	55.914
245.00	55.319
245.38	62.376
245.75	60.748
246.12	53.211
246.49	57.664
246.87	64.000
247.24	57.692
247.61	45.000
247.98	50.980
248.36	45.946
248.73	48.408
249.10	46.497
249.47	37.853
249.84	41.711
250.22	35.294
250.59	43.787
250.96	42.929
251.33	41.232
251.70	45.050
252.08	35.714
252.45	38.117
252.82	29.565
253.19	39.574
253.56	37.255
253.94	37.759
254.31	35.156
254.68	35.769
255.05	38.007
255.42	32.520
255.79	31.250
256.16	31.769
256.54	29.682
256.91	30.249
257.28	30.935
257.65	31.023
258.02	31.056
258.39	27.760
258.76	27.090
259.14	29.167
259.51	28.571
259.88	24.224
260.25	28.399
260.62	28.035
260.99	27.019
261.36	26.426
261.73	28.367
262.10	29.070
262.47	29.296
262.85	26.184
263.22	25.071
263.59	29.915
263.96	26.923
264.33	27.937
264.70	25.000
265.07	26.598
265.44	24.495
265.81	25.791
266.18	23.869
266.55	26.829
266.92	25.307
267.29	25.000
267.66	23.624
268.03	23.864
268.40	27.103
268.77	22.673
269.14	23.198
269.51	24.831
269.88	23.543
270.25	22.122
270.62	26.292
270.99	26.022
271.36	23.391
271.73	23.131
272.10	22.174
272.47	24.516
272.84	22.294
273.21	23.061
273.58	22.489
273.95	22.432
274.32	21.901
274.69	23.555
275.06	20.472
275.43	23.617
275.80	21.242
276.17	22.607
276.54	22.869
276.91	22.530
277.28	20.313
277.65	20.696
278.02	19.669
278.39	24.023
278.76	21.455
279.13	22.642
279.50	20.112
279.87	23.108
280.23	22.355
280.60	20.503
280.97	22.921
281.34	22.124
281.71	22.182
282.08	22.265
282.45	18.727
282.82	21.492
283.19	19.964
283.56	20.175
283.92	21.658
284.29	19.048
284.66	21.053
285.03	18.264
285.40	22.183
285.77	20.202
286.14	20.898
286.51	19.667
286.87	21.709
287.24	20.358
287.61	19.904
287.98	19.481
288.35	18.384
288.72	20.717
289.08	17.840
289.45	19.275
289.82	19.350
290.19	18.681
290.56	18.224
290.93	14.955
291.29	19.632
291.66	18.879
292.03	20.930
292.40	20.411
292.77	17.751
293.13	17.164
293.50	18.222
293.87	18.074
294.24	17.481
294.60	16.448
294.97	17.878
295.34	17.630
295.71	18.040
296.08	14.815
296.44	17.194
296.81	16.380
297.18	17.209
297.55	14.776
297.91	16.359
298.28	16.734
298.65	16.971
299.02	16.337
299.38	15.139
299.75	15.364
300.12	15.709
300.48	16.000
300.85	15.906
301.22	15.159
301.59	15.025
301.95	15.113
302.32	14.377
302.69	16.726
303.05	14.424
303.42	15.679
303.79	14.043
304.15	13.170
304.52	14.948
304.89	13.937
305.25	15.081
305.62	14.949
305.99	15.584
306.35	15.213
306.72	14.462
307.09	15.871
307.45	16.667
307.82	13.951
308.19	15.453
308.55	15.858
308.92	14.715
309.29	14.678
309.65	12.937
310.02	15.433
310.38	14.516
310.75	14.889
311.12	14.739
311.48	14.107
311.85	15.094
312.22	15.921
312.58	14.657
312.95	15.628
313.31	14.272
313.68	15.593
314.05	16.469
314.41	15.578
314.78	15.408
315.14	15.789
315.51	15.860
315.87	16.040
316.24	14.896
316.61	15.302
316.97	15.753
317.34	14.677
317.70	15.201
318.07	17.228
318.43	15.753
318.80	16.401
319.16	15.631
319.53	15.854
319.89	16.952
320.26	18.900
320.62	17.857
320.99	17.879
321.35	17.778
321.72	17.556
322.08	18.460
322.45	19.602
322.81	19.864
323.18	20.520
323.54	20.037
323.91	18.679
324.27	20.076
324.64	19.571
325.00	18.575
325.37	19.108
325.73	20.736
326.10	19.682
326.46	19.444
326.83	20.276
327.19	22.032
327.56	22.038
327.92	21.872
328.29	22.094
328.65	21.363
329.01	22.563
329.38	22.387
329.74	22.253
330.11	22.243
330.47	22.130
330.84	23.805
331.20	21.767
331.56	22.569
331.93	22.685
332.29	23.070
332.66	25.044
333.02	22.212
333.38	23.216
333.75	24.421
334.11	23.932
334.48	22.981
334.84	21.507
335.20	22.545
335.57	23.209
335.93	21.786
336.29	22.894
336.66	23.986
337.02	22.534
337.38	24.537
337.75	22.014
338.11	22.292
338.47	23.757
338.84	23.281
339.20	22.752
339.56	23.266
339.93	21.909
340.29	22.645
340.65	23.262
341.02	23.822
341.38	22.687
341.74	22.632
342.11	25.066
342.47	24.229
342.83	23.288
343.20	24.069
343.56	23.336
343.92	22.895
344.28	23.129
344.65	23.990
345.01	23.401
345.37	22.556
345.73	24.281
346.10	23.700
346.46	24.322
346.82	22.900
347.19	23.141
347.55	23.153
347.91	24.110
348.27	24.158
348.63	23.495
349.00	24.110
349.36	24.220
349.72	23.256
350.08	22.934
350.45	22.783
350.81	23.883
351.17	22.690
351.53	23.505
351.89	22.195
352.26	23.757
352.62	24.058
352.98	23.906
353.34	24.486
353.70	22.095
354.07	23.790
354.43	23.810
354.79	23.652
355.15	23.623
355.51	25.020
355.87	23.755
356.24	23.779
356.60	23.176
356.96	25.181
357.32	23.140
357.68	24.803
358.04	23.911
358.40	24.228
358.77	25.117
359.13	23.125
359.49	23.216
359.85	23.333
360.21	23.046
360.57	24.747
360.93	24.077
361.29	23.810
361.66	23.452
362.02	24.478
362.38	24.791
362.74	23.214
363.10	22.946
363.46	23.111
363.82	23.507
364.18	24.449
364.54	24.814
364.90	24.433
365.26	24.926
365.62	24.617
365.98	24.178
366.35	23.496
366.71	24.729
367.07	24.618
367.43	24.891
367.79	24.768
368.15	24.353
368.51	23.619
368.87	23.840
369.23	24.653
369.59	24.475
369.95	23.382
370.31	26.567
370.67	24.565
371.03	25.768
371.39	25.802
371.75	25.882
372.11	24.111
372.47	25.367
372.83	25.432
373.19	25.145
373.55	26.829
373.91	26.215
374.27	24.536
374.63	24.655
374.99	26.059
375.35	24.634
375.71	24.743
376.07	25.652
376.42	24.691
376.78	26.044
377.14	25.170
377.50	25.894
377.86	25.066
378.22	25.664
378.58	25.000
378.94	25.770
379.30	25.573
379.66	27.030
380.02	25.061
380.38	25.804
380.74	25.150
381.09	26.895
381.45	25.999
381.81	26.474
382.17	25.924
382.53	26.541
382.89	26.914
383.25	26.204
383.61	26.952
383.97	26.517
384.32	26.138
384.68	25.217
385.04	25.876
385.40	26.563
385.76	26.229
386.12	27.267
386.48	26.872
386.83	27.325
387.19	27.644
387.55	27.149
387.91	27.025
388.27	25.383
388.62	26.675
388.98	25.246
389.34	26.658
389.70	26.732
390.06	27.820
390.42	27.043
390.77	26.399
391.13	27.824
391.49	27.157
391.85	26.353
392.20	26.688
392.56	27.399
392.92	26.839
393.28	26.686
393.64	26.739
393.99	26.695
394.35	26.985
394.71	27.415
395.07	26.729
395.42	27.441
395.78	26.781
396.14	26.940
396.50	27.569
396.85	27.654
397.21	26.202
397.57	26.534
397.92	27.344
398.28	26.457
398.64	27.001
399.00	26.861
399.35	26.904
399.71	26.389
400.07	26.671
400.42	26.564
400.78	28.106
401.14	26.524
401.49	26.985
401.85	26.860
402.21	26.707
402.57	25.787
402.92	27.175
403.28	26.983
403.63	27.413
403.99	26.815
404.35	27.394
404.70	26.559
405.06	26.907
405.42	27.760
405.77	26.971
406.13	26.693
406.49	26.730
406.84	26.462
407.20	26.714
407.55	27.888
407.91	27.333
408.27	26.994
408.62	26.791
408.98	27.022
409.34	26.076
409.69	26.387
410.05	26.394
410.40	27.095
410.76	26.882
411.11	26.960
411.47	26.390
411.83	26.512
412.18	26.221
412.54	26.463
412.89	26.928
413.25	26.328
413.60	27.239
413.96	26.655
414.31	26.306
414.67	27.567
415.03	27.152
415.38	27.126
415.74	27.074
416.09	28.217
416.45	26.305
416.80	27.429
417.16	28.217
417.51	27.671
417.87	26.846
418.22	27.571
418.58	26.727
418.93	27.088
419.29	27.371
419.64	28.275
420.00	27.195
420.35	27.536
420.71	26.718
421.06	26.969
421.42	27.251
421.77	27.354
422.12	26.446
422.48	26.659
422.83	27.024
423.19	26.630
423.54	26.814
423.90	27.826
424.25	27.192
424.61	27.083
424.96	28.222
425.31	27.796
425.67	26.573
426.02	27.600
426.38	28.388
426.73	27.970
427.09	28.146
427.44	28.350
427.79	27.487
428.15	28.095
428.50	27.267
428.85	28.129
429.21	27.443
429.56	27.424
429.92	27.076
430.27	27.706
430.62	27.240
430.98	27.815
431.33	27.526
431.68	28.482
432.04	27.902
432.39	27.641
432.74	28.007
433.10	27.900
433.45	28.455
433.80	27.494
434.16	27.618
434.51	27.526
434.86	28.107
435.22	27.960
435.57	29.970
435.92	26.858
436.28	29.181
436.63	28.587
436.98	27.762
437.34	28.861
437.69	28.005
438.04	28.387
438.39	27.940
438.75	29.053
439.10	27.654
439.45	28.985
439.81	28.580
440.16	27.950
440.51	27.885
440.86	28.489
441.22	28.198
441.57	27.070
441.92	28.250
442.27	28.418
442.63	27.699
442.98	28.507
443.33	28.370
443.68	28.033
444.03	27.770
444.39	28.043
444.74	27.976
445.09	27.817
445.44	28.267
445.79	28.154
446.15	29.698
446.50	28.487
446.85	28.520
447.20	28.557
447.55	29.034
447.91	29.233
448.26	28.826
448.61	28.038
448.96	28.184
449.31	28.684
449.66	27.462
450.02	28.691
450.37	28.458
450.72	28.144
451.07	28.702
451.42	28.207
451.77	29.301
452.12	28.522
452.47	28.545
452.83	28.846
453.18	28.423
453.53	28.819
453.88	27.820
454.23	28.452
454.58	29.134
454.93	30.388
455.28	28.928
455.63	28.580
455.98	29.405
456.34	28.706
456.69	28.867
457.04	29.288
457.39	27.937
457.74	27.858
458.09	28.522
458.44	27.195
458.79	28.037
459.14	28.160
459.49	28.955
459.84	28.255
460.19	28.521
460.54	27.373
460.89	28.031
461.24	28.355
461.59	28.472
461.94	28.360
462.29	29.258
462.64	27.760
462.99	27.456
463.34	29.467
463.69	29.081
464.04	28.174
464.39	28.116
464.74	28.164
465.09	27.382
465.44	28.033
465.79	27.573
466.14	27.313
466.49	27.364
466.84	27.612
467.19	28.304
467.54	28.000
467.89	27.011
468.24	27.400
468.59	28.205
468.94	27.123
469.29	27.699
469.64	29.116
469.99	28.281
470.34	27.873
470.68	28.376
471.03	27.959
471.38	28.770
471.73	27.781
472.08	29.079
472.43	27.513
472.78	27.716
473.13	27.920
473.48	28.340
473.83	28.171
474.17	27.069
474.52	27.667
474.87	28.546
475.22	27.974
475.57	26.814
475.92	27.244
476.27	27.170
476.61	27.413
476.96	27.708
477.31	27.054
477.66	27.133
478.01	26.607
478.36	27.340
478.70	26.272
479.05	25.879
479.40	27.431
479.75	27.148
480.10	26.392
480.45	26.321
480.79	25.848
481.14	26.663
481.49	26.483
481.84	26.520
482.19	26.806
482.53	25.917
482.88	26.570
483.23	26.542
483.58	26.206
483.92	26.945
484.27	25.316
484.62	25.776
484.97	25.503
485.31	26.062
485.66	24.680
486.01	23.489
486.36	22.946
486.70	23.371
487.05	23.816
487.40	24.540
487.75	25.192
488.09	25.265
488.44	25.951
488.79	26.510
489.13	25.286
489.48	24.959
489.83	25.076
490.17	25.997
490.52	25.554
490.87	25.645
491.22	25.966
491.56	25.057
491.91	24.709
492.26	25.448
492.60	25.392
492.95	24.696
493.30	25.093
493.64	24.592
493.99	24.791
494.34	25.116
494.68	25.458
495.03	25.611
495.37	25.081
495.72	25.439
496.07	25.800
496.41	24.204
496.76	25.462
497.11	24.719
497.45	24.499
497.80	25.192
498.14	25.314
498.49	25.073
498.84	24.928
499.18	24.857
499.53	24.786
499.87	25.116
500.22	24.541
500.56	25.485
500.91	24.375
501.26	24.846
501.60	25.202
501.95	24.381
502.29	25.211
502.64	24.953
502.98	24.684
503.33	24.269
503.67	24.965
504.02	24.836
504.36	23.865
504.71	25.159
505.06	24.337
505.40	24.356
505.75	24.108
506.09	24.393
506.44	24.174
506.78	24.793
507.13	24.836
507.47	25.051
507.82	24.671
508.16	24.671
508.51	25.266
508.85	24.528
509.19	24.796
509.54	24.847
509.88	24.317
510.23	24.833
510.57	25.335
510.92	23.770
511.26	24.460
511.61	25.156
511.95	24.061
512.30	24.125
512.64	24.127
512.98	25.241
513.33	24.732
513.67	24.173
514.02	23.701
514.36	24.741
514.70	24.737
515.05	24.763
515.39	24.621
515.74	23.592
516.08	24.930
516.42	24.584
516.77	25.028
517.11	24.306
517.46	25.226
517.80	25.087
518.14	24.146
518.49	25.496
518.83	25.227
519.17	23.499
519.52	24.109
519.86	25.214
520.20	24.162
520.55	25.254
520.89	25.669
521.23	26.719
521.58	25.090
521.92	24.985
522.26	24.466
522.61	26.106
522.95	24.125
523.29	24.833
523.64	24.939
523.98	25.262
524.32	24.789
524.66	25.556
525.01	25.123
525.35	24.845
525.69	24.076
526.04	24.424
526.38	25.137
526.72	24.172
527.06	24.670
527.41	22.710
527.75	25.145
528.09	24.920
528.43	24.092
528.78	24.647
529.12	24.727
529.46	25.536
529.80	25.124
530.15	25.296
530.49	24.554
530.83	25.380
531.17	25.196
531.51	25.097
531.86	24.065
532.20	24.707
532.54	25.240
532.88	24.904
533.22	24.360
533.57	23.889
533.91	24.022
534.25	24.301
534.59	24.649
534.93	24.509
535.27	24.261
535.62	24.054
535.96	24.608
536.30	24.031
536.64	24.211
536.98	24.419
537.32	24.951
537.66	24.133
538.01	24.621
538.35	23.723
538.69	25.590
539.03	24.561
539.37	24.281
539.71	22.683
540.05	24.967
540.39	23.787
540.73	24.515
541.07	24.010
541.42	24.788
541.76	24.516
542.10	24.127
542.44	24.172
542.78	25.626
543.12	24.440
543.46	23.148
543.80	23.813
544.14	23.299
544.48	24.508
544.82	23.348
545.16	24.073
545.50	23.522
545.84	22.984
546.18	23.502
546.52	24.157
546.86	23.849
547.20	24.882
547.54	23.647
547.88	23.087
548.22	22.727
548.56	23.208
548.90	23.880
549.24	23.165
549.58	24.079
549.92	23.489
550.26	24.432
550.60	24.136
550.94	23.662
551.28	22.238
551.62	24.155
551.96	23.228
552.30	23.686
552.64	23.732
552.98	23.458
553.32	22.927
553.66	23.995
554.00	23.061
554.34	23.602
554.68	23.748
555.02	23.131
555.36	22.965
555.69	23.004
556.03	22.813
556.37	24.011
556.71	21.760
557.05	22.969
557.39	22.603
557.73	23.218
558.07	23.423
558.41	22.648
558.75	22.337
559.08	23.565
559.42	22.751
559.76	22.426
560.10	21.913
560.44	23.480
560.78	22.023
561.12	22.823
561.45	23.012
561.79	22.544
562.13	23.675
562.47	22.609
562.81	22.803
563.15	22.475
563.48	22.215
563.82	22.374
564.16	21.517
564.50	21.940
564.84	22.250
565.17	22.265
565.51	22.556
565.85	22.525
566.19	21.791
566.52	22.546
566.86	21.218
567.20	21.167
567.54	21.747
567.88	21.076
568.21	21.164
568.55	21.739
568.89	21.012
569.23	20.276
569.56	19.879
569.90	20.151
570.24	19.950
570.57	19.551
570.91	18.908
571.25	19.117
571.59	19.588
571.92	18.923
572.26	19.555
572.60	19.940
572.93	19.250
573.27	19.403
573.61	19.542
573.95	19.457
574.28	19.045
574.62	18.683
574.96	18.184
575.29	19.011
575.63	18.750
575.97	19.188
576.30	19.065
576.64	18.297
576.98	18.887
577.31	18.923
577.65	18.567
577.98	18.154
578.32	18.110
578.66	18.470
578.99	18.923
579.33	18.712
579.67	18.852
580.00	18.485
580.34	18.771
580.67	18.884
581.01	18.170
581.35	18.368
581.68	18.207
582.02	17.842
582.35	17.884
582.69	18.192
583.02	18.267
583.36	18.976
583.70	18.806
584.03	19.070
584.37	19.341
584.70	18.992
585.04	18.958
585.37	18.383
585.71	18.351
586.04	18.362
586.38	19.096
586.72	18.724
587.05	17.930
587.39	18.021
587.72	18.372
588.06	18.810
588.39	18.738
588.73	19.097
589.06	18.697
589.40	19.428
589.73	19.183
590.07	19.075
590.40	18.962
590.73	19.789
591.07	19.943
591.40	19.654
591.74	20.043
592.07	19.546
592.41	19.595
592.74	18.727
593.08	18.821
593.41	18.475
593.75	17.801
594.08	18.639
594.41	18.487
594.75	18.299
595.08	18.826
595.42	19.124
595.75	18.768
596.09	19.564
596.42	19.882
596.75	19.586
597.09	20.346
597.42	18.887
597.75	19.534
598.09	18.261
598.42	18.471
598.76	18.930
599.09	18.206
599.42	18.268
599.76	18.265
600.09	18.543
600.42	18.115
600.76	18.357
601.09	18.106
601.42	18.493
601.76	18.748
602.09	17.945
602.42	18.989
602.76	19.468
603.09	19.079
603.42	18.821
603.76	18.216
604.09	19.193
604.42	18.997
604.76	19.022
605.09	18.174
605.42	18.769
605.75	18.377
606.09	18.707
606.42	18.390
606.75	18.457
607.09	18.334
607.42	18.614
607.75	17.848
608.08	18.584
608.42	18.602
608.75	18.215
609.08	19.010
609.41	19.372
609.75	18.914
610.08	18.049
610.41	18.203
610.74	18.827
611.07	18.874
611.41	18.695
611.74	19.256
612.07	18.944
612.40	19.570
612.73	18.947
613.07	18.750
613.40	19.273
613.73	18.406
614.06	18.495
614.39	18.616
614.72	19.316
615.06	19.223
615.39	18.312
615.72	18.661
616.05	17.491
616.38	18.733
616.71	19.418
617.05	19.494
617.38	19.002
617.71	19.099
618.04	19.351
618.37	19.338
618.70	19.166
619.03	20.921
619.36	19.145
619.69	20.352
620.03	19.643
620.36	19.051
620.69	20.000
621.02	20.575
621.35	20.517
621.68	19.081
622.01	20.975
622.34	20.424
622.67	20.152
623.00	19.369
623.33	19.157
623.66	18.942
623.99	18.630
624.32	19.900
624.65	19.138
624.99	17.776
625.32	19.334
625.65	19.459
625.98	20.215
626.31	20.218
626.64	20.408
626.97	20.200
627.30	20.449
627.63	20.755
627.96	20.690
628.29	20.472
628.62	20.128
628.95	21.132
629.28	20.985
629.61	20.257
629.94	21.429
630.26	19.542
630.59	20.210
630.92	20.115
631.25	21.422
631.58	21.522
631.91	20.385
632.24	20.148
632.57	20.881
632.90	20.504
633.23	21.029
633.56	21.921
633.89	20.272
634.22	21.680
634.55	22.604
634.88	21.916
635.20	22.461
635.53	22.289
635.86	22.153
636.19	20.588
636.52	20.646
636.85	20.733
637.18	21.198
637.51	22.459
637.83	20.838
638.16	21.995
638.49	22.040
638.82	23.262
639.15	23.500
639.48	21.945
639.81	21.716
640.13	24.089
640.46	21.477
640.79	22.985
641.12	20.908
641.45	21.927
641.77	23.122
642.10	23.099
642.43	23.724
642.76	21.827
643.09	22.393
643.41	22.610
643.74	23.148
644.07	23.628
644.40	24.387
644.73	24.252
645.05	26.783
645.38	22.433
645.71	23.349
646.04	25.415
646.36	24.374
646.69	26.923
647.02	24.830
647.35	23.368
647.67	24.602
648.00	25.041
648.33	22.937
648.66	21.212
648.98	23.988
649.31	22.870
649.64	22.870
649.96	22.504
650.29	22.433
650.62	22.654
650.94	24.311
651.27	24.493
651.60	23.128
651.92	22.684
652.25	23.453
652.58	22.586
652.90	22.749
653.23	24.191
653.56	22.992
653.88	23.613
654.21	22.907
654.54	24.092
654.86	22.274
655.19	22.162
655.52	14.047
655.84	11.850
656.17	14.910
656.49	20.569
656.82	22.237
657.15	17.215
657.47	12.899
657.80	10.162
658.13	11.026
658.45	16.831
658.78	17.066
659.10	18.525
659.43	19.367
659.75	19.786
660.08	21.835
660.41	23.650
660.73	25.032
661.06	23.726
661.38	26.182
661.71	24.423
662.03	25.049
662.36	22.266
662.68	24.900
663.01	24.848
663.33	25.265
663.66	24.790
663.98	24.406
664.31	25.630
664.63	22.470
664.96	24.145
665.28	25.205
665.61	24.756
665.93	23.742
666.26	26.369
666.58	23.849
666.91	27.061
667.23	24.270
667.56	25.054
667.88	25.000
668.21	24.307
668.53	23.427
668.86	26.190
669.18	25.160
669.50	25.435
669.83	28.322
670.15	27.333
670.48	25.054
670.80	24.569
671.13	27.389
671.45	22.766
671.77	26.680
672.10	24.954
672.42	23.145
672.75	23.217
673.07	23.944
673.39	21.700
673.72	21.289
674.04	24.314
674.37	23.689
674.69	23.517
675.01	23.640
675.34	26.694
675.66	26.316
675.98	24.236
676.31	26.471
676.63	27.601
676.95	25.577
677.28	22.664
677.60	25.934
677.92	26.160
678.25	24.435
678.57	25.100
678.89	23.848
679.22	22.986
679.54	22.519
679.86	25.872
680.18	20.751
680.51	22.163
680.83	23.132
681.15	21.321
681.48	26.654
681.80	23.017
682.12	22.031
682.44	21.277
682.77	24.644
683.09	27.039
683.41	25.277
683.73	26.711
684.06	25.826
684.38	22.309
684.70	24.612
685.02	23.077
685.34	21.978
685.67	22.203
685.99	21.134
686.31	21.502
686.63	19.788
686.96	21.964
687.28	22.383
687.60	23.551
687.92	25.960
688.24	22.624
688.56	24.096
688.89	25.311
689.21	26.201
689.53	25.678
689.85	26.608
690.17	22.153
690.49	24.841
690.82	24.299
691.14	24.107
691.46	23.207
691.78	23.896
692.10	26.240
692.42	24.351
692.74	25.311
693.06	23.830
693.39	25.257
693.71	24.672
694.03	22.737
694.35	23.810
694.67	24.943
694.99	25.854
695.31	24.020
695.63	24.880
695.95	24.450
696.27	25.888
696.59	25.907
696.91	26.166
697.23	24.178
697.56	23.881
697.88	20.245
698.20	23.958
698.52	22.151
698.84	25.835
699.16	21.889
699.48	26.128
699.80	25.121
700.12	29.610
700.44	27.056
700.76	27.624
701.08	25.287
701.40	28.771
701.72	32.653
702.04	33.523
702.36	25.779
702.68	25.496
703.00	25.762
703.32	24.202
703.64	25.201
703.96	27.019
704.28	30.233
704.60	31.965
704.91	27.893
705.23	29.326
705.55	30.565
705.87	33.223
706.19	29.329
706.51	32.710
706.83	29.394
707.15	27.451
707.47	23.990
707.79	24.570
708.11	26.484
708.43	28.333
708.74	23.214
709.06	29.351
709.38	28.871
709.70	27.907
710.02	26.409
710.34	26.364
710.66	28.657
710.98	31.250
711.29	27.907
711.61	32.153
711.93	25.000
712.25	31.511
712.57	30.515
712.89	31.142
713.20	33.131
713.52	30.263
713.84	29.114
714.16	27.134
714.48	26.724
714.80	31.915
715.11	27.954
715.43	27.596
715.75	28.116
716.07	29.073
716.39	31.034
716.70	33.223
717.02	33.453
717.34	29.682
717.66	32.836
717.97	36.255
718.29	31.852
718.61	32.117
718.93	30.147
719.24	32.180
719.56	30.847
719.88	26.441
720.20	29.730
720.51	33.798
720.83	33.457
721.15	30.970
721.46	32.979
721.78	31.541
722.10	35.472
722.42	33.083
722.73	31.461
723.05	29.508
723.37	29.960
723.68	37.066
724.00	35.366
724.32	37.097
724.63	32.114
724.95	30.962
725.27	34.413
725.58	34.375
725.90	35.036
726.22	31.321
726.53	28.819
726.85	34.130
727.16	28.114
727.48	26.596
727.80	28.030
728.11	34.420
728.43	33.846
728.74	26.882
729.06	33.577
729.38	33.456
729.69	28.826
730.01	30.034
730.32	31.250
730.64	30.435
730.96	27.723
731.27	31.457
731.59	30.887
731.90	27.988
732.22	26.708
732.53	29.412
732.85	29.167
733.16	27.331
733.48	31.229
733.80	27.273
734.11	29.299
734.43	29.882
734.74	26.857
735.06	23.209
735.37	30.636
735.69	28.025
736.00	31.699
736.32	31.153
736.63	30.032
736.95	28.435
737.26	22.789
737.58	28.710
737.89	27.090
738.21	27.645
738.52	32.857
738.83	31.698
739.15	33.462
739.46	33.577
739.78	34.028
740.09	32.923
740.41	28.065
740.72	27.526
741.04	32.222
741.35	31.250
741.66	36.889
741.98	37.264
742.29	36.364
742.61	34.483
742.92	34.389
743.23	37.607
743.55	30.400
743.86	32.895
744.18	38.938
744.49	33.971
744.80	37.559
745.12	40.455
745.43	33.480
745.74	40.090
746.06	34.862
746.37	33.184
746.68	36.199
747.00	37.500
747.31	38.095
747.62	29.204
747.94	32.599
748.25	31.064
748.56	31.718
748.88	35.644
749.19	39.000
749.50	39.535
749.82	30.894
750.13	27.347
750.44	31.752
750.75	29.474
751.07	34.084
751.38	28.920
751.69	31.047
752.01	34.962
752.32	29.242
752.63	31.915
752.94	35.246
753.26	35.600
753.57	33.740
753.88	35.156
754.19	30.357
754.51	32.639
754.82	30.686
755.13	35.094
755.44	29.323
755.75	33.577
756.07	26.950
756.38	28.102
756.69	33.221
757.00	27.545
757.31	27.893
757.63	26.316
757.94	27.346
758.25	22.304
758.56	22.716
758.87	25.538
759.18	26.667
759.50	27.586
759.81	30.530
760.12	25.625
760.43	28.367
760.74	26.359
761.05	24.294
761.36	22.995
761.67	28.409
761.99	26.398
762.30	30.208
762.61	32.061
762.92	30.859
763.23	32.353
763.54	34.800
763.85	30.859
764.16	36.538
764.47	31.939
764.78	28.622
765.10	27.848
765.41	25.664
765.72	27.246
766.03	28.527
766.34	27.667
766.65	31.489
766.96	32.906
767.27	39.086
767.58	41.146
767.89	42.632
768.20	43.103
768.51	37.563
768.82	33.945
769.13	32.927
769.44	30.769
769.75	31.330
770.06	33.945
770.37	35.747
770.68	35.648
770.99	32.000
771.30	25.820
771.61	32.287
771.92	35.656
772.23	32.773
772.54	38.462
772.85	47.644
773.16	37.766
773.47	40.217
773.78	43.147
774.09	39.286
774.39	43.860
774.70	47.531
775.01	48.551
775.32	47.712
775.63	50.000
775.94	45.324
776.25	51.969
776.56	48.507
776.87	52.459
777.18	50.000
777.48	51.908
777.79	56.061
778.10	53.333
778.41	50.893
778.72	55.474
779.03	48.322
779.34	46.980
779.65	43.243
779.95	50.307
780.26	49.673
780.57	47.586
780.88	56.250
781.19	53.383
781.50	52.027
781.80	47.170
782.11	44.068
782.42	41.772
782.73	41.104
783.04	51.351
783.34	47.887
783.65	56.164
783.96	55.224
784.27	44.056
784.57	44.604
784.88	44.444
785.19	59.524
785.50	54.717
785.81	59.701
786.11	57.377
786.42	58.140
786.73	54.867
787.04	49.057
787.34	61.607
787.65	67.000
787.96	54.955
788.26	56.198
788.57	55.932
788.88	59.504
789.19	45.833
789.49	60.606
789.80	45.802
790.11	66.667
790.41	63.366
790.72	66.265
791.03	64.130
791.33	60.465
791.64	73.196
791.95	66.337
792.25	70.000
792.56	68.831
792.87	101.282
793.17	96.203
793.48	75.862
793.79	77.011
794.09	67.045
794.40	46.218
794.70	54.412
795.01	48.889
795.32	45.324
795.62	59.843
795.93	65.517
796.23	53.982
796.54	61.176
796.85	77.027
797.15	98.592
797.46	100.000
797.76	73.494
798.07	74.684
798.37	73.846
798.68	74.242
798.99	67.606
799.29	80.519
799.60	69.318
799.90	90.411
800.21	107.463
800.51	93.103
800.82	92.982
801.12	104.918
801.43	103.030
801.73	68.919
802.04	93.651
802.34	83.951
802.65	98.437
802.95	94.915
803.26	96.875
803.56	88.571
803.87	76.923
804.17	85.294
804.48	107.407
804.78	79.310
805.09	67.647
805.39	98.077
805.70	78.571
806.00	121.311
806.30	96.970
806.61	82.927
806.91	69.620
807.22	76.316
807.52	61.194
807.83	81.690
808.13	95.312
808.43	93.333
808.74	71.053
809.04	97.101
809.35	92.537
809.65	72.368
809.95	111.290
810.26	81.356
810.56	90.476
810.86	122.727
811.17	123.810
811.47	103.333
811.77	111.111
812.08	96.364
812.38	118.000
812.69	133.333
812.99	152.273
813.29	118.367
813.59	100.000
813.90	126.531
814.20	109.091
814.50	93.846
814.81	98.529
815.11	106.122
815.41	93.443
815.72	135.714
816.02	94.545
816.32	135.714
816.62	127.500
816.93	131.707
817.23	138.095
817.53	122.727
817.84	196.970
818.14	121.739
818.44	131.111
818.74	144.118
819.04	130.000
819.35	148.571
819.65	185.294
819.95	200.000
820.25	255.000
820.56	171.795
820.86	138.636
821.16	137.209
821.46	110.256
821.76	120.000
822.07	157.143
822.37	130.000
822.67	196.970
822.97	115.686
823.27	217.857
823.57	145.946
823.88	165.000
824.18	220.000
824.48	140.476
824.78	216.000
825.08	187.500
825.38	140.541
825.69	141.463
825.99	212.500
826.29	186.207
826.59	176.316
826.89	134.211
827.19	176.471
827.49	212.903
827.79	131.818
828.09	122.727
828.39	102.128
828.70	142.857
829.00	207.407
829.30	170.968
829.60	147.500
829.90	326.667
830.20	171.429
830.50	230.435
830.80	217.391
831.10	213.333
831.40	170.000
831.70	173.913
832.00	223.077
832.30	207.407
832.60	325.000
832.90	213.333
833.20	442.857
833.50	206.452
833.80	168.966
834.10	181.250
834.40	203.846
834.70	255.556
835.00	319.048
835.30	171.429
835.60	284.615
835.90	220.690
836.20	292.857
836.50	196.552
836.80	212.000
837.10	150.000
837.40	280.952
837.70	241.176
838.00	185.185
838.30	200.000
838.60	285.714
838.90	265.385
839.19	260.000
839.49	350.000
839.79	360.000
840.09	270.000
840.39	280.952
840.69	256.522
840.99	316.667
841.29	460.000
841.59	358.333
841.88	368.750
842.18	193.103
842.48	314.286
842.78	193.333
843.08	256.522
843.38	218.750
843.68	850.000
843.97	238.462
844.27	210.345
844.57	323.810
844.87	387.500
845.17	207.407
845.47	1600.000
845.76	600.000
846.06	276.471
846.36	525.000
846.66	371.429
846.96	337.500
847.25	463.636
847.55	518.182
847.85	269.565
848.15	590.000
848.44	392.857
848.74	272.222
849.04	252.941
849.34	550.000
849.63	284.211
849.93	527.273
850.23	860.000
850.53	392.857
850.82	2650.000
851.12	-4700.000
851.42	4800.000
851.71	305.000
852.01	-1200.000
852.31	237.500
852.61	1966.667
852.90	223.810
853.20	220.000
853.50	264.706
853.79	223.810
854.09	237.500
854.39	343.750
854.68	156.757
854.98	187.097
855.28	176.667
855.57	203.448
855.87	237.037
856.17	257.895
856.46	266.667
856.76	282.353
857.05	203.448
857.35	237.500
857.65	373.333
857.94	273.913
858.24	246.154
858.53	260.000
858.83	277.273
859.13	340.000
859.42	0.000
859.72	555.556
860.01	463.636
860.31	263.636
860.60	305.263
860.90	247.826
861.20	577.778
861.49	600.000
861.79	-4700.000
862.08	650.000
862.38	290.476
862.67	407.692
862.97	358.824
863.26	577.778
863.56	283.333
863.85	466.667
864.15	587.500
864.44	326.667
864.74	766.667
865.03	787.500
865.33	331.579
865.62	427.273
865.92	507.692
866.21	425.000
866.51	0.000
866.80	381.818
867.10	1220.000
867.39	430.769
867.69	436.364
867.98	242.105
868.27	500.000
868.57	305.263
868.86	-4600.000
869.16	375.000
869.45	1800.000
869.75	-4600.000
870.04	416.667
870.33	771.429
870.63	1025.000
870.92	2800.000
871.22	757.143
871.51	400.000
871.80	204.762
872.10	428.571
>>>>>End Processed Spectral Data<<<<<
