SpectraSuite Data File
++++++++++++++++++++++++++++++++++++
Date: Wed May 13 19:32:10 PDT 2015
User: schluterlab
Dark Spectrum Present: Yes
Reference Spectrum Present: Yes
Number of Sampled Component Spectra: 1
Spectrometers: USB2E3373
Integration Time (usec): 3000 (USB2E3373)
Spectra Averaged: 3 (USB2E3373)
Boxcar Smoothing: 0 (USB2E3373)
Correct for Electrical Dark: No (USB2E3373)
Strobe/Lamp Enabled: No (USB2E3373)
Correct for Detector Non-linearity: No (USB2E3373)
Correct for Stray Light: No (USB2E3373)
Number of Pixels in Processed Spectrum: 2048
>>>>>Begin Processed Spectral Data<<<<<
178.53	0.000
178.91	-1325.000
179.29	-1600.000
179.67	-222.222
180.04	-1350.000
180.42	2850.000
180.80	1100.000
181.18	-1300.000
181.56	828.571
181.94	0.000
182.31	-614.286
182.69	2133.333
183.07	-587.500
183.45	-588.889
183.83	527.273
184.20	-450.000
184.58	2450.000
184.96	5700.000
185.34	-700.000
185.72	-575.000
186.09	-2400.000
186.47	3350.000
186.85	2400.000
187.23	5600.000
187.61	-2000.000
187.98	1200.000
188.36	627.273
188.74	518.182
189.12	-1080.000
189.49	680.000
189.87	-5200.000
190.25	-1225.000
190.63	428.571
191.00	453.846
191.38	883.333
191.76	-1350.000
192.14	1200.000
192.51	712.500
192.89	933.333
193.27	600.000
193.65	-1400.000
194.02	530.000
194.40	1080.000
194.78	580.000
195.15	500.000
195.53	720.000
195.91	-2150.000
196.29	325.000
196.66	315.789
197.04	-450.000
197.42	0.000
197.79	650.000
198.17	-5000.000
198.55	842.857
198.92	800.000
199.30	880.000
199.68	0.000
200.05	322.222
200.43	857.143
200.81	5500.000
201.18	1866.667
201.56	-2033.333
201.94	622.222
202.31	677.778
202.69	408.333
203.07	570.000
203.44	0.000
203.82	1250.000
204.19	800.000
204.57	478.571
204.95	787.500
205.32	1666.667
205.70	618.182
206.08	421.429
206.45	2950.000
206.83	343.750
207.20	1050.000
207.58	860.000
207.96	305.556
208.33	800.000
208.71	-983.333
209.08	757.143
209.46	533.333
209.84	563.636
210.21	-1933.333
210.59	1550.000
210.96	-450.000
211.34	3000.000
211.71	640.000
212.09	800.000
212.46	0.000
212.84	1866.667
213.22	1500.000
213.59	-5000.000
213.97	1000.000
214.34	742.857
214.72	609.091
215.09	1240.000
215.47	-2200.000
215.84	-2850.000
216.22	1800.000
216.59	464.286
216.97	1475.000
217.34	445.455
217.72	-866.667
218.09	0.000
218.47	-5600.000
218.84	655.556
219.22	942.857
219.59	1800.000
219.97	-657.143
220.34	940.000
220.72	-1800.000
221.09	485.714
221.47	1550.000
221.84	-916.667
222.22	0.000
222.59	1500.000
222.97	-2650.000
223.34	1380.000
223.72	453.846
224.09	1060.000
224.46	2800.000
224.84	-5500.000
225.21	-1080.000
225.59	-5200.000
225.96	650.000
226.34	320.000
226.71	2750.000
227.08	712.500
227.46	500.000
227.83	-875.000
228.21	-2550.000
228.58	600.000
228.95	-2900.000
229.33	-2650.000
229.70	1933.333
230.08	785.714
230.45	-1000.000
230.82	483.333
231.20	900.000
231.57	800.000
231.95	483.333
232.32	245.455
232.69	490.909
233.07	828.571
233.44	330.769
233.81	-1800.000
234.19	326.316
234.56	458.333
234.93	416.667
235.31	427.273
235.68	384.615
236.05	321.429
236.43	206.061
236.80	305.263
237.17	4700.000
237.55	266.667
237.92	214.286
238.29	314.286
238.67	187.097
239.04	231.034
239.41	161.111
239.79	117.391
240.16	166.667
240.53	131.818
240.91	117.647
241.28	122.000
241.65	126.000
242.02	113.043
242.40	103.226
242.77	105.000
243.14	94.624
243.51	92.135
243.89	89.412
244.26	96.667
244.63	77.419
245.00	79.787
245.38	76.238
245.75	66.355
246.12	62.385
246.49	77.372
246.87	68.000
247.24	69.231
247.61	60.000
247.98	64.706
248.36	60.135
248.73	48.408
249.10	56.688
249.47	57.627
249.84	49.198
250.22	55.080
250.59	53.254
250.96	51.010
251.33	53.081
251.70	53.960
252.08	46.190
252.45	52.466
252.82	46.087
253.19	53.191
253.56	44.314
253.94	48.548
254.31	43.359
254.68	47.692
255.05	43.173
255.42	47.154
255.79	45.221
256.16	47.292
256.54	44.170
256.91	43.772
257.28	42.086
257.65	45.215
258.02	43.168
258.39	41.640
258.76	45.819
259.14	43.750
259.51	37.690
259.88	39.130
260.25	41.088
260.62	36.127
260.99	41.615
261.36	41.742
261.73	38.968
262.10	41.279
262.47	38.873
262.85	36.212
263.22	36.182
263.59	38.746
263.96	36.538
264.33	37.337
264.70	36.579
265.07	39.386
265.44	40.909
265.81	34.550
266.18	38.191
266.55	39.512
266.92	40.049
267.29	38.194
267.66	34.633
268.03	35.682
268.40	37.150
268.77	35.322
269.14	36.937
269.51	38.600
269.88	38.928
270.25	35.892
270.62	35.506
270.99	39.140
271.36	37.124
271.73	35.047
272.10	34.348
272.47	37.419
272.84	36.364
273.21	36.059
273.58	34.934
273.95	33.543
274.32	32.645
274.69	35.332
275.06	33.465
275.43	35.957
275.80	33.267
276.17	36.456
276.54	37.214
276.91	35.178
277.28	34.570
277.65	34.816
278.02	34.369
278.39	35.547
278.76	32.000
279.13	32.830
279.50	32.588
279.87	34.263
280.23	34.731
280.60	33.269
280.97	32.717
281.34	34.159
281.71	33.455
282.08	35.509
282.45	32.182
282.82	32.327
283.19	30.481
283.56	33.333
283.92	34.856
284.29	33.157
284.66	34.120
285.03	33.092
285.40	31.690
285.77	33.333
286.14	29.534
286.51	32.667
286.87	32.821
287.24	32.736
287.61	28.892
287.98	30.195
288.35	31.379
288.72	30.062
289.08	30.516
289.45	30.148
289.82	29.756
290.19	28.100
290.56	30.322
290.93	29.758
291.29	29.294
291.66	28.319
292.03	31.250
292.40	28.341
292.77	26.775
293.13	28.060
293.50	29.446
293.87	28.444
294.24	28.148
294.60	27.220
294.97	27.035
295.34	30.324
295.71	26.989
296.08	28.775
296.44	25.447
296.81	27.213
297.18	26.423
297.55	24.538
297.91	25.330
298.28	28.112
298.65	26.762
299.02	24.901
299.38	26.029
299.75	24.394
300.12	25.543
300.48	25.000
300.85	24.908
301.22	27.389
301.59	24.242
301.95	25.189
302.32	25.931
302.69	24.134
303.05	26.303
303.42	25.802
303.79	24.462
304.15	23.660
304.52	24.797
304.89	24.390
305.25	23.782
305.62	25.595
305.99	25.856
306.35	23.937
306.72	24.776
307.09	24.972
307.45	26.014
307.82	23.661
308.19	26.159
308.55	24.164
308.92	24.275
309.29	23.759
309.65	23.224
310.02	24.841
310.38	25.699
310.75	25.026
311.12	25.486
311.48	25.810
311.85	26.415
312.22	27.575
312.58	25.676
312.95	27.666
313.31	24.854
313.68	27.235
314.05	29.389
314.41	28.442
314.78	26.385
315.14	27.507
315.51	27.806
315.87	28.515
316.24	29.891
316.61	28.265
316.97	29.159
317.34	27.789
317.70	29.637
318.07	29.740
318.43	31.703
318.80	31.771
319.16	32.298
319.53	29.925
319.89	31.333
320.26	32.600
320.62	32.639
320.99	32.323
321.35	34.444
321.72	35.524
322.08	35.637
322.45	37.512
322.81	38.857
323.18	38.247
323.54	38.126
323.91	38.774
324.27	39.197
324.64	38.397
325.00	40.036
325.37	40.036
325.73	41.113
326.10	42.365
326.46	41.667
326.83	42.709
327.19	45.004
327.56	45.819
327.92	45.494
328.29	47.382
328.65	47.238
329.01	45.939
329.38	46.809
329.74	46.445
330.11	47.879
330.47	48.209
330.84	48.162
331.20	49.271
331.56	49.633
331.93	49.444
332.29	49.423
332.66	51.770
333.02	50.548
333.38	50.678
333.75	49.465
334.11	49.021
334.48	50.577
334.84	50.368
335.20	51.909
335.57	49.773
335.93	49.643
336.29	51.648
336.66	53.832
337.02	49.050
337.38	51.296
337.75	50.980
338.11	51.835
338.47	52.210
338.84	52.704
339.20	50.734
339.56	52.190
339.93	51.455
340.29	51.721
340.65	51.426
341.02	52.269
341.38	52.135
341.74	52.193
342.11	53.624
342.47	52.952
342.83	51.627
343.20	53.853
343.56	50.126
343.92	52.544
344.28	52.891
344.65	52.279
345.01	53.030
345.37	51.801
345.73	52.453
346.10	53.026
346.46	52.034
346.82	50.824
347.19	52.130
347.55	51.724
347.91	53.964
348.27	52.753
348.63	53.512
349.00	52.508
349.36	53.202
349.72	52.285
350.08	53.728
350.45	52.726
350.81	51.747
351.17	51.540
351.53	53.399
351.89	51.485
352.26	51.697
352.62	53.248
352.98	51.540
353.34	52.506
353.70	52.946
354.07	52.177
354.43	50.794
354.79	52.615
355.15	52.195
355.51	53.397
355.87	54.449
356.24	53.257
356.60	52.847
356.96	52.776
357.32	52.085
357.68	53.622
358.04	52.336
358.40	53.127
358.77	52.113
359.13	51.381
359.49	54.039
359.85	52.857
360.21	53.030
360.57	54.319
360.93	54.000
361.29	53.137
361.66	51.858
362.02	53.881
362.38	53.308
362.74	53.199
363.10	53.812
363.46	51.871
363.82	52.608
364.18	53.157
364.54	53.938
364.90	53.895
365.26	51.912
365.62	54.858
365.98	52.958
366.35	52.937
366.71	53.001
367.07	53.897
367.43	53.991
367.79	55.532
368.15	54.310
368.51	53.416
368.87	52.605
369.23	53.621
369.59	53.512
369.95	53.897
370.31	53.134
370.67	53.406
371.03	55.206
371.39	54.883
371.75	53.971
372.11	53.627
372.47	54.326
372.83	56.196
373.19	52.818
373.55	54.841
373.91	56.259
374.27	52.646
374.63	54.691
374.99	54.308
375.35	53.385
375.71	54.626
376.07	53.841
376.42	54.333
376.78	54.142
377.14	55.020
377.50	54.702
377.86	53.524
378.22	54.362
378.58	53.008
378.94	52.860
379.30	54.580
379.66	53.236
380.02	53.993
380.38	52.823
380.74	54.862
381.09	53.790
381.45	55.255
381.81	54.115
382.17	55.287
382.53	53.585
382.89	53.333
383.25	54.221
383.61	55.514
383.97	53.533
384.32	52.838
384.68	54.027
385.04	54.763
385.40	53.313
385.76	53.071
386.12	54.858
386.48	54.626
386.83	55.548
387.19	54.298
387.55	53.061
387.91	52.902
388.27	52.299
388.62	54.087
388.98	52.826
389.34	54.193
389.70	53.648
390.06	53.929
390.42	55.318
390.77	52.417
391.13	54.690
391.49	53.173
391.85	53.087
392.20	53.817
392.56	54.167
392.92	53.973
393.28	53.195
393.64	52.518
393.99	52.657
394.35	54.094
394.71	52.886
395.07	53.707
395.42	54.141
395.78	54.198
396.14	52.266
396.50	54.762
396.85	53.274
397.21	53.021
397.57	53.193
397.92	52.103
398.28	52.018
398.64	51.792
399.00	52.043
399.35	52.171
399.71	51.852
400.07	52.277
400.42	52.393
400.78	52.171
401.14	52.439
401.49	51.821
401.85	51.785
402.21	51.856
402.57	52.807
402.92	53.279
403.28	53.529
403.63	51.856
403.99	52.293
404.35	52.000
404.70	51.559
405.06	50.612
405.42	54.398
405.77	51.486
406.13	51.580
406.49	51.567
406.84	50.443
407.20	51.596
407.55	51.691
407.91	52.067
408.27	52.393
408.62	49.729
408.98	50.429
409.34	50.861
409.69	50.387
410.05	51.921
410.40	51.315
410.76	51.493
411.11	50.784
411.47	50.607
411.83	51.374
412.18	51.020
412.54	48.755
412.89	50.602
413.25	51.181
413.60	51.760
413.96	48.877
414.31	50.365
414.67	51.711
415.03	50.728
415.38	50.515
415.74	51.190
416.09	52.123
416.45	50.134
416.80	51.421
417.16	50.737
417.51	50.763
417.87	48.876
418.22	50.599
418.58	49.774
418.93	50.369
419.29	50.796
419.64	51.322
420.00	50.793
420.35	49.855
420.71	50.926
421.06	49.045
421.42	50.175
421.77	49.720
422.12	50.197
422.48	50.513
422.83	49.738
423.19	50.442
423.54	50.261
423.90	50.783
424.25	50.195
424.61	50.238
424.96	51.079
425.31	50.443
425.67	49.494
426.02	49.657
426.38	52.625
426.73	50.205
427.09	51.246
427.44	49.741
427.79	51.006
428.15	50.833
428.50	50.205
428.85	50.715
429.21	48.702
429.56	49.922
429.92	49.421
430.27	49.206
430.62	49.872
430.98	49.455
431.33	48.505
431.68	50.628
432.04	50.000
432.39	50.485
432.74	51.885
433.10	50.764
433.45	51.254
433.80	50.443
434.16	49.573
434.51	49.684
434.86	48.974
435.22	50.250
435.57	49.787
435.92	49.795
436.28	52.017
436.63	50.221
436.98	50.143
437.34	50.984
437.69	51.225
438.04	50.646
438.39	50.567
438.75	50.784
439.10	50.391
439.45	50.118
439.81	50.151
440.16	48.899
440.51	51.728
440.86	50.318
441.22	51.112
441.57	50.000
441.92	51.126
442.27	50.161
442.63	49.605
442.98	52.113
443.33	50.217
443.68	49.974
444.03	49.976
444.39	48.491
444.74	49.405
445.09	50.243
445.44	49.262
445.79	49.283
446.15	49.232
446.50	49.488
446.85	50.360
447.20	49.516
447.55	50.530
447.91	50.083
448.26	49.193
448.61	49.859
448.96	50.000
449.31	50.731
449.66	49.297
450.02	49.638
450.37	49.887
450.72	51.495
451.07	48.751
451.42	48.936
451.77	50.440
452.12	48.672
452.47	48.259
452.83	49.650
453.18	48.472
453.53	50.031
453.88	49.675
454.23	49.851
454.58	50.575
454.93	50.477
455.28	49.626
455.63	49.090
455.98	51.429
456.34	50.440
456.69	49.843
457.04	49.969
457.39	48.568
457.74	49.623
458.09	48.936
458.44	49.031
458.79	48.536
459.14	49.153
459.49	49.037
459.84	48.864
460.19	48.615
460.54	47.743
460.89	48.601
461.24	48.877
461.59	48.809
461.94	47.719
462.29	48.961
462.64	48.309
462.99	47.430
463.34	49.267
463.69	48.218
464.04	48.638
464.39	47.420
464.74	47.891
465.09	47.346
465.44	46.981
465.79	46.756
466.14	47.126
466.49	46.774
466.84	47.752
467.19	46.771
467.54	47.562
467.89	46.999
468.24	46.597
468.59	48.474
468.94	47.404
469.29	48.522
469.64	48.929
469.99	49.256
470.34	48.349
470.68	48.635
471.03	47.347
471.38	50.452
471.73	47.035
472.08	48.092
472.43	47.487
472.78	47.795
473.13	47.304
473.48	47.503
473.83	47.561
474.17	46.982
474.52	45.844
474.87	47.052
475.22	46.198
475.57	44.868
475.92	46.044
476.27	45.378
476.61	46.001
476.96	46.014
477.31	45.474
477.66	46.554
478.01	45.687
478.36	45.426
478.70	45.275
479.05	45.847
479.40	46.520
479.75	46.263
480.10	44.980
480.45	45.502
480.79	43.908
481.14	44.080
481.49	44.993
481.84	43.713
482.19	44.571
482.53	44.908
482.88	44.858
483.23	45.093
483.58	44.631
483.92	44.892
484.27	43.007
484.62	44.483
484.97	43.398
485.31	43.082
485.66	40.683
486.01	39.315
486.36	38.721
486.70	38.214
487.05	39.693
487.40	40.807
487.75	41.840
488.09	42.645
488.44	43.763
488.79	44.448
489.13	44.652
489.48	44.657
489.83	44.411
490.17	44.191
490.52	43.003
490.87	43.645
491.22	43.383
491.56	42.551
491.91	42.578
492.26	42.995
492.60	43.088
492.95	42.142
493.30	42.944
493.64	42.277
493.99	43.268
494.34	42.461
494.68	43.636
495.03	43.421
495.37	42.485
495.72	43.080
496.07	42.784
496.41	41.637
496.76	42.700
497.11	40.973
497.45	41.081
497.80	43.042
498.14	41.739
498.49	43.610
498.84	43.145
499.18	42.143
499.53	42.593
499.87	42.171
500.22	41.262
500.56	43.107
500.91	40.913
501.26	41.299
501.60	42.572
501.95	40.834
502.29	41.799
502.64	41.480
502.98	41.281
503.33	40.768
503.67	40.835
504.02	41.020
504.36	41.132
504.71	41.768
505.06	41.349
505.40	42.149
505.75	41.225
506.09	41.545
506.44	41.293
506.78	41.159
507.13	42.655
507.47	42.222
507.82	41.743
508.16	40.932
508.51	40.791
508.85	41.112
509.19	41.531
509.54	40.510
509.88	40.958
510.23	40.668
510.57	41.538
510.92	40.704
511.26	40.904
511.61	41.338
511.95	41.493
512.30	40.509
512.64	40.999
512.98	41.265
513.33	41.542
513.67	40.608
514.02	40.909
514.36	41.180
514.70	41.671
515.05	41.104
515.39	40.550
515.74	40.991
516.08	41.140
516.42	41.676
516.77	40.914
517.11	39.789
517.46	41.084
517.80	41.870
518.14	40.938
518.49	41.657
518.83	40.568
519.17	41.051
519.52	40.068
519.86	40.958
520.20	41.040
520.55	40.754
520.89	41.484
521.23	41.797
521.58	41.417
521.92	40.110
522.26	39.414
522.61	41.558
522.95	40.393
523.29	40.536
523.64	42.256
523.98	40.357
524.32	40.350
524.66	40.649
525.01	39.400
525.35	39.343
525.69	40.148
526.04	40.623
526.38	40.268
526.72	40.061
527.06	40.552
527.41	38.614
527.75	40.900
528.09	39.435
528.43	39.516
528.78	39.398
529.12	39.030
529.46	40.355
529.80	40.347
530.15	40.187
530.49	38.646
530.83	39.051
531.17	40.927
531.51	40.078
531.86	39.419
532.20	40.091
532.54	39.718
532.88	39.987
533.22	38.413
533.57	38.889
533.91	38.290
534.25	38.153
534.59	39.048
534.93	37.478
535.27	37.960
535.62	38.095
535.96	39.736
536.30	38.398
536.64	39.987
536.98	38.553
537.32	38.512
537.66	40.000
538.01	39.763
538.35	39.173
538.69	38.162
539.03	38.012
539.37	37.508
539.71	36.682
540.05	38.889
540.39	38.339
540.73	37.775
541.07	38.222
541.42	38.226
541.76	38.645
542.10	38.875
542.44	38.411
542.78	38.933
543.12	36.596
543.46	37.574
543.80	39.362
544.14	36.970
544.48	37.651
544.82	37.396
545.16	37.541
545.50	38.368
545.84	37.634
546.18	37.576
546.52	38.197
546.86	38.282
547.20	38.301
547.54	37.609
547.88	37.245
548.22	36.115
548.56	37.736
548.90	37.068
549.24	36.700
549.58	37.926
549.92	37.912
550.26	38.281
550.60	37.068
550.94	37.887
551.28	37.601
551.62	38.605
551.96	37.263
552.30	37.474
552.64	37.931
552.98	37.695
553.32	36.278
553.66	37.355
554.00	37.612
554.34	37.198
554.68	37.983
555.02	35.543
555.36	37.439
555.69	36.671
556.03	36.608
556.37	37.449
556.71	36.016
557.05	37.605
557.39	36.669
557.73	36.344
558.07	37.346
558.41	36.324
558.75	36.738
559.08	37.509
559.42	37.113
559.76	37.426
560.10	36.046
560.44	37.456
560.78	34.930
561.12	36.873
561.45	36.571
561.79	36.322
562.13	35.949
562.47	35.929
562.81	36.402
563.15	35.719
563.48	36.737
563.82	35.812
564.16	35.186
564.50	34.570
564.84	35.714
565.17	35.779
565.51	35.144
565.85	34.645
566.19	33.375
566.52	36.542
566.86	34.177
567.20	35.259
567.54	34.475
567.88	33.080
568.21	34.233
568.55	32.659
568.89	33.512
569.23	32.442
569.56	31.700
569.90	31.811
570.24	30.678
570.57	31.248
570.91	30.155
571.25	30.296
571.59	30.191
571.92	30.645
572.26	30.618
572.60	30.661
572.93	30.345
573.27	30.553
573.61	30.151
573.95	30.233
574.28	29.447
574.62	29.155
574.96	29.486
575.29	29.437
575.63	29.726
575.97	30.357
576.30	29.846
576.64	29.113
576.98	29.436
577.31	29.228
577.65	29.555
577.98	29.071
578.32	28.773
578.66	29.140
578.99	29.696
579.33	29.363
579.67	29.020
580.00	29.489
580.34	29.568
580.67	29.780
581.01	29.301
581.35	29.229
581.68	28.733
582.02	27.847
582.35	28.698
582.69	28.899
583.02	29.588
583.36	29.168
583.70	30.445
584.03	30.617
584.37	30.435
584.70	30.225
585.04	29.428
585.37	29.543
585.71	29.488
586.04	29.355
586.38	29.963
586.72	29.854
587.05	28.960
587.39	28.760
587.72	29.528
588.06	29.376
588.39	29.794
588.73	29.481
589.06	30.321
589.40	30.471
589.73	31.785
590.07	30.534
590.40	30.435
590.73	31.460
591.07	31.624
591.40	32.012
591.74	31.818
592.07	31.894
592.41	30.302
592.74	29.438
593.08	29.514
593.41	29.010
593.75	28.888
594.08	29.869
594.41	29.834
594.75	30.129
595.08	29.957
595.42	29.842
595.75	29.843
596.09	30.830
596.42	30.766
596.75	30.899
597.09	31.948
597.42	30.523
597.75	31.005
598.09	30.261
598.42	30.155
598.76	29.712
599.09	29.532
599.42	29.185
599.76	29.539
600.09	29.144
600.42	28.999
600.76	28.893
601.09	28.707
601.42	30.479
601.76	29.639
602.09	29.605
602.42	30.852
602.76	30.472
603.09	30.016
603.42	30.066
603.76	29.154
604.09	29.818
604.42	30.045
604.76	30.240
605.09	29.227
605.42	29.885
605.75	30.008
606.09	29.240
606.42	30.119
606.75	29.656
607.09	29.720
607.42	29.782
607.75	29.198
608.08	29.961
608.42	30.300
608.75	30.388
609.08	29.695
609.41	29.795
609.75	30.824
610.08	30.443
610.41	29.795
610.74	29.943
611.07	31.621
611.41	29.637
611.74	31.171
612.07	30.590
612.40	31.952
612.73	31.263
613.07	31.789
613.40	31.174
613.73	30.729
614.06	30.430
614.39	30.676
614.72	30.053
615.06	30.357
615.39	30.414
615.72	29.499
616.05	30.356
616.38	30.906
616.71	32.245
617.05	32.450
617.38	30.968
617.71	30.511
618.04	31.731
618.37	30.574
618.70	30.616
619.03	31.974
619.36	32.315
619.69	32.606
620.03	31.937
620.36	31.150
620.69	31.712
621.02	32.596
621.35	32.576
621.68	33.489
622.01	32.508
622.34	32.451
622.67	32.091
623.00	31.768
623.33	32.023
623.66	31.808
623.99	31.664
624.32	30.742
624.65	29.802
624.99	30.666
625.32	32.223
625.65	32.156
625.98	32.052
626.31	32.737
626.64	32.980
626.97	32.668
627.30	33.084
627.63	33.388
627.96	32.885
628.29	34.208
628.62	33.852
628.95	34.623
629.28	34.215
629.61	33.822
629.94	34.286
630.26	34.318
630.59	34.318
630.92	34.004
631.25	34.156
631.58	32.933
631.91	33.367
632.24	34.705
632.57	36.411
632.90	35.197
633.23	34.564
633.56	35.819
633.89	35.108
634.22	35.074
634.55	37.396
634.88	35.569
635.20	35.962
635.53	36.386
635.86	35.767
636.19	35.529
636.52	34.602
636.85	34.135
637.18	33.756
637.51	36.879
637.83	34.772
638.16	37.468
638.49	36.524
638.82	37.168
639.15	35.500
639.48	35.536
639.81	37.399
640.13	37.240
640.46	35.570
640.79	37.384
641.12	35.626
641.45	35.754
641.77	37.703
642.10	36.842
642.43	39.339
642.76	37.152
643.09	38.497
643.41	36.874
643.74	37.809
644.07	38.110
644.40	39.264
644.73	37.795
645.05	38.669
645.38	37.283
645.71	38.003
646.04	38.206
646.36	40.902
646.69	38.127
647.02	38.946
647.35	38.316
647.67	40.177
648.00	39.512
648.33	35.644
648.66	35.152
648.98	37.031
649.31	34.828
649.64	36.472
649.96	35.469
650.29	37.125
650.62	37.379
650.94	39.060
651.27	37.331
651.60	38.935
651.92	39.617
652.25	35.342
652.58	35.358
652.90	35.703
653.23	36.210
653.56	36.535
653.88	35.975
654.21	38.547
654.54	37.789
654.86	36.449
655.19	33.378
655.52	22.236
655.84	19.446
656.17	25.278
656.49	34.824
656.82	37.031
657.15	28.519
657.47	21.750
657.80	16.838
658.13	18.247
658.45	27.508
658.78	28.640
659.10	30.603
659.43	32.335
659.75	34.748
660.08	36.582
660.41	39.106
660.73	40.280
661.06	38.694
661.38	43.091
661.71	40.769
662.03	41.420
662.36	38.370
662.68	40.361
663.01	39.192
663.33	40.552
663.66	40.546
663.98	40.389
664.31	38.866
664.63	38.664
664.96	37.827
665.28	38.730
665.61	38.207
665.93	39.034
666.26	38.540
666.58	39.121
666.91	39.746
667.23	41.798
667.56	38.877
667.88	40.171
668.21	42.217
668.53	39.262
668.86	38.745
669.18	39.019
669.50	38.696
669.83	41.830
670.15	41.778
670.48	42.266
670.80	40.086
671.13	38.854
671.45	39.787
671.77	40.326
672.10	39.002
672.42	35.866
672.75	35.323
673.07	34.507
673.39	36.890
673.72	38.477
674.04	35.882
674.37	38.058
674.69	41.309
675.01	37.238
675.34	41.478
675.66	41.684
675.98	42.159
676.31	36.345
676.63	37.367
676.95	38.574
677.28	38.551
677.60	40.000
677.92	41.983
678.25	36.756
678.57	40.239
678.89	37.475
679.22	36.542
679.54	38.740
679.86	37.248
680.18	38.104
680.51	37.057
680.83	35.587
681.15	38.302
681.48	37.807
681.80	36.170
682.12	33.716
682.44	35.590
682.77	39.308
683.09	42.060
683.41	39.911
683.73	39.073
684.06	35.950
684.38	37.769
684.70	36.240
685.02	37.148
685.34	34.799
685.67	31.294
685.99	34.708
686.31	33.276
686.63	34.452
686.96	34.643
687.28	34.477
687.60	34.420
687.92	36.015
688.24	36.882
688.56	38.153
688.89	37.552
689.21	40.175
689.53	38.831
689.85	40.798
690.17	34.990
690.49	39.915
690.82	40.421
691.14	34.821
691.46	36.920
691.78	36.948
692.10	39.669
692.42	36.527
692.74	36.307
693.06	37.021
693.39	37.372
693.71	36.900
694.03	37.684
694.35	38.745
694.67	35.240
694.99	40.000
695.31	35.784
695.63	39.713
695.95	40.587
696.27	39.594
696.59	41.710
696.91	39.896
697.23	35.681
697.56	35.821
697.88	34.151
698.20	36.667
698.52	37.849
698.84	38.085
699.16	34.101
699.48	36.817
699.80	37.923
700.12	42.597
700.44	41.910
700.76	41.989
701.08	40.230
701.40	41.341
701.72	41.399
702.04	46.875
702.36	41.926
702.68	41.643
703.00	38.227
703.32	36.170
703.64	42.091
703.96	38.719
704.28	40.407
704.60	42.229
704.91	41.543
705.23	39.883
705.55	43.189
705.87	46.179
706.19	42.756
706.51	39.875
706.83	43.636
707.15	40.616
707.47	38.131
707.79	36.855
708.11	37.671
708.43	37.381
708.74	38.010
709.06	39.740
709.38	41.207
709.70	42.151
710.02	43.027
710.34	40.606
710.66	42.090
710.98	41.761
711.29	44.477
711.61	41.003
711.93	39.744
712.25	44.695
712.57	43.750
712.89	42.561
713.20	37.994
713.52	41.776
713.84	40.506
714.16	39.329
714.48	41.379
714.80	48.024
715.11	40.634
715.43	41.246
715.75	38.261
716.07	42.812
716.39	42.947
716.70	43.854
717.02	44.604
717.34	44.876
717.66	45.896
717.97	49.801
718.29	39.630
718.61	41.606
718.93	47.059
719.24	46.021
719.56	40.678
719.88	45.763
720.20	45.270
720.51	42.160
720.83	43.494
721.15	42.537
721.46	44.681
721.78	44.086
722.10	43.396
722.42	45.489
722.73	43.446
723.05	44.672
723.37	48.583
723.68	50.965
724.00	44.309
724.32	46.774
724.63	47.967
724.95	46.025
725.27	49.393
725.58	48.437
725.90	47.080
726.22	44.528
726.53	44.792
726.85	40.956
727.16	43.772
727.48	43.262
727.80	43.561
728.11	40.942
728.43	43.462
728.74	39.785
729.06	46.715
729.38	51.103
729.69	41.637
730.01	39.932
730.32	39.931
730.64	41.137
730.96	36.304
731.27	42.384
731.59	39.755
731.90	37.318
732.22	37.888
732.53	35.604
732.85	39.744
733.16	41.158
733.48	44.850
733.80	40.909
734.11	42.038
734.43	41.124
734.74	36.571
735.06	35.244
735.37	42.486
735.69	39.809
736.00	41.503
736.32	38.006
736.63	36.741
736.95	41.534
737.26	36.735
737.58	36.452
737.89	41.806
738.21	40.614
738.52	42.143
738.83	38.491
739.15	43.462
739.46	43.796
739.78	40.972
740.09	37.231
740.41	41.290
740.72	42.857
741.04	43.333
741.35	44.583
741.66	48.889
741.98	46.698
742.29	45.455
742.61	48.276
742.92	47.511
743.23	48.718
743.55	42.400
743.86	46.053
744.18	46.018
744.49	54.067
744.80	48.357
745.12	50.000
745.43	48.458
745.74	54.955
746.06	53.211
746.37	43.498
746.68	49.774
747.00	47.685
747.31	53.810
747.62	42.478
747.94	46.256
748.25	45.532
748.56	48.018
748.88	46.535
749.19	50.000
749.50	44.186
749.82	43.902
750.13	43.673
750.44	38.686
750.75	41.754
751.07	42.444
751.38	43.206
751.69	38.989
752.01	40.602
752.32	41.877
752.63	44.681
752.94	44.672
753.26	48.400
753.57	45.122
753.88	43.750
754.19	38.571
754.51	43.056
754.82	42.238
755.13	42.264
755.44	42.857
755.75	38.321
756.07	37.234
756.38	41.606
756.69	38.926
757.00	37.425
757.31	38.872
757.63	35.380
757.94	36.461
758.25	33.578
758.56	33.333
758.87	35.753
759.18	36.970
759.50	35.737
759.81	39.252
760.12	34.687
760.43	33.811
760.74	33.967
761.05	38.418
761.36	36.364
761.67	38.068
761.99	35.404
762.30	42.708
762.61	41.603
762.92	45.312
763.23	39.076
763.54	45.600
763.85	43.750
764.16	42.308
764.47	42.966
764.78	38.869
765.10	34.810
765.41	38.348
765.72	33.832
766.03	41.066
766.34	35.333
766.65	47.234
766.96	44.017
767.27	46.193
767.58	51.042
767.89	51.579
768.20	53.448
768.51	44.162
768.82	46.789
769.13	42.276
769.44	38.866
769.75	42.918
770.06	42.661
770.37	45.249
770.68	46.759
770.99	41.778
771.30	38.525
771.61	47.534
771.92	46.311
772.23	49.580
772.54	50.256
772.85	50.262
773.16	49.468
773.47	54.891
773.78	49.746
774.09	55.357
774.39	51.462
774.70	51.852
775.01	63.043
775.32	61.438
775.63	58.553
775.94	68.345
776.25	67.717
776.56	68.657
776.87	63.934
777.18	64.844
777.48	62.595
777.79	61.364
778.10	56.296
778.41	66.071
778.72	55.474
779.03	56.376
779.34	56.376
779.65	48.649
779.95	50.307
780.26	61.438
780.57	65.517
780.88	67.188
781.19	54.887
781.50	57.432
781.80	52.201
782.11	49.153
782.42	56.329
782.73	53.374
783.04	64.865
783.34	59.859
783.65	65.753
783.96	61.194
784.27	57.343
784.57	58.993
784.88	56.481
785.19	70.635
785.50	63.208
785.81	67.910
786.11	69.672
786.42	65.116
786.73	66.372
787.04	72.642
787.34	72.321
787.65	78.000
787.96	69.369
788.26	69.421
788.57	74.576
788.88	72.727
789.19	61.111
789.49	59.091
789.80	72.519
790.11	75.238
790.41	80.198
790.72	80.723
791.03	81.522
791.33	70.930
791.64	77.320
791.95	76.238
792.25	84.444
792.56	90.909
792.87	79.487
793.17	87.342
793.48	95.402
793.79	82.759
794.09	80.682
794.40	65.546
794.70	61.765
795.01	57.037
795.32	53.237
795.62	64.567
795.93	71.552
796.23	75.221
796.54	74.118
796.85	93.243
797.15	101.408
797.46	89.394
797.76	95.181
798.07	89.873
798.37	90.769
798.68	109.091
798.99	87.324
799.29	90.909
799.60	80.682
799.90	98.630
800.21	86.567
800.51	103.448
800.82	129.825
801.12	111.475
801.43	109.091
801.73	89.189
802.04	114.286
802.34	88.889
802.65	103.125
802.95	130.508
803.26	112.500
803.56	90.000
803.87	96.923
804.17	102.941
804.48	118.519
804.78	94.828
805.09	95.588
805.39	113.462
805.70	123.214
806.00	111.475
806.30	110.606
806.61	89.024
806.91	79.747
807.22	76.316
807.52	76.119
807.83	94.366
808.13	96.875
808.43	120.000
808.74	85.526
809.04	101.449
809.35	94.030
809.65	86.842
809.95	104.839
810.26	103.390
810.56	93.651
810.86	138.636
811.17	164.286
811.47	110.000
811.77	122.222
812.08	110.909
812.38	120.000
812.69	188.889
812.99	150.000
813.29	144.898
813.59	121.429
813.90	144.898
814.20	114.545
814.50	95.385
814.81	113.235
815.11	128.571
815.41	108.197
815.72	145.238
816.02	121.818
816.32	121.429
816.62	150.000
816.93	153.659
817.23	164.286
817.53	138.636
817.84	190.909
818.14	160.870
818.44	131.111
818.74	179.412
819.04	157.500
819.35	197.143
819.65	173.529
819.95	210.714
820.25	210.000
820.56	182.051
820.86	154.545
821.16	153.488
821.46	169.231
821.76	136.000
822.07	217.143
822.37	187.500
822.67	166.667
822.97	125.490
823.27	210.714
823.57	164.865
823.88	160.000
824.18	223.333
824.48	183.333
824.78	220.000
825.08	187.500
825.38	178.378
825.69	163.415
825.99	229.167
826.29	210.345
826.59	171.053
826.89	171.053
827.19	202.941
827.49	183.871
827.79	170.455
828.09	150.000
828.39	138.298
828.70	134.694
829.00	203.704
829.30	161.290
829.60	155.000
829.90	393.333
830.20	185.714
830.50	239.130
830.80	234.783
831.10	200.000
831.40	196.667
831.70	247.826
832.00	265.385
832.30	255.556
832.60	406.250
832.90	230.000
833.20	364.286
833.50	190.323
833.80	220.690
834.10	196.875
834.40	246.154
834.70	327.778
835.00	304.762
835.30	168.571
835.60	315.385
835.90	213.793
836.20	342.857
836.50	206.897
836.80	256.000
837.10	191.667
837.40	276.190
837.70	300.000
838.00	251.852
838.30	252.381
838.60	328.571
838.90	238.462
839.19	265.000
839.49	400.000
839.79	285.000
840.09	250.000
840.39	261.905
840.69	256.522
840.99	311.111
841.29	430.000
841.59	391.667
841.88	343.750
842.18	186.207
842.48	285.714
842.78	183.333
843.08	260.870
843.38	171.875
843.68	850.000
843.97	246.154
844.27	203.448
844.57	338.095
844.87	293.750
845.17	229.630
845.47	1966.667
845.76	533.333
846.06	300.000
846.36	750.000
846.66	392.857
846.96	312.500
847.25	490.909
847.55	527.273
847.85	300.000
848.15	510.000
848.44	471.429
848.74	300.000
849.04	311.765
849.34	620.000
849.63	305.263
849.93	481.818
850.23	1180.000
850.53	421.429
850.82	2850.000
851.12	-4400.000
851.42	4200.000
851.71	320.000
852.01	-1266.667
852.31	237.500
852.61	1900.000
852.90	261.905
853.20	288.000
853.50	352.941
853.79	257.143
854.09	208.333
854.39	350.000
854.68	183.784
854.98	212.903
855.28	153.333
855.57	217.241
855.87	222.222
856.17	221.053
856.46	346.667
856.76	305.882
857.05	175.862
857.35	250.000
857.65	366.667
857.94	282.609
858.24	253.846
858.53	310.000
858.83	318.182
859.13	346.667
859.42	0.000
859.72	622.222
860.01	490.909
860.31	268.182
860.60	300.000
860.90	260.870
861.20	566.667
861.49	541.667
861.79	-5300.000
862.08	725.000
862.38	271.429
862.67	369.231
862.97	358.824
863.26	633.333
863.56	344.444
863.85	475.000
864.15	737.500
864.44	340.000
864.74	983.333
865.03	700.000
865.33	300.000
865.62	481.818
865.92	430.769
866.21	416.667
866.51	0.000
866.80	518.182
867.10	1120.000
867.39	500.000
867.69	454.545
867.98	284.211
868.27	527.273
868.57	331.579
868.86	-5300.000
869.16	343.750
869.45	2200.000
869.75	-3800.000
870.04	416.667
870.33	700.000
870.63	1200.000
870.92	2750.000
871.22	785.714
871.51	358.824
871.80	200.000
872.10	457.143
>>>>>End Processed Spectral Data<<<<<
