SpectraSuite Data File
++++++++++++++++++++++++++++++++++++
Date: Wed May 13 19:47:01 PDT 2015
User: schluterlab
Dark Spectrum Present: Yes
Reference Spectrum Present: Yes
Number of Sampled Component Spectra: 1
Spectrometers: USB2E3373
Integration Time (usec): 3000 (USB2E3373)
Spectra Averaged: 3 (USB2E3373)
Boxcar Smoothing: 0 (USB2E3373)
Correct for Electrical Dark: No (USB2E3373)
Strobe/Lamp Enabled: No (USB2E3373)
Correct for Detector Non-linearity: No (USB2E3373)
Correct for Stray Light: No (USB2E3373)
Number of Pixels in Processed Spectrum: 2048
>>>>>Begin Processed Spectral Data<<<<<
178.53	0.000
178.91	-1475.000
179.29	-1300.000
179.67	-211.111
180.04	-1175.000
180.42	2300.000
180.80	1040.000
181.18	-1100.000
181.56	614.286
181.94	0.000
182.31	-757.143
182.69	1700.000
183.07	-600.000
183.45	-522.222
183.83	518.182
184.20	-340.000
184.58	2650.000
184.96	5100.000
185.34	-860.000
185.72	-587.500
186.09	-2400.000
186.47	2700.000
186.85	2900.000
187.23	4400.000
187.61	-1933.333
187.98	1175.000
188.36	490.909
188.74	527.273
189.12	-940.000
189.49	650.000
189.87	-3200.000
190.25	-1275.000
190.63	478.571
191.00	469.231
191.38	800.000
191.76	-1200.000
192.14	1300.000
192.51	662.500
192.89	900.000
193.27	687.500
193.65	-1200.000
194.02	530.000
194.40	940.000
194.78	630.000
195.15	466.667
195.53	620.000
195.91	-1950.000
196.29	362.500
196.66	263.158
197.04	-410.000
197.42	0.000
197.79	690.000
198.17	-4300.000
198.55	628.571
198.92	587.500
199.30	820.000
199.68	0.000
200.05	322.222
200.43	728.571
200.81	5400.000
201.18	1466.667
201.56	-1766.667
201.94	444.444
202.31	600.000
202.69	483.333
203.07	520.000
203.44	0.000
203.82	1250.000
204.19	728.571
204.57	464.286
204.95	712.500
205.32	1500.000
205.70	463.636
206.08	371.429
206.45	2650.000
206.83	375.000
207.20	883.333
207.58	600.000
207.96	311.111
208.33	637.500
208.71	-883.333
209.08	800.000
209.46	611.111
209.84	527.273
210.21	-1633.333
210.59	1425.000
210.96	-512.500
211.34	2000.000
211.71	590.000
212.09	716.667
212.46	0.000
212.84	1733.333
213.22	1025.000
213.59	-5400.000
213.97	716.667
214.34	814.286
214.72	627.273
215.09	920.000
215.47	-2250.000
215.84	-2000.000
216.22	1400.000
216.59	364.286
216.97	1350.000
217.34	436.364
217.72	-666.667
218.09	0.000
218.47	-6200.000
218.84	555.556
219.22	800.000
219.59	1533.333
219.97	-700.000
220.34	1040.000
220.72	-1833.333
221.09	378.571
221.47	1575.000
221.84	-766.667
222.22	0.000
222.59	1250.000
222.97	-2300.000
223.34	1080.000
223.72	376.923
224.09	1000.000
224.46	2500.000
224.84	-5000.000
225.21	-980.000
225.59	-5600.000
225.96	600.000
226.34	260.000
226.71	2300.000
227.08	550.000
227.46	500.000
227.83	-950.000
228.21	-2100.000
228.58	700.000
228.95	-2350.000
229.33	-2350.000
229.70	1366.667
230.08	757.143
230.45	-940.000
230.82	416.667
231.20	916.667
231.57	557.143
231.95	475.000
232.32	218.182
232.69	381.818
233.07	628.571
233.44	307.692
233.81	-1400.000
234.19	268.421
234.56	450.000
234.93	300.000
235.31	418.182
235.68	276.923
236.05	350.000
236.43	175.758
236.80	236.842
237.17	4400.000
237.55	233.333
237.92	167.857
238.29	223.810
238.67	158.065
239.04	210.345
239.41	102.778
239.79	126.087
240.16	128.571
240.53	125.000
240.91	92.157
241.28	100.000
241.65	92.000
242.02	89.855
242.40	74.194
242.77	63.333
243.14	66.667
243.51	67.416
243.89	58.824
244.26	56.667
244.63	53.763
245.00	51.064
245.38	49.505
245.75	42.991
246.12	40.367
246.49	39.416
246.87	45.600
247.24	43.846
247.61	37.857
247.98	32.026
248.36	29.730
248.73	33.121
249.10	42.675
249.47	35.593
249.84	36.898
250.22	30.481
250.59	28.994
250.96	30.303
251.33	24.645
251.70	31.683
252.08	21.429
252.45	21.076
252.82	19.565
253.19	25.957
253.56	23.137
253.94	21.992
254.31	26.172
254.68	23.077
255.05	22.140
255.42	17.073
255.79	19.118
256.16	20.578
256.54	20.495
256.91	18.149
257.28	17.986
257.65	19.472
258.02	18.944
258.39	15.457
258.76	15.385
259.14	18.452
259.51	16.413
259.88	14.907
260.25	15.408
260.62	15.029
260.99	13.665
261.36	18.919
261.73	13.754
262.10	15.116
262.47	15.775
262.85	18.384
263.22	11.681
263.59	17.094
263.96	14.835
264.33	17.755
264.70	12.368
265.07	16.624
265.44	14.394
265.81	15.572
266.18	13.317
266.55	13.415
266.92	12.776
267.29	13.889
267.66	14.908
268.03	14.091
268.40	13.084
268.77	11.933
269.14	13.739
269.51	14.221
269.88	14.219
270.25	12.190
270.62	12.809
270.99	15.054
271.36	15.880
271.73	11.682
272.10	9.565
272.47	11.828
272.84	14.069
273.21	12.579
273.58	12.009
273.95	10.692
274.32	8.471
274.69	11.991
275.06	10.236
275.43	10.213
275.80	11.824
276.17	12.424
276.54	12.890
276.91	11.067
277.28	11.328
277.65	10.058
278.02	10.766
278.39	13.281
278.76	12.000
279.13	10.755
279.50	10.801
279.87	12.151
280.23	10.778
280.60	8.897
280.97	10.906
281.34	11.504
281.71	11.091
282.08	12.284
282.45	8.909
282.82	12.611
283.19	10.339
283.56	11.754
283.92	10.660
284.29	10.582
284.66	9.074
285.03	9.765
285.40	9.331
285.77	8.418
286.14	10.190
286.51	12.667
286.87	12.821
287.24	11.889
287.61	9.952
287.98	7.955
288.35	8.875
288.72	8.723
289.08	9.077
289.45	7.743
289.82	9.593
290.19	9.105
290.56	9.342
290.93	7.402
291.29	8.589
291.66	10.324
292.03	11.773
292.40	11.013
292.77	7.692
293.13	8.955
293.50	8.746
293.87	8.741
294.24	7.704
294.60	7.424
294.97	9.302
295.34	9.309
295.71	9.233
296.08	7.977
296.44	7.840
296.81	8.322
297.18	8.672
297.55	6.728
297.91	6.860
298.28	9.103
298.65	7.963
299.02	8.827
299.38	6.906
299.75	7.278
300.12	6.769
300.48	6.375
300.85	7.891
301.22	7.261
301.59	6.692
301.95	7.431
302.32	8.601
302.69	7.766
303.05	7.273
303.42	7.037
303.79	7.022
304.15	5.828
304.52	5.794
304.89	6.969
305.25	6.497
305.62	7.135
305.99	7.792
306.35	7.271
306.72	6.726
307.09	7.769
307.45	7.995
307.82	6.808
308.19	6.512
308.55	7.983
308.92	6.767
309.29	6.758
309.65	5.196
310.02	6.660
310.38	7.634
310.75	7.603
311.12	6.858
311.48	7.001
311.85	6.709
312.22	6.868
312.58	6.341
312.95	6.969
313.31	6.408
313.68	7.692
314.05	8.974
314.41	7.638
314.78	7.553
315.14	7.746
315.51	6.282
315.87	7.129
316.24	8.143
316.61	7.505
316.97	7.339
317.34	5.871
317.70	8.604
318.07	8.085
318.43	8.317
318.80	9.091
319.16	8.475
319.53	8.068
319.89	9.143
320.26	9.400
320.62	9.524
320.99	10.202
321.35	9.394
321.72	10.062
322.08	10.069
322.45	11.841
322.81	9.787
323.18	10.405
323.54	10.853
323.91	10.755
324.27	11.377
324.64	9.786
325.00	10.821
325.37	11.283
325.73	12.567
326.10	11.650
326.46	11.290
326.83	10.613
327.19	12.212
327.56	11.760
327.92	12.861
328.29	12.067
328.65	13.076
329.01	12.996
329.38	12.951
329.74	11.727
330.11	11.216
330.47	12.397
330.84	13.143
331.20	12.022
331.56	13.578
331.93	12.407
332.29	13.665
332.66	12.832
333.02	14.351
333.38	14.092
333.75	13.547
334.11	14.235
334.48	13.398
334.84	15.165
335.20	14.545
335.57	13.327
335.93	13.125
336.29	13.462
336.66	13.436
337.02	12.851
337.38	13.981
337.75	12.478
338.11	14.324
338.47	12.155
338.84	13.932
339.20	12.661
339.56	15.420
339.93	12.636
340.29	14.674
340.65	13.904
341.02	13.874
341.38	13.790
341.74	13.772
342.11	14.148
342.47	12.775
342.83	13.527
343.20	13.939
343.56	13.142
343.92	13.421
344.28	14.116
344.65	14.015
345.01	13.805
345.37	12.864
345.73	13.367
346.10	13.811
346.46	13.729
346.82	14.003
347.19	13.868
347.55	13.957
347.91	15.291
348.27	14.051
348.63	14.799
349.00	12.217
349.36	13.629
349.72	14.755
350.08	13.695
350.45	14.727
350.81	13.566
351.17	13.938
351.53	13.432
351.89	12.954
352.26	14.680
352.62	15.477
352.98	14.344
353.34	13.311
353.70	13.257
354.07	13.065
354.43	13.730
354.79	13.355
355.15	13.408
355.51	13.110
355.87	13.714
356.24	13.518
356.60	13.152
356.96	13.677
357.32	13.001
357.68	13.780
358.04	13.698
358.40	13.777
358.77	14.163
359.13	13.339
359.49	13.098
359.85	12.857
360.21	12.998
360.57	14.086
360.93	13.308
361.29	13.983
361.66	12.771
362.02	14.328
362.38	14.221
362.74	13.914
363.10	12.509
363.46	13.280
363.82	12.774
364.18	13.877
364.54	13.893
364.90	14.093
365.26	13.015
365.62	14.098
365.98	12.491
366.35	13.109
366.71	13.449
367.07	13.765
367.43	14.804
367.79	14.133
368.15	14.511
368.51	13.372
368.87	13.776
369.23	13.241
369.59	14.772
369.95	13.382
370.31	13.604
370.67	13.986
371.03	15.131
371.39	13.557
371.75	13.676
372.11	13.727
372.47	15.103
372.83	13.617
373.19	14.090
373.55	14.265
373.91	14.286
374.27	13.746
374.63	12.727
374.99	14.689
375.35	13.189
375.71	13.777
376.07	14.266
376.42	14.168
376.78	13.784
377.14	13.297
377.50	13.709
377.86	13.431
378.22	14.475
378.58	13.095
378.94	12.885
379.30	12.850
379.66	13.388
380.02	14.312
380.38	13.297
380.74	13.505
381.09	14.303
381.45	14.382
381.81	14.066
382.17	13.758
382.53	13.962
382.89	13.642
383.25	13.821
383.61	14.994
383.97	13.696
384.32	14.972
384.68	13.445
385.04	13.891
385.40	12.817
385.76	13.759
386.12	14.054
386.48	14.726
386.83	13.983
387.19	14.595
387.55	14.780
387.91	13.906
388.27	13.489
388.62	14.690
388.98	13.452
389.34	14.268
389.70	14.224
390.06	14.766
390.42	14.137
390.77	15.076
391.13	14.614
391.49	13.832
391.85	13.877
392.20	13.438
392.56	14.205
392.92	14.185
393.28	13.905
393.64	14.388
393.99	14.722
394.35	13.896
394.71	14.366
395.07	14.393
395.42	14.771
395.78	13.804
396.14	14.898
396.50	15.664
396.85	15.130
397.21	13.625
397.57	13.763
397.92	14.243
398.28	13.733
398.64	15.054
399.00	15.053
399.35	14.213
399.71	14.468
400.07	13.720
400.42	14.540
400.78	14.777
401.14	14.085
401.49	14.328
401.85	13.975
402.21	14.431
402.57	13.880
402.92	14.565
403.28	14.803
403.63	14.356
403.99	13.885
404.35	15.091
404.70	14.149
405.06	14.094
405.42	14.348
405.77	14.343
406.13	13.600
406.49	15.021
406.84	14.176
407.20	13.002
407.55	13.720
407.91	13.800
408.27	14.359
408.62	14.690
408.98	13.542
409.34	14.084
409.69	14.581
410.05	14.064
410.40	13.945
410.76	13.859
411.11	14.053
411.47	14.569
411.83	14.417
412.18	13.111
412.54	14.695
412.89	14.639
413.25	13.459
413.60	14.824
413.96	13.479
414.31	14.399
414.67	14.259
415.03	14.238
415.38	14.626
415.74	13.441
416.09	13.651
416.45	14.190
416.80	15.003
417.16	15.214
417.51	13.869
417.87	13.295
418.22	14.259
418.58	15.623
418.93	13.943
419.29	14.258
419.64	14.673
420.00	13.415
420.35	13.797
420.71	13.987
421.06	12.888
421.42	13.041
421.77	14.854
422.12	12.914
422.48	13.438
422.83	13.046
423.19	13.315
423.54	13.697
423.90	13.739
424.25	13.456
424.61	12.679
424.96	12.711
425.31	13.566
425.67	13.146
426.02	13.029
426.38	13.858
426.73	13.575
427.09	13.131
427.44	13.859
427.79	12.823
428.15	12.679
428.50	13.283
428.85	14.005
429.21	12.811
429.56	12.753
429.92	13.085
430.27	12.413
430.62	12.238
430.98	13.129
431.33	12.216
431.68	12.827
432.04	12.673
432.39	12.850
432.74	12.926
433.10	12.564
433.45	13.120
433.80	11.973
434.16	12.874
434.51	12.579
434.86	12.600
435.22	12.229
435.57	12.584
435.92	12.171
436.28	12.989
436.63	13.245
436.98	12.707
437.34	13.298
437.69	12.427
438.04	12.479
438.39	12.597
438.75	13.364
439.10	12.905
439.45	12.515
439.81	11.782
440.16	11.971
440.51	12.419
440.86	12.507
441.22	12.347
441.57	13.004
441.92	11.822
442.27	12.002
442.63	11.848
442.98	12.901
443.33	11.630
443.68	12.132
444.03	12.445
444.39	11.344
444.74	11.472
445.09	11.482
445.44	11.536
445.79	12.519
446.15	12.546
446.50	11.309
446.85	11.973
447.20	11.474
447.55	12.786
447.91	11.528
448.26	12.632
448.61	11.871
448.96	12.237
449.31	12.373
449.66	11.930
450.02	11.365
450.37	11.565
450.72	11.844
451.07	11.152
451.42	11.246
451.77	12.507
452.12	11.663
452.47	11.692
452.83	11.946
453.18	11.797
453.53	11.750
453.88	10.868
454.23	11.357
454.58	11.508
454.93	12.969
455.28	11.097
455.63	10.983
455.98	12.202
456.34	10.741
456.69	11.584
457.04	11.765
457.39	11.338
457.74	11.259
458.09	11.846
458.44	11.231
458.79	10.358
459.14	11.287
459.49	11.851
459.84	10.970
460.19	10.784
460.54	10.532
460.89	10.258
461.24	11.475
461.59	11.621
461.94	11.961
462.29	11.988
462.64	10.593
462.99	10.280
463.34	10.800
463.69	11.132
464.04	11.014
464.39	10.551
464.74	10.695
465.09	10.193
465.44	10.416
465.79	9.955
466.14	9.852
466.49	9.677
466.84	10.800
467.19	10.984
467.54	11.125
467.89	10.384
468.24	10.704
468.59	11.172
468.94	10.079
469.29	10.861
469.64	11.780
469.99	11.299
470.34	9.908
470.68	10.848
471.03	10.544
471.38	10.632
471.73	10.859
472.08	11.447
472.43	10.490
472.78	9.941
473.13	11.040
473.48	10.799
473.83	10.671
474.17	9.085
474.52	10.856
474.87	10.800
475.22	10.215
475.57	9.404
475.92	9.347
476.27	10.203
476.61	10.314
476.96	9.071
477.31	9.210
477.66	10.011
478.01	9.252
478.36	9.466
478.70	9.190
479.05	9.585
479.40	9.212
479.75	9.507
480.10	9.145
480.45	8.853
480.79	9.078
481.14	9.442
481.49	9.540
481.84	8.916
482.19	9.087
482.53	8.899
482.88	9.121
483.23	9.159
483.58	9.509
483.92	8.622
484.27	8.322
484.62	8.707
484.97	8.475
485.31	8.904
485.66	7.276
486.01	7.277
486.36	6.929
486.70	7.083
487.05	7.668
487.40	7.508
487.75	7.777
488.09	8.129
488.44	7.638
488.79	8.427
489.13	8.403
489.48	7.545
489.83	8.200
490.17	8.330
490.52	8.105
490.87	8.593
491.22	8.140
491.56	7.927
491.91	7.725
492.26	8.176
492.60	8.341
492.95	7.437
493.30	8.738
493.64	8.633
493.99	7.892
494.34	8.187
494.68	8.562
495.03	8.083
495.37	8.143
495.72	8.431
496.07	8.074
496.41	7.478
496.76	8.047
497.11	8.149
497.45	8.244
497.80	8.541
498.14	7.633
498.49	8.195
498.84	9.108
499.18	7.667
499.53	7.930
499.87	8.155
500.22	7.678
500.56	8.738
500.91	7.452
501.26	8.582
501.60	8.021
501.95	8.112
502.29	8.341
502.64	8.613
502.98	7.994
503.33	7.633
503.67	7.981
504.02	7.998
504.36	8.095
504.71	7.963
505.06	8.193
505.40	8.264
505.75	7.763
506.09	8.017
506.44	8.140
506.78	7.842
507.13	8.026
507.47	7.727
507.82	8.713
508.16	8.561
508.51	7.712
508.85	7.646
509.19	7.959
509.54	7.755
509.88	7.883
510.23	8.226
510.57	8.514
510.92	7.820
511.26	8.325
511.61	8.714
511.95	7.724
512.30	7.370
512.64	8.006
512.98	8.039
513.33	7.869
513.67	7.417
514.02	7.630
514.36	8.192
514.70	8.246
515.05	7.641
515.39	8.357
515.74	7.432
516.08	7.378
516.42	8.491
516.77	7.915
517.11	7.436
517.46	7.731
517.80	8.479
518.14	7.064
518.49	8.576
518.83	8.693
519.17	7.621
519.52	7.810
519.86	8.157
520.20	8.266
520.55	8.259
520.89	8.151
521.23	9.288
521.58	7.863
521.92	8.145
522.26	8.298
522.61	8.037
522.95	7.612
523.29	7.669
523.64	8.232
523.98	7.825
524.32	8.384
524.66	8.659
525.01	7.598
525.35	7.931
525.69	7.328
526.04	8.162
526.38	8.664
526.72	8.282
527.06	8.161
527.41	6.559
527.75	8.360
528.09	8.349
528.43	8.222
528.78	8.359
529.12	8.061
529.46	7.777
529.80	8.787
530.15	8.598
530.49	7.138
530.83	8.038
531.17	8.551
531.51	8.625
531.86	8.387
532.20	9.387
532.54	8.969
532.88	7.766
533.22	8.120
533.57	8.642
533.91	7.827
534.25	7.837
534.59	7.077
534.93	7.733
535.27	8.087
535.62	7.937
535.96	8.537
536.30	7.374
536.64	9.144
536.98	8.494
537.32	7.307
537.66	7.867
538.01	8.427
538.35	8.339
538.69	8.870
539.03	7.277
539.37	7.668
539.71	6.740
540.05	8.105
540.39	7.907
540.73	7.891
541.07	8.306
541.42	8.219
541.76	8.323
542.10	8.344
542.44	7.285
542.78	8.630
543.12	7.230
543.46	8.918
543.80	8.718
544.14	8.216
544.48	8.508
544.82	7.826
545.16	8.588
545.50	7.712
545.84	8.065
546.18	7.475
546.52	8.741
546.86	8.041
547.20	8.631
547.54	7.949
547.88	9.375
548.22	7.846
548.56	8.491
548.90	7.554
549.24	7.609
549.58	8.458
549.92	8.242
550.26	7.457
550.60	7.884
550.94	8.662
551.28	7.462
551.62	8.267
551.96	7.860
552.30	9.010
552.64	8.316
552.98	8.542
553.32	8.496
553.66	8.793
554.00	9.060
554.34	7.591
554.68	7.582
555.02	8.463
555.36	8.072
555.69	7.442
556.03	7.672
556.37	8.049
556.71	7.981
557.05	8.053
557.39	8.397
557.73	7.481
558.07	8.920
558.41	7.815
558.75	8.817
559.08	8.427
559.42	7.559
559.76	8.309
560.10	7.637
560.44	7.827
560.78	7.119
561.12	8.311
561.45	7.888
561.79	7.251
562.13	8.451
562.47	8.743
562.81	7.601
563.15	8.094
563.48	8.422
563.82	7.567
564.16	7.587
564.50	6.706
564.84	7.712
565.17	7.915
565.51	7.604
565.85	7.995
566.19	7.326
566.52	7.030
566.86	7.233
567.20	8.078
567.54	7.249
567.88	6.898
568.21	7.831
568.55	7.331
568.89	6.518
569.23	6.684
569.56	6.599
569.90	5.925
570.24	6.423
570.57	6.222
570.91	5.591
571.25	6.084
571.59	6.009
571.92	5.501
572.26	5.921
572.60	6.156
572.93	5.727
573.27	6.122
573.61	6.030
573.95	5.711
574.28	5.276
574.62	5.515
574.96	5.472
575.29	5.262
575.63	5.615
575.97	5.806
576.30	5.921
576.64	5.257
576.98	5.348
577.31	5.337
577.65	5.559
577.98	5.227
578.32	5.421
578.66	5.744
578.99	5.341
579.33	5.398
579.67	5.108
580.00	5.466
580.34	5.743
580.67	5.672
581.01	5.779
581.35	5.236
581.68	5.356
582.02	5.213
582.35	5.244
582.69	5.211
583.02	5.399
583.36	5.903
583.70	5.694
584.03	5.643
584.37	5.718
584.70	5.355
585.04	5.895
585.37	5.615
585.71	5.968
586.04	5.654
586.38	5.904
586.72	5.910
587.05	5.460
587.39	5.488
587.72	5.617
588.06	5.443
588.39	6.091
588.73	5.661
589.06	6.014
589.40	6.162
589.73	6.230
590.07	6.085
590.40	5.955
590.73	5.777
591.07	7.163
591.40	6.369
591.74	6.623
592.07	6.326
592.41	6.862
592.74	6.067
593.08	6.063
593.41	5.821
593.75	5.621
594.08	6.202
594.41	6.115
594.75	5.767
595.08	5.941
595.42	6.060
595.75	6.303
596.09	6.421
596.42	6.680
596.75	6.458
597.09	7.446
597.42	5.818
597.75	6.382
598.09	7.000
598.42	6.143
598.76	6.323
599.09	6.081
599.42	6.004
599.76	6.223
600.09	5.974
600.42	5.844
600.76	5.714
601.09	5.865
601.42	6.355
601.76	5.996
602.09	6.126
602.42	6.250
602.76	6.771
603.09	6.334
603.42	6.404
603.76	6.136
604.09	6.359
604.42	6.400
604.76	6.580
605.09	6.466
605.42	6.242
605.75	6.374
606.09	5.856
606.42	6.171
606.75	6.470
607.09	7.032
607.42	6.033
607.75	5.781
608.08	6.122
608.42	6.903
608.75	6.402
609.08	6.799
609.41	6.806
609.75	6.336
610.08	6.550
610.41	6.285
610.74	6.055
611.07	6.423
611.41	6.477
611.74	7.592
612.07	6.936
612.40	7.135
612.73	6.211
613.07	7.705
613.40	6.793
613.73	6.712
614.06	6.882
614.39	7.499
614.72	7.000
615.06	7.300
615.39	6.263
615.72	7.004
616.05	6.645
616.38	6.559
616.71	6.710
617.05	7.420
617.38	7.156
617.71	6.547
618.04	6.971
618.37	7.037
618.70	7.343
619.03	7.566
619.36	6.857
619.69	8.169
620.03	8.310
620.36	7.420
620.69	8.014
621.02	7.965
621.35	7.674
621.68	7.555
622.01	7.353
622.34	7.640
622.67	7.300
623.00	7.410
623.33	7.219
623.66	8.292
623.99	7.658
624.32	7.204
624.65	8.192
624.99	6.941
625.32	7.458
625.65	6.612
625.98	7.994
626.31	8.243
626.64	7.429
626.97	7.897
627.30	7.980
627.63	8.039
627.96	8.242
628.29	7.874
628.62	8.326
628.95	10.189
629.28	8.668
629.61	8.249
629.94	7.333
630.26	8.580
630.59	7.817
630.92	8.238
631.25	7.206
631.58	8.809
631.91	9.026
632.24	8.544
632.57	9.234
632.90	9.320
633.23	9.060
633.56	11.073
633.89	10.759
634.22	8.854
634.55	9.349
634.88	9.341
635.20	10.514
635.53	10.000
635.86	10.891
636.19	10.706
636.52	10.150
636.85	9.278
637.18	9.217
637.51	11.111
637.83	9.125
638.16	9.974
638.49	9.950
638.82	10.367
639.15	9.875
639.48	10.848
639.81	10.992
640.13	10.807
640.46	11.275
640.79	12.021
641.12	8.666
641.45	11.453
641.77	10.162
642.10	10.088
642.43	10.511
642.76	10.217
643.09	11.810
643.41	11.229
643.74	11.265
644.07	9.146
644.40	12.117
644.73	12.756
645.05	14.105
645.38	10.742
645.71	10.628
646.04	13.621
646.36	12.855
646.69	12.542
647.02	11.224
647.35	11.512
647.67	10.619
648.00	13.496
648.33	11.056
648.66	10.909
648.98	10.945
649.31	10.015
649.64	11.659
649.96	11.475
650.29	11.848
650.62	10.841
650.94	11.345
651.27	11.824
651.60	12.146
651.92	11.981
652.25	11.564
652.58	11.215
652.90	12.480
653.23	9.861
653.56	11.024
653.88	13.312
654.21	12.796
654.54	10.726
654.86	11.994
655.19	10.000
655.52	5.858
655.84	3.778
656.17	4.458
656.49	6.016
656.82	6.366
657.15	4.885
657.47	3.827
657.80	2.926
658.13	3.147
658.45	4.768
658.78	5.227
659.10	6.025
659.43	6.501
659.75	7.369
660.08	7.215
660.41	10.521
660.73	11.563
661.06	11.146
661.38	12.545
661.71	13.269
662.03	15.187
662.36	10.736
662.68	12.048
663.01	12.323
663.33	11.890
663.66	13.655
663.98	12.095
664.31	11.975
664.63	13.563
664.96	13.883
665.28	11.270
665.61	12.281
665.93	11.871
666.26	13.996
666.58	12.762
666.91	15.011
667.23	12.809
667.56	12.311
667.88	14.744
668.21	15.139
668.53	13.449
668.86	11.905
669.18	15.352
669.50	16.739
669.83	15.251
670.15	15.111
670.48	14.815
670.80	13.793
671.13	12.951
671.45	11.915
671.77	13.442
672.10	11.275
672.42	11.307
672.75	9.950
673.07	9.859
673.39	12.116
673.72	11.523
674.04	12.157
674.37	11.456
674.69	12.270
675.01	12.552
675.34	14.990
675.66	16.842
675.98	14.664
676.31	13.025
676.63	14.650
676.95	15.094
677.28	14.019
677.60	16.044
677.92	14.768
678.25	15.195
678.57	14.343
678.89	13.627
679.22	12.574
679.54	11.641
679.86	12.110
680.18	13.775
680.51	14.362
680.83	12.633
681.15	12.453
681.48	13.043
681.80	11.605
682.12	12.069
682.44	10.251
682.77	13.238
683.09	14.163
683.41	14.856
683.73	12.583
684.06	14.669
684.38	14.286
684.70	13.566
685.02	12.570
685.34	12.821
685.67	11.014
685.99	11.340
686.31	10.751
686.63	9.894
686.96	12.500
687.28	14.621
687.60	13.406
687.92	13.346
688.24	11.597
688.56	15.261
688.89	15.560
689.21	16.157
689.53	15.866
689.85	15.078
690.17	12.836
690.49	16.561
690.82	11.449
691.14	12.277
691.46	12.869
691.78	13.855
692.10	13.430
692.42	13.174
692.74	13.900
693.06	12.766
693.39	14.784
693.71	15.284
694.03	14.947
694.35	11.688
694.67	14.416
694.99	17.805
695.31	15.196
695.63	12.679
695.95	13.692
696.27	11.929
696.59	14.249
696.91	14.249
697.23	13.850
697.56	13.859
697.88	10.838
698.20	12.708
698.52	15.914
698.84	12.695
699.16	14.977
699.48	14.014
699.80	14.976
700.12	17.922
700.44	16.711
700.76	14.917
701.08	16.379
701.40	15.922
701.72	17.784
702.04	22.727
702.36	15.581
702.68	16.431
703.00	15.789
703.32	16.489
703.64	16.890
703.96	18.942
704.28	18.895
704.60	19.062
704.91	19.585
705.23	18.768
705.55	22.591
705.87	21.262
706.19	16.254
706.51	19.315
706.83	20.909
707.15	19.048
707.47	14.646
707.79	15.479
708.11	14.155
708.43	16.667
708.74	13.520
709.06	16.883
709.38	17.848
709.70	18.023
710.02	19.585
710.34	17.879
710.66	19.701
710.98	22.443
711.29	18.605
711.61	21.239
711.93	19.231
712.25	21.543
712.57	19.485
712.89	20.761
713.20	17.933
713.52	20.724
713.84	18.038
714.16	15.854
714.48	18.391
714.80	20.973
715.11	18.156
715.43	15.727
715.75	18.551
716.07	17.891
716.39	18.182
716.70	19.601
717.02	20.504
717.34	20.848
717.66	25.746
717.97	22.311
718.29	22.963
718.61	19.343
718.93	20.588
719.24	19.031
719.56	22.373
719.88	20.678
720.20	26.689
720.51	21.254
720.83	21.933
721.15	19.030
721.46	19.504
721.78	22.581
722.10	20.755
722.42	21.053
722.73	20.974
723.05	17.623
723.37	23.482
723.68	22.394
724.00	21.545
724.32	22.984
724.63	23.171
724.95	22.594
725.27	25.911
725.58	24.219
725.90	22.993
726.22	23.396
726.53	20.139
726.85	19.454
727.16	20.285
727.48	18.794
727.80	24.242
728.11	22.101
728.43	16.154
728.74	20.072
729.06	24.088
729.38	28.309
729.69	22.064
730.01	19.454
730.32	18.750
730.64	21.070
730.96	16.832
731.27	20.199
731.59	21.713
731.90	19.825
732.22	16.770
732.53	18.266
732.85	20.192
733.16	20.579
733.48	20.266
733.80	18.182
734.11	20.701
734.43	19.231
734.74	17.429
735.06	14.900
735.37	18.497
735.69	17.516
736.00	21.242
736.32	20.872
736.63	17.891
736.95	19.169
737.26	16.327
737.58	16.774
737.89	23.077
738.21	19.113
738.52	20.000
738.83	18.491
739.15	20.385
739.46	22.628
739.78	20.139
740.09	19.692
740.41	21.613
740.72	19.512
741.04	22.593
741.35	21.250
741.66	29.778
741.98	21.698
742.29	30.622
742.61	29.741
742.92	26.697
743.23	27.350
743.55	29.200
743.86	22.368
744.18	29.646
744.49	30.144
744.80	31.455
745.12	29.545
745.43	24.229
745.74	28.378
746.06	28.899
746.37	22.422
746.68	26.697
747.00	26.852
747.31	27.143
747.62	22.566
747.94	27.753
748.25	21.277
748.56	25.110
748.88	22.277
749.19	31.000
749.50	26.977
749.82	23.984
750.13	22.857
750.44	24.818
750.75	20.351
751.07	27.653
751.38	20.906
751.69	22.383
752.01	21.053
752.32	20.939
752.63	22.340
752.94	25.820
753.26	26.800
753.57	23.171
753.88	24.609
754.19	23.214
754.51	25.347
754.82	15.884
755.13	21.132
755.44	15.038
755.75	19.708
756.07	20.567
756.38	19.708
756.69	16.107
757.00	20.659
757.31	19.881
757.63	14.327
757.94	16.086
758.25	19.363
758.56	17.284
758.87	16.935
759.18	20.000
759.50	17.241
759.81	19.003
760.12	16.875
760.43	14.613
760.74	15.489
761.05	19.209
761.36	17.914
761.67	17.898
761.99	18.944
762.30	20.139
762.61	19.466
762.92	23.828
763.23	23.109
763.54	24.400
763.85	21.875
764.16	28.462
764.47	23.194
764.78	18.021
765.10	15.506
765.41	22.124
765.72	19.162
766.03	18.809
766.34	20.000
766.65	23.404
766.96	20.940
767.27	27.411
767.58	27.604
767.89	35.789
768.20	36.207
768.51	29.949
768.82	25.688
769.13	26.423
769.44	21.053
769.75	24.034
770.06	16.972
770.37	24.887
770.68	30.093
770.99	24.000
771.30	21.311
771.61	25.561
771.92	25.000
772.23	28.151
772.54	32.308
772.85	30.366
773.16	31.383
773.47	33.152
773.78	35.025
774.09	23.810
774.39	31.579
774.70	33.951
775.01	39.130
775.32	41.176
775.63	36.184
775.94	38.129
776.25	43.307
776.56	38.806
776.87	45.082
777.18	42.188
777.48	43.511
777.79	30.303
778.10	38.519
778.41	42.857
778.72	35.766
779.03	35.570
779.34	41.611
779.65	31.081
779.95	40.491
780.26	44.444
780.57	40.690
780.88	43.750
781.19	45.113
781.50	43.919
781.80	39.623
782.11	33.333
782.42	31.013
782.73	32.515
783.04	41.892
783.34	44.366
783.65	43.836
783.96	44.776
784.27	39.161
784.57	34.532
784.88	31.481
785.19	57.143
785.50	49.057
785.81	47.015
786.11	53.279
786.42	48.062
786.73	45.133
787.04	55.660
787.34	51.786
787.65	47.000
787.96	52.252
788.26	51.240
788.57	44.068
788.88	49.587
789.19	39.583
789.49	43.939
789.80	41.221
790.11	57.143
790.41	55.446
790.72	53.012
791.03	61.957
791.33	51.163
791.64	53.608
791.95	58.416
792.25	68.889
792.56	62.338
792.87	73.077
793.17	74.684
793.48	66.667
793.79	48.276
794.09	63.636
794.40	36.975
794.70	51.471
795.01	37.037
795.32	35.971
795.62	41.732
795.93	50.862
796.23	50.442
796.54	50.588
796.85	62.162
797.15	80.282
797.46	66.667
797.76	74.699
798.07	59.494
798.37	83.077
798.68	74.242
798.99	64.789
799.29	58.442
799.60	65.909
799.90	68.493
800.21	94.030
800.51	77.586
800.82	92.982
801.12	73.770
801.43	77.273
801.73	63.514
802.04	82.540
802.34	83.951
802.65	65.625
802.95	98.305
803.26	81.250
803.56	65.714
803.87	70.769
804.17	89.706
804.48	100.000
804.78	60.345
805.09	85.294
805.39	88.462
805.70	87.500
806.00	86.885
806.30	77.273
806.61	71.951
806.91	69.620
807.22	64.474
807.52	52.239
807.83	74.648
808.13	79.687
808.43	100.000
808.74	60.526
809.04	57.971
809.35	86.567
809.65	72.368
809.95	91.935
810.26	74.576
810.56	88.889
810.86	127.273
811.17	133.333
811.47	93.333
811.77	88.889
812.08	101.818
812.38	108.000
812.69	133.333
812.99	115.909
813.29	112.245
813.59	73.810
813.90	108.163
814.20	96.364
814.50	78.462
814.81	88.235
815.11	100.000
815.41	86.885
815.72	126.190
816.02	103.636
816.32	100.000
816.62	105.000
816.93	124.390
817.23	128.571
817.53	134.091
817.84	145.455
818.14	117.391
818.44	100.000
818.74	173.529
819.04	102.500
819.35	142.857
819.65	170.588
819.95	132.143
820.25	185.000
820.56	169.231
820.86	136.364
821.16	113.953
821.46	125.641
821.76	134.000
822.07	162.857
822.37	132.500
822.67	151.515
822.97	96.078
823.27	182.143
823.57	143.243
823.88	130.000
824.18	166.667
824.48	154.762
824.78	200.000
825.08	195.833
825.38	143.243
825.69	126.829
825.99	208.333
826.29	155.172
826.59	173.684
826.89	118.421
827.19	135.294
827.49	158.065
827.79	145.455
828.09	138.636
828.39	97.872
828.70	120.408
829.00	133.333
829.30	148.387
829.60	125.000
829.90	300.000
830.20	171.429
830.50	156.522
830.80	208.696
831.10	176.667
831.40	170.000
831.70	195.652
832.00	188.462
832.30	188.889
832.60	356.250
832.90	190.000
833.20	378.571
833.50	164.516
833.80	182.759
834.10	159.375
834.40	230.769
834.70	255.556
835.00	300.000
835.30	128.571
835.60	276.923
835.90	213.793
836.20	357.143
836.50	210.345
836.80	192.000
837.10	169.444
837.40	261.905
837.70	311.765
838.00	207.407
838.30	204.762
838.60	271.429
838.90	242.308
839.19	250.000
839.49	435.714
839.79	320.000
840.09	230.000
840.39	252.381
840.69	230.435
840.99	250.000
841.29	460.000
841.59	316.667
841.88	356.250
842.18	175.862
842.48	233.333
842.78	183.333
843.08	213.043
843.38	162.500
843.68	900.000
843.97	273.077
844.27	224.138
844.57	304.762
844.87	375.000
845.17	207.407
845.47	1533.333
845.76	588.889
846.06	311.765
846.36	525.000
846.66	392.857
846.96	300.000
847.25	409.091
847.55	409.091
847.85	239.130
848.15	420.000
848.44	400.000
848.74	272.222
849.04	305.882
849.34	660.000
849.63	231.579
849.93	400.000
850.23	860.000
850.53	414.286
850.82	2300.000
851.12	-4500.000
851.42	4300.000
851.71	255.000
852.01	-1100.000
852.31	216.667
852.61	1633.333
852.90	266.667
853.20	212.000
853.50	258.824
853.79	266.667
854.09	204.167
854.39	343.750
854.68	170.270
854.98	190.323
855.28	193.333
855.57	206.897
855.87	181.481
856.17	236.842
856.46	240.000
856.76	235.294
857.05	189.655
857.35	175.000
857.65	333.333
857.94	204.348
858.24	242.308
858.53	315.000
858.83	231.818
859.13	366.667
859.42	0.000
859.72	500.000
860.01	481.818
860.31	231.818
860.60	226.316
860.90	252.174
861.20	455.556
861.49	475.000
861.79	-4400.000
862.08	625.000
862.38	252.381
862.67	346.154
862.97	329.412
863.26	600.000
863.56	327.778
863.85	400.000
864.15	575.000
864.44	386.667
864.74	850.000
865.03	712.500
865.33	247.368
865.62	463.636
865.92	353.846
866.21	358.333
866.51	0.000
866.80	372.727
867.10	1000.000
867.39	392.308
867.69	409.091
867.98	273.684
868.27	472.727
868.57	289.474
868.86	-4500.000
869.16	318.750
869.45	2150.000
869.75	-4400.000
870.04	441.667
870.33	642.857
870.63	850.000
870.92	2350.000
871.22	771.429
871.51	335.294
871.80	242.857
872.10	371.429
>>>>>End Processed Spectral Data<<<<<
