SpectraSuite Data File
++++++++++++++++++++++++++++++++++++
Date: Wed May 13 19:35:48 PDT 2015
User: schluterlab
Dark Spectrum Present: Yes
Reference Spectrum Present: Yes
Number of Sampled Component Spectra: 1
Spectrometers: USB2E3373
Integration Time (usec): 3000 (USB2E3373)
Spectra Averaged: 3 (USB2E3373)
Boxcar Smoothing: 0 (USB2E3373)
Correct for Electrical Dark: No (USB2E3373)
Strobe/Lamp Enabled: No (USB2E3373)
Correct for Detector Non-linearity: No (USB2E3373)
Correct for Stray Light: No (USB2E3373)
Number of Pixels in Processed Spectrum: 2048
>>>>>Begin Processed Spectral Data<<<<<
178.53	0.000
178.91	-1350.000
179.29	-1225.000
179.67	-277.778
180.04	-1500.000
180.42	2550.000
180.80	1060.000
181.18	-1225.000
181.56	657.143
181.94	0.000
182.31	-728.571
182.69	1866.667
183.07	-575.000
183.45	-544.444
183.83	545.455
184.20	-480.000
184.58	2250.000
184.96	7300.000
185.34	-840.000
185.72	-687.500
186.09	-2500.000
186.47	3250.000
186.85	3150.000
187.23	5500.000
187.61	-1600.000
187.98	1550.000
188.36	618.182
188.74	454.545
189.12	-1260.000
189.49	580.000
189.87	-4600.000
190.25	-1475.000
190.63	421.429
191.00	469.231
191.38	833.333
191.76	-1250.000
192.14	1550.000
192.51	737.500
192.89	950.000
193.27	687.500
193.65	-1225.000
194.02	600.000
194.40	1100.000
194.78	540.000
195.15	541.667
195.53	620.000
195.91	-2300.000
196.29	450.000
196.66	352.632
197.04	-490.000
197.42	0.000
197.79	710.000
198.17	-5200.000
198.55	757.143
198.92	725.000
199.30	1020.000
199.68	0.000
200.05	327.778
200.43	900.000
200.81	5500.000
201.18	2033.333
201.56	-1900.000
201.94	733.333
202.31	744.444
202.69	541.667
203.07	650.000
203.44	0.000
203.82	1450.000
204.19	842.857
204.57	507.143
204.95	800.000
205.32	1600.000
205.70	609.091
206.08	428.571
206.45	3150.000
206.83	343.750
207.20	1100.000
207.58	1000.000
207.96	344.444
208.33	662.500
208.71	-850.000
209.08	928.571
209.46	677.778
209.84	536.364
210.21	-1800.000
210.59	1475.000
210.96	-525.000
211.34	2550.000
211.71	610.000
212.09	966.667
212.46	0.000
212.84	2100.000
213.22	1525.000
213.59	-5500.000
213.97	1000.000
214.34	914.286
214.72	490.909
215.09	1200.000
215.47	-2500.000
215.84	-3000.000
216.22	2133.333
216.59	421.429
216.97	1650.000
217.34	518.182
217.72	-950.000
218.09	0.000
218.47	-5000.000
218.84	655.556
219.22	857.143
219.59	2000.000
219.97	-571.429
220.34	1040.000
220.72	-2200.000
221.09	457.143
221.47	1675.000
221.84	-900.000
222.22	0.000
222.59	1425.000
222.97	-2550.000
223.34	1220.000
223.72	407.692
224.09	1140.000
224.46	2200.000
224.84	-5200.000
225.21	-940.000
225.59	-5200.000
225.96	660.000
226.34	305.000
226.71	3000.000
227.08	800.000
227.46	610.000
227.83	-1100.000
228.21	-3000.000
228.58	666.667
228.95	-2600.000
229.33	-2550.000
229.70	2200.000
230.08	942.857
230.45	-860.000
230.82	433.333
231.20	833.333
231.57	757.143
231.95	558.333
232.32	250.000
232.69	472.727
233.07	785.714
233.44	376.923
233.81	-1700.000
234.19	278.947
234.56	600.000
234.93	433.333
235.31	490.909
235.68	446.154
236.05	407.143
236.43	209.091
236.80	294.737
237.17	5200.000
237.55	271.429
237.92	217.857
238.29	247.619
238.67	216.129
239.04	227.586
239.41	161.111
239.79	134.783
240.16	152.381
240.53	134.091
240.91	119.608
241.28	106.000
241.65	120.000
242.02	117.391
242.40	111.290
242.77	96.667
243.14	78.495
243.51	89.888
243.89	87.059
244.26	73.333
244.63	63.441
245.00	72.340
245.38	65.347
245.75	73.832
246.12	67.890
246.49	69.343
246.87	72.800
247.24	60.000
247.61	57.857
247.98	54.902
248.36	52.027
248.73	45.223
249.10	54.140
249.47	50.282
249.84	49.198
250.22	45.989
250.59	46.746
250.96	50.505
251.33	48.815
251.70	43.564
252.08	41.429
252.45	39.910
252.82	43.043
253.19	44.255
253.56	41.176
253.94	40.249
254.31	40.234
254.68	43.077
255.05	38.745
255.42	39.837
255.79	38.971
256.16	42.599
256.54	35.336
256.91	36.299
257.28	32.374
257.65	34.323
258.02	32.609
258.39	32.808
258.76	34.448
259.14	29.167
259.51	33.131
259.88	32.919
260.25	33.535
260.62	37.572
260.99	31.677
261.36	31.532
261.73	32.665
262.10	30.814
262.47	33.239
262.85	31.198
263.22	34.758
263.59	30.199
263.96	33.242
264.33	27.937
264.70	31.053
265.07	32.481
265.44	27.525
265.81	26.764
266.18	28.643
266.55	28.537
266.92	28.010
267.29	30.556
267.66	28.670
268.03	26.818
268.40	28.738
268.77	26.492
269.14	29.955
269.51	30.248
269.88	26.107
270.25	27.765
270.62	28.764
270.99	27.742
271.36	27.253
271.73	27.804
272.10	26.739
272.47	29.247
272.84	28.788
273.21	28.092
273.58	24.672
273.95	25.996
274.32	26.240
274.69	28.266
275.06	24.016
275.43	29.149
275.80	25.651
276.17	28.310
276.54	27.651
276.91	28.656
277.28	24.609
277.65	24.952
278.02	27.122
278.39	26.758
278.76	27.273
279.13	27.736
279.50	27.002
279.87	26.693
280.23	26.946
280.60	25.145
280.97	22.921
281.34	27.257
281.71	26.182
282.08	27.447
282.45	25.091
282.82	24.156
283.19	23.708
283.56	24.912
283.92	25.042
284.29	24.162
284.66	25.045
285.03	25.678
285.40	23.239
285.77	23.906
286.14	24.007
286.51	24.167
286.87	25.128
287.24	25.570
287.61	23.596
287.98	23.864
288.35	22.979
288.72	23.832
289.08	24.570
289.45	22.241
289.82	22.927
290.19	21.036
290.56	22.665
290.93	22.508
291.29	23.466
291.66	23.156
292.03	23.110
292.40	24.523
292.77	21.746
293.13	21.642
293.50	21.574
293.87	21.333
294.24	21.037
294.60	19.505
294.97	21.657
295.34	20.028
295.71	21.875
296.08	20.228
296.44	19.807
296.81	21.797
297.18	20.461
297.55	19.261
297.91	19.261
298.28	20.750
298.65	19.321
299.02	20.158
299.38	18.592
299.75	18.329
300.12	18.135
300.48	19.375
300.85	19.605
301.22	20.127
301.59	18.056
301.95	19.395
302.32	18.742
302.69	17.682
303.05	20.364
303.42	18.395
303.79	18.573
304.15	18.998
304.52	17.265
304.89	18.351
305.25	17.865
305.62	18.120
305.99	18.772
306.35	18.233
306.72	18.610
307.09	18.757
307.45	18.356
307.82	17.634
308.19	19.647
308.55	18.554
308.92	18.045
309.29	18.268
309.65	18.028
310.02	18.182
310.38	18.602
310.75	18.691
311.12	18.526
311.48	18.286
311.85	19.182
312.22	18.730
312.58	18.191
312.95	21.119
313.31	19.126
313.68	19.023
314.05	21.400
314.41	22.111
314.78	20.645
315.14	20.060
315.51	23.275
315.87	24.257
316.24	23.734
316.61	22.612
316.97	23.288
317.34	25.049
317.70	25.908
318.07	25.987
318.43	25.440
318.80	28.116
319.16	27.024
319.53	27.580
319.89	29.905
320.26	32.200
320.62	31.548
320.99	32.727
321.35	33.434
321.72	35.318
322.08	36.328
322.45	38.109
322.81	38.275
323.18	39.692
323.54	40.353
323.91	42.830
324.27	43.499
324.64	43.896
325.00	46.889
325.37	48.135
325.73	50.808
326.10	52.515
326.46	52.599
326.83	55.393
327.19	55.679
327.56	58.711
327.92	60.980
328.29	62.644
328.65	63.904
329.01	63.809
329.38	65.680
329.74	67.313
330.11	66.918
330.47	69.054
330.84	71.048
331.20	69.490
331.56	71.193
331.93	73.704
332.29	72.050
332.66	73.363
333.02	74.771
333.38	75.700
333.75	76.649
334.11	77.847
334.48	77.019
334.84	78.585
335.20	79.273
335.57	81.233
335.93	78.125
336.29	79.670
336.66	80.162
337.02	79.367
337.38	81.204
337.75	79.590
338.11	82.274
338.47	83.978
338.84	84.143
339.20	83.761
339.56	85.493
339.93	82.455
340.29	86.141
340.65	84.046
341.02	84.468
341.38	87.100
341.74	85.526
342.11	84.891
342.47	86.784
342.83	85.959
343.20	86.494
343.56	87.110
343.92	86.316
344.28	86.480
344.65	87.016
345.01	85.943
345.37	86.707
345.73	88.663
346.10	86.530
346.46	86.186
346.82	88.633
347.19	88.388
347.55	86.700
347.91	86.893
348.27	89.811
348.63	88.963
349.00	87.379
349.36	88.670
349.72	88.372
350.08	87.682
350.45	88.934
350.81	88.790
351.17	89.708
351.53	89.517
351.89	89.521
352.26	89.897
352.62	91.018
352.98	88.493
353.34	90.551
353.70	91.326
354.07	90.081
354.43	88.175
354.79	89.702
355.15	90.024
355.51	92.806
355.87	93.143
356.24	91.612
356.60	90.537
356.96	93.242
357.32	92.805
357.68	91.339
358.04	91.845
358.40	91.607
358.77	92.097
359.13	92.818
359.49	92.784
359.85	91.270
360.21	93.860
360.57	93.074
360.93	92.769
361.29	93.197
361.66	90.635
362.02	91.119
362.38	92.776
362.74	93.304
363.10	89.119
363.46	90.536
363.82	91.988
364.18	91.189
364.54	94.502
364.90	91.997
365.26	92.941
365.62	92.476
365.98	94.010
366.35	91.834
366.71	92.914
367.07	92.425
367.43	94.775
367.79	95.360
368.15	93.678
368.51	93.314
368.87	93.362
369.23	93.928
369.59	93.483
369.95	93.015
370.31	91.453
370.67	91.739
371.03	94.157
371.39	92.420
371.75	94.118
372.11	91.892
372.47	93.548
372.83	94.380
373.19	93.642
373.55	95.787
373.91	95.729
374.27	91.615
374.63	94.182
374.99	93.997
375.35	93.650
375.71	92.392
376.07	94.102
376.42	94.567
376.78	93.373
377.14	93.419
377.50	94.371
377.86	91.622
378.22	93.742
378.58	92.293
378.94	93.777
379.30	94.784
379.66	94.036
380.02	93.305
380.38	92.835
380.74	92.377
381.09	92.665
381.45	95.943
381.81	93.305
382.17	93.121
382.53	93.082
382.89	94.383
383.25	92.871
383.61	93.742
383.97	91.995
384.32	91.765
384.68	91.326
385.04	92.932
385.40	91.827
385.76	93.243
386.12	92.940
386.48	92.952
386.83	95.446
387.19	94.187
387.55	92.146
387.91	92.624
388.27	92.336
388.62	90.350
388.98	90.725
389.34	92.741
389.70	91.723
390.06	92.459
390.42	92.802
390.77	91.412
391.13	91.895
391.49	92.957
391.85	91.534
392.20	91.356
392.56	92.298
392.92	91.407
393.28	90.355
393.64	89.808
393.99	89.982
394.35	90.199
394.71	89.398
395.07	90.156
395.42	92.213
395.78	91.031
396.14	89.075
396.50	91.667
396.85	92.753
397.21	90.074
397.57	90.143
397.92	90.685
398.28	88.845
398.64	89.367
399.00	88.528
399.35	88.945
399.71	88.426
400.07	87.936
400.42	87.975
400.78	89.807
401.14	89.695
401.49	88.896
401.85	88.385
402.21	87.605
402.57	89.143
402.92	90.038
403.28	89.132
403.63	89.913
403.99	89.873
404.35	86.667
404.70	87.830
405.06	87.769
405.42	88.896
405.77	86.057
406.13	86.117
406.49	85.866
406.84	87.064
407.20	86.584
407.55	88.130
407.91	88.000
408.27	88.385
408.62	84.889
408.98	86.152
409.34	87.085
409.69	87.226
410.05	85.254
410.40	84.098
410.76	85.544
411.11	84.318
411.47	85.112
411.83	84.728
412.18	85.714
412.54	85.056
412.89	84.458
413.25	84.711
413.60	85.238
413.96	82.514
414.31	84.812
414.67	84.221
415.03	85.166
415.38	85.825
415.74	85.080
416.09	85.630
416.45	86.078
416.80	85.393
417.16	85.054
417.51	84.539
417.87	81.824
418.22	84.353
418.58	84.442
418.93	84.828
419.29	83.132
419.64	83.753
420.00	82.683
420.35	82.435
420.71	82.666
421.06	83.652
421.42	81.930
421.77	82.735
422.12	82.538
422.48	82.515
422.83	82.761
423.19	82.099
423.54	82.182
423.90	81.565
424.25	82.245
424.61	82.440
424.96	82.449
425.31	82.226
425.67	79.607
426.02	81.714
426.38	81.807
426.73	82.212
427.09	82.006
427.44	82.519
427.79	82.001
428.15	82.321
428.50	82.153
428.85	81.883
429.21	79.735
429.56	80.404
429.92	79.517
430.27	79.891
430.62	79.058
430.98	79.606
431.33	79.278
431.68	80.157
432.04	79.127
432.39	80.811
432.74	81.807
433.10	81.098
433.45	80.350
433.80	80.488
434.16	80.823
434.51	79.263
434.86	80.103
435.22	82.046
435.57	80.669
435.92	79.403
436.28	80.486
436.63	79.801
436.98	79.565
437.34	79.785
437.69	80.863
438.04	79.989
438.39	79.701
438.75	79.489
439.10	80.726
439.45	80.165
439.81	79.758
440.16	77.527
440.51	79.848
440.86	80.023
441.22	79.867
441.57	79.618
441.92	78.557
442.27	78.902
442.63	78.726
442.98	77.915
443.33	78.207
443.68	77.749
444.03	78.136
444.39	77.994
444.74	78.247
445.09	77.412
445.44	76.490
445.79	77.734
446.15	75.596
446.50	77.275
446.85	78.058
447.20	77.511
447.55	79.285
447.91	77.992
448.26	78.242
448.61	76.145
448.96	77.907
449.31	77.222
449.66	77.434
450.02	76.212
450.37	75.624
450.72	76.819
451.07	76.600
451.42	75.988
451.77	76.923
452.12	75.982
452.47	75.746
452.83	77.331
453.18	76.100
453.53	76.994
453.88	75.487
454.23	77.705
454.58	76.257
454.93	77.177
455.28	75.810
455.63	76.820
455.98	76.667
456.34	75.251
456.69	76.706
457.04	75.418
457.39	74.576
457.74	75.276
458.09	74.698
458.44	74.458
458.79	73.156
459.14	75.621
459.49	73.205
459.84	72.964
460.19	74.072
460.54	71.644
460.89	75.315
461.24	75.288
461.59	73.911
461.94	73.921
462.29	74.955
462.64	73.389
462.99	72.479
463.34	75.133
463.69	73.859
464.04	74.435
464.39	73.739
464.74	73.084
465.09	72.979
465.44	71.524
465.79	70.694
466.14	70.443
466.49	70.801
466.84	71.278
467.19	71.394
467.54	73.438
467.89	69.688
468.24	71.030
468.59	72.161
468.94	71.350
469.29	72.943
469.64	72.825
469.99	74.087
470.34	71.797
470.68	72.917
471.03	72.177
471.38	74.427
471.73	71.885
472.08	72.961
472.43	72.111
472.78	71.034
473.13	71.823
473.48	70.287
473.83	71.220
474.17	69.384
474.52	69.851
474.87	71.045
475.22	70.691
475.57	68.888
475.92	68.614
476.27	68.884
476.61	69.112
476.96	69.544
477.31	67.818
477.66	69.584
478.01	69.263
478.36	70.016
478.70	68.588
479.05	69.702
479.40	68.884
479.75	68.937
480.10	68.290
480.45	67.206
480.79	68.084
481.14	68.933
481.49	68.486
481.84	66.758
482.19	67.924
482.53	67.706
482.88	67.799
483.23	67.383
483.58	66.606
483.92	67.057
484.27	66.057
484.62	65.517
484.97	66.299
485.31	66.199
485.66	64.282
486.01	60.925
486.36	59.362
486.70	59.572
487.05	60.690
487.40	62.232
487.75	62.842
488.09	64.240
488.44	63.642
488.79	66.655
489.13	66.043
489.48	66.150
489.83	65.170
490.17	66.287
490.52	65.058
490.87	65.445
491.22	65.257
491.56	63.872
491.91	65.286
492.26	63.803
492.60	64.839
492.95	64.032
493.30	63.692
493.64	63.976
493.99	63.185
494.34	64.107
494.68	65.018
495.03	64.239
495.37	64.449
495.72	65.936
496.07	64.640
496.41	62.478
496.76	64.336
497.11	62.674
497.45	63.670
497.80	62.956
498.14	63.527
498.49	63.805
498.84	62.704
499.18	64.048
499.53	62.203
499.87	62.908
500.22	62.694
500.56	63.981
500.91	62.740
501.26	63.063
501.60	63.028
501.95	61.595
502.29	62.887
502.64	62.663
502.98	62.319
503.33	61.609
503.67	61.624
504.02	61.319
504.36	61.114
504.71	61.847
505.06	61.542
505.40	60.476
505.75	61.138
506.09	61.710
506.44	61.865
506.78	61.471
507.13	62.443
507.47	61.869
507.82	61.905
508.16	61.651
508.51	62.100
508.85	60.228
509.19	61.378
509.54	60.714
509.88	60.536
510.23	61.954
510.57	62.074
510.92	61.937
511.26	61.100
511.61	60.581
511.95	60.177
512.30	60.021
512.64	60.935
512.98	62.111
513.33	61.403
513.67	59.872
514.02	61.201
514.36	60.513
514.70	59.768
515.05	61.461
515.39	60.628
515.74	60.755
516.08	60.872
516.42	60.599
516.77	61.873
517.11	59.822
517.46	60.384
517.80	61.789
518.14	59.815
518.49	61.027
518.83	60.625
519.17	59.296
519.52	60.555
519.86	58.871
520.20	59.827
520.55	62.298
520.89	61.496
521.23	60.193
521.58	60.324
521.92	59.706
522.26	58.816
522.61	61.308
522.95	60.773
523.29	58.977
523.64	61.402
523.98	60.074
524.32	59.168
524.66	58.268
525.01	59.620
525.35	59.418
525.69	58.559
526.04	59.502
526.38	60.464
526.72	57.730
527.06	59.950
527.41	58.045
527.75	59.743
528.09	59.794
528.43	59.783
528.78	59.250
529.12	57.455
529.46	58.604
529.80	58.787
530.15	59.190
530.49	57.108
530.83	57.025
531.17	58.681
531.51	59.014
531.86	58.839
532.20	59.126
532.54	58.232
532.88	58.087
533.22	56.027
533.57	56.358
533.91	57.014
534.25	57.412
534.59	57.474
534.93	55.741
535.27	56.126
535.62	56.227
535.96	56.623
536.30	57.279
536.64	56.793
536.98	57.067
537.32	56.814
537.66	57.400
538.01	57.011
538.35	56.884
538.69	56.733
539.03	55.426
539.37	54.121
539.71	56.189
540.05	56.078
540.39	55.282
540.73	55.175
541.07	56.652
541.42	56.295
541.76	55.355
542.10	56.986
542.44	56.887
542.78	56.917
543.12	54.958
543.46	55.344
543.80	56.344
544.14	54.685
544.48	55.683
544.82	56.062
545.16	55.107
545.50	54.242
545.84	55.578
546.18	56.162
546.52	55.196
546.86	56.082
547.20	55.765
547.54	54.643
547.88	54.847
548.22	52.553
548.56	52.767
548.90	53.137
549.24	53.670
549.58	54.502
549.92	54.808
550.26	55.398
550.60	54.288
550.94	55.423
551.28	53.548
551.62	55.428
551.96	53.965
552.30	55.017
552.64	55.308
552.98	54.237
553.32	52.731
553.66	54.465
554.00	54.907
554.34	54.037
554.68	54.649
555.02	53.808
555.36	53.584
555.69	52.842
556.03	53.432
556.37	54.025
556.71	52.729
557.05	54.972
557.39	53.184
557.73	53.987
558.07	54.967
558.41	54.414
558.75	53.711
559.08	54.512
559.42	55.253
559.76	54.265
560.10	51.963
560.44	53.599
560.78	51.364
561.12	52.111
561.45	53.064
561.79	52.011
562.13	52.448
562.47	53.279
562.81	52.789
563.15	51.706
563.48	50.995
563.82	51.990
564.16	51.995
564.50	51.367
564.84	50.253
565.17	51.287
565.51	52.460
565.85	51.459
566.19	51.033
566.52	50.602
566.86	50.693
567.20	50.884
567.54	50.228
567.88	49.321
568.21	48.889
568.55	48.686
568.89	48.881
569.23	47.504
569.56	46.194
569.90	45.736
570.24	46.394
570.57	45.393
570.91	43.956
571.25	43.762
571.59	44.359
571.92	43.491
572.26	44.050
572.60	43.904
572.93	43.988
573.27	43.833
573.61	43.858
573.95	43.282
574.28	42.764
574.62	42.347
574.96	42.007
575.29	41.683
575.63	42.785
575.97	43.062
576.30	43.415
576.64	42.128
576.98	42.416
577.31	42.491
577.65	42.497
577.98	41.777
578.32	41.124
578.66	41.279
578.99	42.136
579.33	42.314
579.67	41.644
580.00	42.340
580.34	43.023
580.67	42.189
581.01	41.646
581.35	41.113
581.68	40.915
582.02	40.371
582.35	40.796
582.69	40.686
583.02	41.850
583.36	42.057
583.70	42.732
584.03	42.189
584.37	43.083
584.70	42.894
585.04	41.732
585.37	41.263
585.71	42.129
586.04	41.218
586.38	42.163
586.72	41.729
587.05	41.483
587.39	41.293
587.72	41.587
588.06	41.409
588.39	41.427
588.73	42.153
589.06	43.253
589.40	43.434
589.73	43.471
590.07	43.950
590.40	42.784
590.73	43.521
591.07	44.119
591.40	44.159
591.74	44.892
592.07	44.546
592.41	41.918
592.74	42.135
593.08	41.805
593.41	41.348
593.75	40.225
594.08	41.804
594.41	42.453
594.75	42.070
595.08	41.947
595.42	42.207
595.75	42.272
596.09	42.433
596.42	42.750
596.75	43.014
597.09	43.333
597.42	42.749
597.75	42.173
598.09	43.565
598.42	42.397
598.76	41.994
599.09	41.239
599.42	40.793
599.76	42.130
600.09	41.020
600.42	41.052
600.76	40.893
601.09	40.546
601.42	41.857
601.76	42.049
602.09	41.660
602.42	42.635
602.76	42.563
603.09	41.463
603.42	41.976
603.76	41.197
604.09	41.799
604.42	42.193
604.76	42.851
605.09	42.333
605.42	41.984
605.75	41.680
606.09	41.928
606.42	41.725
606.75	41.560
607.09	41.524
607.42	41.849
607.75	40.380
608.08	40.860
608.42	41.865
608.75	41.479
609.08	41.027
609.41	42.361
609.75	41.258
610.08	41.989
610.41	41.294
610.74	42.195
611.07	43.132
611.41	42.640
611.74	43.137
612.07	43.892
612.40	43.861
612.73	42.579
613.07	43.481
613.40	43.075
613.73	42.003
614.06	43.118
614.39	42.160
614.72	41.737
615.06	41.964
615.39	42.197
615.72	42.229
616.05	41.680
616.38	42.524
616.71	44.537
617.05	44.287
617.38	43.295
617.71	43.483
618.04	43.510
618.37	42.637
618.70	44.555
619.03	45.000
619.36	44.196
619.69	44.718
620.03	44.231
620.36	43.382
620.69	45.548
621.02	45.206
621.35	46.359
621.68	45.639
622.01	44.737
622.34	44.932
622.67	45.323
623.00	44.021
623.33	44.246
623.66	43.817
623.99	44.919
624.32	44.579
624.65	42.797
624.99	43.626
625.32	43.736
625.65	44.553
625.98	46.656
626.31	45.412
626.64	45.714
626.97	46.135
627.30	45.054
627.63	45.119
627.96	45.164
628.29	46.194
628.62	46.752
628.95	47.736
629.28	46.807
629.61	49.129
629.94	46.952
630.26	48.332
630.59	47.283
630.92	46.169
631.25	47.878
631.58	47.548
631.91	47.566
632.24	48.101
632.57	47.744
632.90	49.013
633.23	47.539
633.56	48.475
633.89	48.811
634.22	48.581
634.55	51.598
634.88	49.102
635.20	51.016
635.53	50.361
635.86	49.381
636.19	48.000
636.52	48.558
636.85	47.652
637.18	47.465
637.51	49.645
637.83	47.349
638.16	49.616
638.49	50.630
638.82	51.327
639.15	48.750
639.48	49.501
639.81	50.402
640.13	50.391
640.46	51.678
640.79	50.066
641.12	49.794
641.45	49.022
641.77	52.577
642.10	52.632
642.43	51.952
642.76	50.155
643.09	52.147
643.41	48.103
643.74	52.160
644.07	50.305
644.40	54.908
644.73	50.709
645.05	52.932
645.38	50.079
645.71	53.623
646.04	52.159
646.36	54.424
646.69	56.020
647.02	51.701
647.35	53.608
647.67	54.690
648.00	51.707
648.33	53.465
648.66	51.212
648.98	50.225
649.31	47.534
649.64	49.028
649.96	50.671
650.29	49.921
650.62	51.780
650.94	51.864
651.27	52.534
651.60	52.080
651.92	49.521
652.25	50.651
652.58	49.377
652.90	51.027
653.23	46.841
653.56	51.811
653.88	50.713
654.21	51.185
654.54	50.825
654.86	49.065
655.19	45.946
655.52	31.620
655.84	27.311
656.17	35.323
656.49	47.824
656.82	49.728
657.15	38.238
657.47	29.056
657.80	22.428
658.13	23.496
658.45	35.581
658.78	36.789
659.10	38.002
659.43	40.163
659.75	42.206
660.08	45.063
660.41	48.603
660.73	51.588
661.06	51.592
661.38	54.364
661.71	54.231
662.03	55.227
662.36	50.895
662.68	54.819
663.01	52.929
663.33	53.503
663.66	56.723
663.98	53.996
664.31	50.210
664.63	52.024
664.96	51.308
665.28	54.918
665.61	51.267
665.93	53.521
666.26	54.361
666.58	52.720
666.91	54.757
667.23	55.056
667.56	51.620
667.88	55.769
668.21	51.386
668.53	48.807
668.86	52.165
669.18	54.797
669.50	54.130
669.83	54.248
670.15	54.000
670.48	53.595
670.80	52.155
671.13	53.503
671.45	51.277
671.77	52.749
672.10	50.462
672.42	50.530
672.75	47.595
673.07	48.944
673.39	48.101
673.72	49.023
674.04	50.392
674.37	49.903
674.69	49.693
675.01	52.301
675.34	53.593
675.66	55.368
675.98	51.935
676.31	53.571
676.63	52.654
676.95	54.298
677.28	53.972
677.60	51.429
677.92	53.376
678.25	54.209
678.57	50.398
678.89	50.501
679.22	49.902
679.54	46.756
679.86	49.358
680.18	49.374
680.51	47.872
680.83	47.331
681.15	50.000
681.48	50.284
681.80	49.516
682.12	48.659
682.44	47.776
682.77	52.138
683.09	55.365
683.41	55.432
683.73	52.539
684.06	48.140
684.38	48.532
684.70	51.744
685.02	47.280
685.34	46.886
685.67	46.678
685.99	43.643
686.31	45.222
686.63	43.993
686.96	45.893
687.28	45.668
687.60	47.101
687.92	47.166
688.24	49.810
688.56	49.197
688.89	48.548
689.21	55.022
689.53	50.522
689.85	52.550
690.17	49.482
690.49	52.229
690.82	53.505
691.14	48.214
691.46	49.156
691.78	49.197
692.10	48.554
692.42	48.503
692.74	47.718
693.06	48.723
693.39	48.665
693.71	52.402
694.03	46.947
694.35	47.619
694.67	51.716
694.99	51.707
695.31	49.020
695.63	48.565
695.95	52.567
696.27	51.777
696.59	50.259
696.91	53.109
697.23	47.887
697.56	49.680
697.88	46.830
698.20	46.667
698.52	47.312
698.84	50.557
699.16	45.392
699.48	51.069
699.80	52.415
700.12	56.623
700.44	52.255
700.76	55.801
701.08	55.747
701.40	53.631
701.72	58.309
702.04	57.386
702.36	52.408
702.68	55.807
703.00	54.017
703.32	47.606
703.64	54.960
703.96	56.267
704.28	54.651
704.60	57.185
704.91	55.786
705.23	53.666
705.55	59.136
705.87	57.807
706.19	60.071
706.51	55.452
706.83	52.424
707.15	52.101
707.47	48.485
707.79	48.157
708.11	49.315
708.43	50.476
708.74	47.704
709.06	51.169
709.38	50.656
709.70	54.360
710.02	55.490
710.34	54.242
710.66	53.731
710.98	52.841
711.29	51.453
711.61	53.982
711.93	51.923
712.25	56.913
712.57	59.191
712.89	56.747
713.20	48.328
713.52	57.237
713.84	54.114
714.16	52.134
714.48	51.724
714.80	54.103
715.11	53.314
715.43	52.226
715.75	50.435
716.07	54.633
716.39	52.665
716.70	54.485
717.02	53.597
717.34	55.830
717.66	63.060
717.97	63.347
718.29	61.852
718.61	55.839
718.93	58.824
719.24	54.325
719.56	51.864
719.88	56.949
720.20	57.770
720.51	52.962
720.83	57.249
721.15	52.612
721.46	54.255
721.78	56.989
722.10	57.736
722.42	54.887
722.73	56.180
723.05	62.705
723.37	56.275
723.68	61.390
724.00	56.504
724.32	55.242
724.63	60.163
724.95	58.159
725.27	57.490
725.58	56.641
725.90	58.029
726.22	58.113
726.53	52.431
726.85	52.901
727.16	51.957
727.48	54.255
727.80	54.167
728.11	56.884
728.43	57.692
728.74	51.971
729.06	62.044
729.38	56.985
729.69	54.093
730.01	52.218
730.32	52.431
730.64	54.181
730.96	53.465
731.27	53.311
731.59	48.318
731.90	54.227
732.22	47.516
732.53	49.226
732.85	50.000
733.16	47.588
733.48	53.488
733.80	49.675
734.11	47.771
734.43	46.450
734.74	45.429
735.06	44.986
735.37	47.688
735.69	49.363
736.00	51.307
736.32	50.779
736.63	47.604
736.95	52.396
737.26	47.959
737.58	47.097
737.89	51.839
738.21	55.290
738.52	52.857
738.83	50.943
739.15	55.000
739.46	54.380
739.78	54.861
740.09	47.077
740.41	52.581
740.72	52.265
741.04	53.333
741.35	55.833
741.66	61.333
741.98	62.264
742.29	62.679
742.61	62.500
742.92	53.846
743.23	60.256
743.55	54.800
743.86	62.281
744.18	61.947
744.49	61.244
744.80	61.972
745.12	60.000
745.43	60.793
745.74	62.613
746.06	61.009
746.37	57.848
746.68	60.633
747.00	55.556
747.31	60.952
747.62	53.097
747.94	55.507
748.25	54.894
748.56	58.590
748.88	63.366
749.19	63.000
749.50	61.860
749.82	50.407
750.13	53.878
750.44	48.905
750.75	53.333
751.07	50.482
751.38	49.129
751.69	49.458
752.01	51.880
752.32	45.848
752.63	53.546
752.94	58.607
753.26	59.200
753.57	54.878
753.88	59.766
754.19	51.786
754.51	54.167
754.82	50.181
755.13	50.943
755.44	51.504
755.75	48.175
756.07	50.000
756.38	49.270
756.69	48.658
757.00	43.413
757.31	43.917
757.63	45.906
757.94	43.700
758.25	41.422
758.56	40.247
758.87	41.935
759.18	46.061
759.50	46.395
759.81	49.844
760.12	45.937
760.43	45.559
760.74	41.304
761.05	45.198
761.36	40.909
761.67	48.580
761.99	46.894
762.30	47.222
762.61	53.053
762.92	52.344
763.23	53.361
763.54	49.200
763.85	50.391
764.16	53.462
764.47	52.091
764.78	50.883
765.10	40.823
765.41	44.838
765.72	47.605
766.03	48.276
766.34	43.333
766.65	54.468
766.96	55.983
767.27	59.898
767.58	61.458
767.89	64.211
768.20	68.391
768.51	58.883
768.82	59.174
769.13	53.659
769.44	50.202
769.75	51.073
770.06	54.587
770.37	57.919
770.68	57.407
770.99	51.556
771.30	45.492
771.61	50.673
771.92	54.918
772.23	56.723
772.54	62.564
772.85	57.068
773.16	62.766
773.47	59.239
773.78	64.467
774.09	62.500
774.39	59.064
774.70	66.667
775.01	70.290
775.32	67.974
775.63	73.026
775.94	69.065
776.25	79.528
776.56	70.896
776.87	76.230
777.18	81.250
777.48	78.626
777.79	71.970
778.10	75.556
778.41	75.893
778.72	69.343
779.03	70.470
779.34	63.758
779.65	66.892
779.95	66.258
780.26	65.359
780.57	72.414
780.88	90.625
781.19	69.173
781.50	68.919
781.80	71.698
782.11	58.192
782.42	60.759
782.73	57.669
783.04	66.892
783.34	68.310
783.65	75.342
783.96	73.134
784.27	65.734
784.57	64.029
784.88	75.926
785.19	83.333
785.50	83.962
785.81	76.866
786.11	80.328
786.42	84.496
786.73	73.451
787.04	81.132
787.34	79.464
787.65	90.000
787.96	86.486
788.26	70.248
788.57	78.814
788.88	80.992
789.19	70.139
789.49	75.758
789.80	74.046
790.11	82.857
790.41	91.089
790.72	97.590
791.03	100.000
791.33	97.674
791.64	90.722
791.95	82.178
792.25	98.889
792.56	106.494
792.87	115.385
793.17	113.924
793.48	96.552
793.79	100.000
794.09	90.909
794.40	69.748
794.70	72.794
795.01	67.407
795.32	59.712
795.62	77.953
795.93	85.345
796.23	70.796
796.54	85.882
796.85	102.703
797.15	108.451
797.46	95.455
797.76	104.819
798.07	98.734
798.37	100.000
798.68	106.061
798.99	85.915
799.29	90.909
799.60	96.591
799.90	105.479
800.21	125.373
800.51	141.379
800.82	135.088
801.12	114.754
801.43	140.909
801.73	98.649
802.04	136.508
802.34	108.642
802.65	109.375
802.95	137.288
803.26	134.375
803.56	85.714
803.87	113.846
804.17	107.353
804.48	133.333
804.78	110.345
805.09	111.765
805.39	132.692
805.70	119.643
806.00	126.230
806.30	115.152
806.61	101.220
806.91	98.734
807.22	90.789
807.52	108.955
807.83	109.859
808.13	114.062
808.43	126.667
808.74	102.632
809.04	115.942
809.35	110.448
809.65	98.684
809.95	129.032
810.26	108.475
810.56	122.222
810.86	181.818
811.17	154.762
811.47	135.000
811.77	125.926
812.08	136.364
812.38	142.000
812.69	172.222
812.99	163.636
813.29	157.143
813.59	121.429
813.90	165.306
814.20	114.545
814.50	100.000
814.81	122.059
815.11	144.898
815.41	129.508
815.72	154.762
816.02	125.455
816.32	166.667
816.62	155.000
816.93	153.659
817.23	176.190
817.53	145.455
817.84	215.152
818.14	163.043
818.44	131.111
818.74	226.471
819.04	162.500
819.35	185.714
819.65	170.588
819.95	214.286
820.25	265.000
820.56	164.103
820.86	161.364
821.16	158.140
821.46	174.359
821.76	166.000
822.07	191.429
822.37	165.000
822.67	200.000
822.97	141.176
823.27	250.000
823.57	178.378
823.88	175.000
824.18	236.667
824.48	180.952
824.78	280.000
825.08	187.500
825.38	170.270
825.69	173.171
825.99	266.667
826.29	224.138
826.59	186.842
826.89	171.053
827.19	208.824
827.49	212.903
827.79	200.000
828.09	168.182
828.39	136.170
828.70	144.898
829.00	214.815
829.30	216.129
829.60	172.500
829.90	373.333
830.20	232.143
830.50	252.174
830.80	295.652
831.10	226.667
831.40	226.667
831.70	230.435
832.00	265.385
832.30	251.852
832.60	443.750
832.90	253.333
833.20	457.143
833.50	196.774
833.80	200.000
834.10	215.625
834.40	276.923
834.70	361.111
835.00	314.286
835.30	208.571
835.60	353.846
835.90	244.828
836.20	485.714
836.50	193.103
836.80	212.000
837.10	175.000
837.40	328.571
837.70	364.706
838.00	240.741
838.30	214.286
838.60	285.714
838.90	230.769
839.19	290.000
839.49	471.429
839.79	410.000
840.09	295.000
840.39	338.095
840.69	308.696
840.99	422.222
841.29	530.000
841.59	400.000
841.88	418.750
842.18	200.000
842.48	290.476
842.78	216.667
843.08	269.565
843.38	215.625
843.68	966.667
843.97	269.231
844.27	231.034
844.57	328.571
844.87	393.750
845.17	237.037
845.47	1700.000
845.76	522.222
846.06	388.235
846.36	637.500
846.66	435.714
846.96	368.750
847.25	463.636
847.55	536.364
847.85	234.783
848.15	600.000
848.44	414.286
848.74	272.222
849.04	335.294
849.34	470.000
849.63	342.105
849.93	500.000
850.23	1160.000
850.53	492.857
850.82	2850.000
851.12	-4900.000
851.42	6000.000
851.71	335.000
852.01	-1633.333
852.31	283.333
852.61	2066.667
852.90	280.952
853.20	256.000
853.50	358.824
853.79	261.905
854.09	241.667
854.39	406.250
854.68	189.189
854.98	190.323
855.28	193.333
855.57	227.586
855.87	274.074
856.17	278.947
856.46	373.333
856.76	305.882
857.05	231.034
857.35	241.667
857.65	360.000
857.94	308.696
858.24	242.308
858.53	285.000
858.83	286.364
859.13	333.333
859.42	0.000
859.72	633.333
860.01	527.273
860.31	281.818
860.60	336.842
860.90	226.087
861.20	633.333
861.49	566.667
861.79	-5700.000
862.08	887.500
862.38	276.190
862.67	400.000
862.97	370.588
863.26	522.222
863.56	294.444
863.85	458.333
864.15	550.000
864.44	386.667
864.74	883.333
865.03	725.000
865.33	331.579
865.62	518.182
865.92	500.000
866.21	475.000
866.51	0.000
866.80	518.182
867.10	1220.000
867.39	500.000
867.69	481.818
867.98	305.263
868.27	572.727
868.57	373.684
868.86	-5100.000
869.16	325.000
869.45	2650.000
869.75	-5700.000
870.04	441.667
870.33	757.143
870.63	925.000
870.92	3150.000
871.22	857.143
871.51	335.294
871.80	295.238
872.10	435.714
>>>>>End Processed Spectral Data<<<<<
