SpectraSuite Data File
++++++++++++++++++++++++++++++++++++
Date: Wed May 13 19:34:01 PDT 2015
User: schluterlab
Dark Spectrum Present: Yes
Reference Spectrum Present: Yes
Number of Sampled Component Spectra: 1
Spectrometers: USB2E3373
Integration Time (usec): 3000 (USB2E3373)
Spectra Averaged: 3 (USB2E3373)
Boxcar Smoothing: 0 (USB2E3373)
Correct for Electrical Dark: No (USB2E3373)
Strobe/Lamp Enabled: No (USB2E3373)
Correct for Detector Non-linearity: No (USB2E3373)
Correct for Stray Light: No (USB2E3373)
Number of Pixels in Processed Spectrum: 2048
>>>>>Begin Processed Spectral Data<<<<<
178.53	0.000
178.91	-1450.000
179.29	-1475.000
179.67	-277.778
180.04	-1400.000
180.42	2400.000
180.80	1100.000
181.18	-1300.000
181.56	671.429
181.94	0.000
182.31	-785.714
182.69	2133.333
183.07	-625.000
183.45	-477.778
183.83	481.818
184.20	-510.000
184.58	2500.000
184.96	6000.000
185.34	-1000.000
185.72	-662.500
186.09	-2650.000
186.47	3100.000
186.85	2600.000
187.23	5500.000
187.61	-1600.000
187.98	1375.000
188.36	600.000
188.74	627.273
189.12	-940.000
189.49	650.000
189.87	-5100.000
190.25	-1325.000
190.63	428.571
191.00	515.385
191.38	950.000
191.76	-1275.000
192.14	1475.000
192.51	800.000
192.89	1083.333
193.27	662.500
193.65	-1425.000
194.02	530.000
194.40	1160.000
194.78	690.000
195.15	491.667
195.53	720.000
195.91	-2150.000
196.29	325.000
196.66	331.579
197.04	-380.000
197.42	0.000
197.79	620.000
198.17	-5600.000
198.55	714.286
198.92	750.000
199.30	1140.000
199.68	0.000
200.05	361.111
200.43	828.571
200.81	6000.000
201.18	1966.667
201.56	-2033.333
201.94	566.667
202.31	711.111
202.69	516.667
203.07	650.000
203.44	0.000
203.82	1300.000
204.19	800.000
204.57	428.571
204.95	750.000
205.32	1366.667
205.70	518.182
206.08	357.143
206.45	2800.000
206.83	375.000
207.20	1033.333
207.58	900.000
207.96	350.000
208.33	725.000
208.71	-1050.000
209.08	828.571
209.46	600.000
209.84	463.636
210.21	-1533.333
210.59	1450.000
210.96	-500.000
211.34	2850.000
211.71	570.000
212.09	916.667
212.46	0.000
212.84	1866.667
213.22	1475.000
213.59	-4900.000
213.97	883.333
214.34	871.429
214.72	636.364
215.09	1080.000
215.47	-2200.000
215.84	-2600.000
216.22	1733.333
216.59	428.571
216.97	1400.000
217.34	563.636
217.72	-800.000
218.09	0.000
218.47	-6000.000
218.84	655.556
219.22	857.143
219.59	1833.333
219.97	-642.857
220.34	1100.000
220.72	-2000.000
221.09	421.429
221.47	1625.000
221.84	-1066.667
222.22	0.000
222.59	1675.000
222.97	-3300.000
223.34	1220.000
223.72	423.077
224.09	1040.000
224.46	2350.000
224.84	-4800.000
225.21	-1220.000
225.59	-5800.000
225.96	620.000
226.34	330.000
226.71	3050.000
227.08	612.500
227.46	550.000
227.83	-1325.000
228.21	-2300.000
228.58	744.444
228.95	-2600.000
229.33	-2200.000
229.70	2166.667
230.08	814.286
230.45	-1020.000
230.82	475.000
231.20	850.000
231.57	742.857
231.95	533.333
232.32	236.364
232.69	418.182
233.07	671.429
233.44	376.923
233.81	-1633.333
234.19	294.737
234.56	416.667
234.93	450.000
235.31	545.455
235.68	384.615
236.05	400.000
236.43	166.667
236.80	268.421
237.17	4500.000
237.55	261.905
237.92	189.286
238.29	238.095
238.67	200.000
239.04	200.000
239.41	147.222
239.79	104.348
240.16	140.476
240.53	145.455
240.91	121.569
241.28	102.000
241.65	100.000
242.02	114.493
242.40	95.161
242.77	95.000
243.14	83.871
243.51	71.910
243.89	72.941
244.26	66.667
244.63	76.344
245.00	68.085
245.38	68.317
245.75	60.748
246.12	51.376
246.49	62.774
246.87	65.600
247.24	64.615
247.61	55.000
247.98	50.327
248.36	48.649
248.73	45.223
249.10	47.771
249.47	50.282
249.84	49.198
250.22	43.316
250.59	47.929
250.96	45.960
251.33	43.128
251.70	46.535
252.08	42.857
252.45	35.874
252.82	44.783
253.19	38.298
253.56	41.176
253.94	40.249
254.31	39.453
254.68	40.769
255.05	32.841
255.42	38.618
255.79	34.926
256.16	37.184
256.54	31.095
256.91	38.790
257.28	30.216
257.65	38.284
258.02	32.919
258.39	30.915
258.76	33.779
259.14	35.119
259.51	29.483
259.88	31.677
260.25	31.722
260.62	31.792
260.99	34.472
261.36	31.832
261.73	29.799
262.10	30.233
262.47	32.113
262.85	28.691
263.22	25.356
263.59	31.054
263.96	28.022
264.33	30.809
264.70	27.895
265.07	29.156
265.44	28.788
265.81	27.007
266.18	31.407
266.55	27.805
266.92	28.256
267.29	28.935
267.66	27.294
268.03	26.136
268.40	28.037
268.77	26.492
269.14	27.703
269.51	27.088
269.88	28.671
270.25	26.411
270.62	26.517
270.99	29.677
271.36	28.112
271.73	25.701
272.10	29.348
272.47	26.237
272.84	27.922
273.21	26.834
273.58	26.201
273.95	25.157
274.32	23.967
274.69	25.268
275.06	25.787
275.43	25.745
275.80	23.848
276.17	25.458
276.54	25.156
276.91	26.482
277.28	25.391
277.65	26.886
278.02	24.845
278.39	25.000
278.76	24.182
279.13	24.717
279.50	26.257
279.87	25.498
280.23	25.948
280.60	23.017
280.97	24.769
281.34	25.133
281.71	24.727
282.08	26.488
282.45	24.364
282.82	22.558
283.19	22.460
283.56	22.632
283.92	24.196
284.29	22.575
284.66	22.868
285.03	21.881
285.40	24.296
285.77	24.242
286.14	22.971
286.51	23.333
286.87	22.564
287.24	22.638
287.61	22.632
287.98	22.078
288.35	22.662
288.72	21.184
289.08	23.787
289.45	22.735
289.82	21.463
290.19	20.722
290.56	22.052
290.93	20.695
291.29	21.012
291.66	19.912
292.03	22.820
292.40	22.173
292.77	19.527
293.13	20.896
293.50	20.845
293.87	18.519
294.24	21.333
294.60	17.904
294.97	21.802
295.34	19.605
295.71	18.608
296.08	18.946
296.44	18.157
296.81	19.022
297.18	20.596
297.55	17.414
297.91	19.789
298.28	22.088
298.65	18.407
299.02	20.158
299.38	18.194
299.75	17.116
300.12	18.646
300.48	18.125
300.85	17.139
301.22	16.688
301.59	18.056
301.95	17.884
302.32	17.073
302.69	17.563
303.05	16.970
303.42	16.543
303.79	17.554
304.15	16.200
304.52	16.454
304.89	16.841
305.25	15.777
305.62	18.007
305.99	17.473
306.35	17.114
306.72	17.377
307.09	17.092
307.45	17.568
307.82	15.737
308.19	18.102
308.55	15.858
308.92	17.723
309.29	16.262
309.65	16.861
310.02	17.442
310.38	16.667
310.75	17.846
311.12	17.707
311.48	17.868
311.85	18.344
312.22	17.898
312.58	17.048
312.95	18.163
313.31	16.408
313.68	19.231
314.05	19.724
314.41	18.995
314.78	19.436
315.14	19.563
315.51	20.082
315.87	20.693
316.24	20.060
316.61	20.078
316.97	19.667
317.34	20.254
317.70	21.606
318.07	21.174
318.43	21.624
318.80	21.837
319.16	23.352
319.53	22.326
319.89	24.190
320.26	24.000
320.62	24.008
320.99	25.657
321.35	25.152
321.72	25.667
322.08	25.568
322.45	28.756
322.81	27.616
323.18	27.071
323.54	27.551
323.91	27.170
324.27	27.725
324.64	27.679
325.00	29.125
325.37	29.936
325.73	32.226
326.10	30.009
326.46	31.004
326.83	33.305
327.19	33.646
327.56	32.840
327.92	32.896
328.29	35.138
328.65	35.083
329.01	35.289
329.38	35.060
329.74	34.811
330.11	34.496
330.47	37.374
330.84	37.776
331.20	37.523
331.56	37.156
331.93	37.037
332.29	36.912
332.66	36.903
333.02	39.214
333.38	37.037
333.75	36.364
334.11	37.900
334.48	38.243
334.84	37.960
335.20	39.364
335.57	38.078
335.93	39.286
336.29	39.103
336.66	40.397
337.02	38.371
337.38	40.185
337.75	39.750
338.11	39.749
338.47	41.068
338.84	40.238
339.20	41.009
339.56	41.241
339.93	41.455
340.29	40.761
340.65	41.444
341.02	40.663
341.38	40.836
341.74	40.526
342.11	40.349
342.47	40.881
342.83	40.240
343.20	40.779
343.56	40.522
343.92	39.737
344.28	41.241
344.65	41.187
345.01	40.320
345.37	41.595
345.73	41.624
346.10	41.432
346.46	41.780
346.82	40.857
347.19	41.520
347.55	40.066
347.91	40.615
348.27	41.906
348.63	41.054
349.00	40.696
349.36	40.887
349.72	40.658
350.08	40.438
350.45	41.741
350.81	41.105
351.17	40.843
351.53	42.260
351.89	41.502
352.26	41.515
352.62	42.261
352.98	41.815
353.34	42.235
353.70	41.899
354.07	41.774
354.43	40.397
354.79	40.708
355.15	41.500
355.51	43.165
355.87	41.959
356.24	41.938
356.60	40.497
356.96	42.076
357.32	41.946
357.68	42.913
358.04	40.618
358.40	41.251
358.77	42.175
359.13	42.226
359.49	42.039
359.85	41.905
360.21	42.105
360.57	43.035
360.93	41.923
361.29	41.875
361.66	40.325
362.02	42.388
362.38	41.673
362.74	41.964
363.10	41.525
363.46	41.159
363.82	41.950
364.18	41.189
364.54	42.348
364.90	41.289
365.26	42.206
365.62	42.732
365.98	41.125
366.35	40.759
366.71	41.432
367.07	41.879
367.43	42.308
367.79	42.041
368.15	43.175
368.51	41.279
368.87	41.613
369.23	42.575
369.59	41.781
369.95	40.956
370.31	42.165
370.67	40.870
371.03	42.172
371.39	41.254
371.75	41.544
372.11	41.465
372.47	42.302
372.83	43.876
373.19	40.462
373.55	42.942
373.91	43.520
374.27	40.962
374.63	41.818
374.99	41.737
375.35	41.103
375.71	41.398
376.07	42.318
376.42	41.953
376.78	42.015
377.14	41.248
377.50	41.523
377.86	41.423
378.22	42.099
378.58	40.351
378.94	40.163
379.30	41.603
379.66	41.117
380.02	40.541
380.38	41.105
380.74	40.876
381.09	41.198
381.45	41.242
381.81	41.830
382.17	40.828
382.53	41.761
382.89	40.988
383.25	40.650
383.61	40.830
383.97	41.088
384.32	40.861
384.68	39.963
385.04	40.565
385.40	40.619
385.76	40.663
386.12	40.609
386.48	40.780
386.83	40.795
387.19	41.373
387.55	39.951
387.91	38.996
388.27	39.853
388.62	40.443
388.98	39.066
389.34	40.551
389.70	40.650
390.06	39.987
390.42	40.921
390.77	40.076
391.13	40.970
391.49	40.228
391.85	39.911
392.20	38.801
392.56	40.720
392.92	39.670
393.28	39.290
393.64	39.269
393.99	38.974
394.35	39.578
394.71	39.147
395.07	38.505
395.42	39.308
395.78	39.059
396.14	38.672
396.50	39.474
396.85	40.114
397.21	38.471
397.57	38.810
397.92	38.462
398.28	37.780
398.64	38.053
399.00	38.109
399.35	36.774
399.71	38.079
400.07	39.208
400.42	37.546
400.78	37.153
401.14	37.744
401.49	39.045
401.85	38.052
402.21	37.784
402.57	38.186
402.92	37.201
403.28	37.789
403.63	37.252
403.99	37.516
404.35	37.152
404.70	37.650
405.06	36.692
405.42	36.993
405.77	36.114
406.13	36.061
406.49	37.256
406.84	37.035
407.20	36.939
407.55	37.013
407.91	37.200
408.27	37.077
408.62	36.665
408.98	36.949
409.34	35.978
409.69	37.355
410.05	35.688
410.40	35.474
410.76	35.305
411.11	36.610
411.47	36.102
411.83	35.797
412.18	35.993
412.54	36.177
412.89	35.060
413.25	35.301
413.60	36.504
413.96	35.398
414.31	35.662
414.67	35.298
415.03	35.166
415.38	36.469
415.74	35.820
416.09	36.512
416.45	35.944
416.80	34.964
417.16	36.461
417.51	35.169
417.87	34.682
418.22	35.268
418.58	35.249
418.93	34.337
419.29	35.010
419.64	36.083
420.00	34.024
420.35	34.551
420.71	34.967
421.06	34.308
421.42	33.801
421.77	34.249
422.12	34.475
422.48	32.866
422.83	33.838
423.19	33.702
423.54	34.010
423.90	33.855
424.25	34.171
424.61	33.929
424.96	33.994
425.31	34.109
425.67	33.315
426.02	34.000
426.38	34.066
426.73	33.002
427.09	33.617
427.44	33.295
427.79	33.640
428.15	33.452
428.50	33.645
428.85	33.552
429.21	33.352
429.56	34.007
429.92	32.964
430.27	32.075
430.62	31.746
430.98	33.212
431.33	33.041
431.68	32.408
432.04	33.067
432.39	33.067
432.74	34.231
433.10	32.994
433.45	33.936
433.80	33.038
434.16	32.959
434.51	32.579
434.86	32.839
435.22	32.963
435.57	33.191
435.92	32.124
436.28	34.282
436.63	33.002
436.98	33.028
437.34	32.916
437.69	33.372
438.04	32.490
438.39	33.313
438.75	32.655
439.10	31.117
439.45	33.353
439.81	32.568
440.16	31.846
440.51	32.865
440.86	32.600
441.22	31.869
441.57	32.166
441.92	32.344
442.27	32.400
442.63	31.754
442.98	32.451
443.33	31.739
443.68	31.131
444.03	31.674
444.39	30.818
444.74	31.548
445.09	32.022
445.44	31.875
445.79	31.222
446.15	32.028
446.50	31.233
446.85	31.244
447.20	31.820
447.55	32.663
447.91	31.109
448.26	31.386
448.61	31.148
448.96	31.174
449.31	31.440
449.66	31.120
450.02	31.198
450.37	31.122
450.72	31.528
451.07	30.408
451.42	30.578
451.77	31.063
452.12	30.370
452.47	31.965
452.83	31.177
453.18	31.907
453.53	32.220
453.88	31.128
454.23	30.962
454.58	31.193
454.93	32.613
455.28	31.359
455.63	30.886
455.98	32.321
456.34	32.286
456.69	31.434
457.04	31.269
457.39	30.976
457.74	31.109
458.09	30.765
458.44	30.274
458.79	29.881
459.14	30.643
459.49	30.064
459.84	30.249
460.19	30.171
460.54	30.035
460.89	30.773
461.24	30.723
461.59	31.319
461.94	30.826
462.29	30.445
462.64	30.568
462.99	29.603
463.34	31.200
463.69	30.394
464.04	30.087
464.39	30.841
464.74	30.957
465.09	29.192
465.44	29.584
465.79	29.418
466.14	29.885
466.49	28.977
466.84	29.539
467.19	29.632
467.54	29.625
467.89	28.992
468.24	29.145
468.59	29.670
468.94	28.345
469.29	30.784
469.64	31.124
469.99	30.176
470.34	29.260
470.68	31.394
471.03	30.340
471.38	30.716
471.73	30.646
472.08	29.934
472.43	29.585
472.78	29.822
473.13	29.718
473.48	29.900
473.83	30.976
474.17	28.998
474.52	30.645
474.87	29.656
475.22	30.470
475.57	27.888
475.92	28.731
476.27	28.861
476.61	28.461
476.96	28.532
477.31	28.310
477.66	28.829
478.01	28.123
478.36	28.609
478.70	29.128
479.05	29.073
479.40	28.864
479.75	28.266
480.10	27.535
480.45	27.939
480.79	27.616
481.14	28.767
481.49	28.334
481.84	27.984
482.19	27.578
482.53	27.890
482.88	27.222
483.23	27.477
483.58	27.343
483.92	28.257
484.27	26.928
484.62	27.112
484.97	26.567
485.31	26.507
485.66	24.533
486.01	23.931
486.36	22.768
486.70	22.035
487.05	23.681
487.40	23.672
487.75	23.905
488.09	24.841
488.44	24.683
488.79	26.872
489.13	26.318
489.48	27.039
489.83	26.413
490.17	28.146
490.52	27.192
490.87	26.911
491.22	27.376
491.56	26.697
491.91	26.943
492.26	26.596
492.60	26.406
492.95	27.409
493.30	26.355
493.64	28.231
493.99	27.252
494.34	27.845
494.68	27.473
495.03	26.739
495.37	26.896
495.72	27.680
496.07	27.146
496.41	25.929
496.76	26.605
497.11	26.700
497.45	26.875
497.80	26.631
498.14	27.101
498.49	27.366
498.84	27.133
499.18	26.857
499.53	26.686
499.87	26.887
500.22	27.367
500.56	27.330
500.91	26.346
501.26	26.600
501.60	27.480
501.95	26.673
502.29	26.429
502.64	26.257
502.98	26.741
503.33	26.051
503.67	26.079
504.02	26.427
504.36	26.345
504.71	26.136
505.06	26.602
505.40	25.912
505.75	26.037
506.09	25.899
506.44	25.851
506.78	26.449
507.13	26.704
507.47	27.071
507.82	27.710
508.16	27.305
508.51	27.093
508.85	26.167
509.19	27.806
509.54	26.633
509.88	26.533
510.23	26.889
510.57	26.987
510.92	27.343
511.26	25.899
511.61	27.386
511.95	26.461
512.30	27.572
512.64	27.136
512.98	26.688
513.33	27.570
513.67	26.841
514.02	26.299
514.36	26.871
514.70	27.338
515.05	28.444
515.39	28.099
515.74	27.703
516.08	27.781
516.42	27.802
516.77	27.871
517.11	26.915
517.46	28.386
517.80	28.571
518.14	26.983
518.49	27.655
518.83	26.818
519.17	27.887
519.52	27.165
519.86	27.382
520.20	28.092
520.55	29.443
520.89	28.528
521.23	28.408
521.58	28.271
521.92	28.414
522.26	26.541
522.61	28.910
522.95	28.300
523.29	27.815
523.64	28.354
523.98	28.712
524.32	28.227
524.66	28.322
525.01	27.880
525.35	27.323
525.69	27.771
526.04	27.850
526.38	27.822
526.72	27.791
527.06	28.876
527.41	27.475
527.75	28.553
528.09	29.094
528.43	28.107
528.78	28.211
529.12	27.333
529.46	28.230
529.80	28.094
530.15	28.723
530.49	27.508
530.83	28.228
531.17	28.916
531.51	29.313
531.86	28.194
532.20	28.422
532.54	28.956
532.88	27.856
533.22	26.796
533.57	27.716
533.91	26.370
534.25	27.582
534.59	27.029
534.93	27.305
535.27	27.399
535.62	27.717
535.96	27.558
536.30	27.972
536.64	27.560
536.98	27.339
537.32	27.650
537.66	27.333
538.01	27.979
538.35	27.666
538.69	28.334
539.03	27.031
539.37	27.029
539.71	26.636
540.05	27.124
540.39	27.375
540.73	26.585
541.07	27.515
541.42	26.941
541.76	28.452
542.10	27.296
542.44	27.152
542.78	28.788
543.12	26.552
543.46	27.016
543.80	27.586
544.14	27.086
544.48	27.365
544.82	26.491
545.16	26.805
545.50	26.992
545.84	27.016
546.18	27.475
546.52	27.460
546.86	26.942
547.20	27.444
547.54	27.722
547.88	27.296
548.22	25.716
548.56	26.981
548.90	26.761
549.24	27.744
549.58	27.149
549.92	27.610
550.26	28.125
550.60	26.694
550.94	27.535
551.28	27.286
551.62	27.462
551.96	27.158
552.30	27.372
552.64	27.316
552.98	27.729
553.32	27.040
553.66	27.676
554.00	27.248
554.34	27.398
554.68	28.183
555.02	27.786
555.36	27.557
555.69	26.522
556.03	27.322
556.37	26.739
556.71	26.398
557.05	27.521
557.39	27.432
557.73	27.735
558.07	27.991
558.41	28.003
558.75	28.361
559.08	28.262
559.42	28.193
559.76	27.279
560.10	26.624
560.44	26.974
560.78	27.013
561.12	26.055
561.45	26.402
561.79	27.225
562.13	27.163
562.47	26.366
562.81	26.709
563.15	26.823
563.48	26.989
563.82	26.288
564.16	25.703
564.50	26.107
564.84	25.411
565.17	26.126
565.51	26.454
565.85	26.396
566.19	25.673
566.52	25.902
566.86	25.678
567.20	25.413
567.54	25.571
567.88	24.389
568.21	24.762
568.55	23.660
568.89	23.687
569.23	23.173
569.56	22.267
569.90	21.887
570.24	21.564
570.57	20.605
570.91	20.136
571.25	20.445
571.59	19.882
571.92	20.276
572.26	20.277
572.60	20.450
572.93	19.850
573.27	19.876
573.61	20.128
573.95	19.457
574.28	19.623
574.62	18.878
574.96	19.116
575.29	18.768
575.63	19.055
575.97	18.693
576.30	19.251
576.64	19.030
576.98	19.276
577.31	18.554
577.65	18.740
577.98	18.496
578.32	17.613
578.66	17.925
578.99	18.489
579.33	18.494
579.67	18.146
580.00	18.940
580.34	18.747
580.67	18.766
581.01	18.754
581.35	18.450
581.68	18.096
582.02	17.614
582.35	17.613
582.69	18.078
583.02	17.995
583.36	18.607
583.70	18.881
584.03	18.835
584.37	18.999
584.70	19.122
585.04	19.203
585.37	18.593
585.71	18.820
586.04	18.265
586.38	19.018
586.72	19.553
587.05	18.718
587.39	18.549
587.72	18.810
588.06	18.943
588.39	19.643
588.73	18.950
589.06	19.819
589.40	20.135
589.73	20.099
590.07	20.463
590.40	20.497
590.73	20.921
591.07	21.164
591.40	21.383
591.74	22.597
592.07	21.553
592.41	21.372
592.74	20.225
593.08	20.220
593.41	19.677
593.75	19.207
594.08	20.148
594.41	20.643
594.75	20.518
595.08	20.115
595.42	20.455
595.75	20.513
596.09	21.066
596.42	21.572
596.75	21.444
597.09	21.905
597.42	20.616
597.75	20.526
598.09	21.435
598.42	20.533
598.76	20.673
599.09	20.677
599.42	20.670
599.76	21.010
600.09	19.599
600.42	20.307
600.76	19.393
601.09	19.745
601.42	20.662
601.76	20.190
602.09	20.830
602.42	20.263
602.76	20.838
603.09	21.007
603.42	20.734
603.76	20.122
604.09	20.085
604.42	20.587
604.76	21.763
605.09	21.363
605.42	21.163
605.75	21.026
606.09	20.740
606.42	21.169
606.75	20.946
607.09	20.804
607.42	21.267
607.75	20.211
608.08	21.233
608.42	21.381
608.75	21.641
609.08	21.184
609.41	22.037
609.75	22.058
610.08	21.725
610.41	21.788
610.74	21.334
611.07	21.245
611.41	22.031
611.74	22.926
612.07	23.240
612.40	22.403
612.73	23.474
613.07	23.222
613.40	23.328
613.73	22.024
614.06	22.473
614.39	21.605
614.72	23.158
615.06	22.689
615.39	22.081
615.72	22.802
616.05	22.329
616.38	22.957
616.71	23.753
617.05	24.028
617.38	23.031
617.71	23.003
618.04	23.918
618.37	24.187
618.70	24.953
619.03	23.947
619.36	25.662
619.69	25.352
620.03	25.755
620.36	25.267
620.69	25.411
621.02	25.442
621.35	25.764
621.68	25.623
622.01	25.929
622.34	26.702
622.67	26.008
623.00	25.238
623.33	24.303
623.66	25.018
623.99	25.773
624.32	25.963
624.65	24.647
624.99	25.425
625.32	24.982
625.65	25.845
625.98	26.518
626.31	26.594
626.64	25.959
626.97	27.348
627.30	28.013
627.63	27.564
627.96	27.670
628.29	27.297
628.62	28.911
628.95	29.717
629.28	29.106
629.61	29.331
629.94	29.143
630.26	28.885
630.59	29.552
630.92	29.310
631.25	29.418
631.58	29.630
631.91	31.339
632.24	30.380
632.57	30.115
632.90	31.250
633.23	32.215
633.56	32.881
633.89	32.729
634.22	30.647
634.55	33.373
634.88	31.976
635.20	29.630
635.53	31.928
635.86	32.550
636.19	31.882
636.52	32.526
636.85	32.875
637.18	31.221
637.51	33.452
637.83	30.826
638.16	32.225
638.49	32.242
638.82	33.375
639.15	31.625
639.48	34.165
639.81	32.976
640.13	33.464
640.46	33.423
640.79	32.893
641.12	33.287
641.45	32.682
641.77	34.021
642.10	35.526
642.43	33.784
642.76	34.985
643.09	35.736
643.41	35.053
643.74	37.191
644.07	35.518
644.40	35.890
644.73	36.535
645.05	38.827
645.38	35.387
645.71	35.588
646.04	39.037
646.36	38.397
646.69	36.789
647.02	39.116
647.35	36.942
647.67	38.230
648.00	36.748
648.33	38.284
648.66	35.152
648.98	35.082
649.31	33.632
649.64	35.426
649.96	33.085
650.29	37.441
650.62	35.113
650.94	36.143
651.27	35.642
651.60	36.273
651.92	34.026
652.25	32.248
652.58	33.956
652.90	35.703
653.23	33.898
653.56	33.701
653.88	34.231
654.21	36.651
654.54	36.469
654.86	36.137
655.19	31.486
655.52	19.605
655.84	14.133
656.17	17.407
656.49	23.063
656.82	23.086
657.15	17.283
657.47	12.899
657.80	10.018
658.13	10.369
658.45	15.540
658.78	15.748
659.10	17.151
659.43	19.027
659.75	19.920
660.08	23.481
660.41	27.281
660.73	33.037
661.06	33.439
661.38	40.182
661.71	37.885
662.03	42.012
662.36	38.966
662.68	39.357
663.01	39.192
663.33	41.401
663.66	41.387
663.98	40.821
664.31	36.765
664.63	40.283
664.96	37.425
665.28	40.779
665.61	37.622
665.93	38.028
666.26	40.771
666.58	39.958
666.91	41.860
667.23	43.371
667.56	38.229
667.88	40.171
668.21	41.365
668.53	40.564
668.86	40.693
669.18	40.085
669.50	40.435
669.83	44.662
670.15	40.222
670.48	39.434
670.80	40.733
671.13	41.189
671.45	39.787
671.77	38.289
672.10	37.708
672.42	36.396
672.75	34.826
673.07	35.035
673.39	35.262
673.72	35.352
674.04	39.216
674.37	38.252
674.69	38.037
675.01	38.075
675.34	40.041
675.66	40.632
675.98	42.159
676.31	40.756
676.63	39.490
676.95	38.365
677.28	39.486
677.60	38.462
677.92	43.038
678.25	40.246
678.57	38.645
678.89	38.277
679.22	39.096
679.54	38.168
679.86	35.596
680.18	34.168
680.51	34.043
680.83	36.655
681.15	34.717
681.48	38.941
681.80	36.364
682.12	32.759
682.44	36.170
682.77	37.678
683.09	41.202
683.41	39.024
683.73	39.294
684.06	39.463
684.38	36.791
684.70	34.884
685.02	37.899
685.34	34.432
685.67	33.392
685.99	31.443
686.31	33.447
686.63	31.625
686.96	33.929
687.28	36.462
687.60	33.333
687.92	35.832
688.24	36.312
688.56	35.743
688.89	36.515
689.21	38.210
689.53	36.952
689.85	41.463
690.17	37.060
690.49	38.004
690.82	38.551
691.14	36.607
691.46	38.608
691.78	35.944
692.10	36.570
692.42	37.725
692.74	34.025
693.06	35.319
693.39	38.604
693.71	35.808
694.03	34.737
694.35	36.580
694.67	39.588
694.99	44.634
695.31	42.647
695.63	38.517
695.95	40.342
696.27	37.310
696.59	37.306
696.91	43.523
697.23	38.732
697.56	36.247
697.88	33.538
698.20	36.042
698.52	37.634
698.84	38.530
699.16	35.945
699.48	40.380
699.80	38.164
700.12	44.416
700.44	40.053
700.76	44.751
701.08	42.816
701.40	46.927
701.72	45.773
702.04	43.182
702.36	40.227
702.68	41.926
703.00	40.997
703.32	40.160
703.64	41.823
703.96	41.783
704.28	42.151
704.60	42.815
704.91	44.807
705.23	44.575
705.55	49.169
705.87	49.169
706.19	48.057
706.51	47.040
706.83	44.242
707.15	43.137
707.47	37.879
707.79	35.872
708.11	34.475
708.43	35.476
708.74	36.735
709.06	38.961
709.38	41.995
709.70	41.279
710.02	45.697
710.34	44.848
710.66	44.776
710.98	43.466
711.29	46.221
711.61	43.953
711.93	42.949
712.25	45.981
712.57	47.426
712.89	45.329
713.20	44.377
713.52	49.013
713.84	43.671
714.16	39.634
714.48	37.644
714.80	45.593
715.11	42.363
715.43	43.917
715.75	42.609
716.07	41.534
716.39	43.887
716.70	45.515
717.02	47.482
717.34	46.996
717.66	50.746
717.97	54.980
718.29	49.630
718.61	51.095
718.93	45.588
719.24	45.329
719.56	43.729
719.88	38.983
720.20	47.973
720.51	47.038
720.83	45.725
721.15	45.522
721.46	43.972
721.78	47.312
722.10	48.302
722.42	46.241
722.73	50.936
723.05	43.852
723.37	49.798
723.68	47.876
724.00	49.187
724.32	50.403
724.63	52.846
724.95	48.954
725.27	48.178
725.58	51.563
725.90	47.445
726.22	49.434
726.53	45.486
726.85	43.686
727.16	48.043
727.48	42.199
727.80	45.455
728.11	44.565
728.43	48.077
728.74	45.520
729.06	47.080
729.38	50.000
729.69	45.552
730.01	40.614
730.32	39.583
730.64	44.482
730.96	37.294
731.27	43.377
731.59	41.284
731.90	40.233
732.22	40.373
732.53	39.009
732.85	40.385
733.16	37.942
733.48	44.850
733.80	41.558
734.11	39.172
734.43	39.941
734.74	38.000
735.06	35.817
735.37	42.197
735.69	39.172
736.00	46.405
736.32	41.433
736.63	42.492
736.95	39.936
737.26	35.714
737.58	36.129
737.89	42.140
738.21	42.321
738.52	42.500
738.83	39.245
739.15	45.000
739.46	45.255
739.78	40.625
740.09	40.308
740.41	39.355
740.72	40.070
741.04	42.593
741.35	47.500
741.66	58.222
741.98	49.528
742.29	56.938
742.61	57.328
742.92	50.679
743.23	50.427
743.55	48.800
743.86	46.930
744.18	50.885
744.49	53.110
744.80	51.643
745.12	58.182
745.43	52.863
745.74	52.703
746.06	48.624
746.37	55.157
746.68	49.321
747.00	54.167
747.31	54.762
747.62	52.655
747.94	48.458
748.25	45.957
748.56	53.744
748.88	48.515
749.19	60.500
749.50	53.488
749.82	42.683
750.13	42.857
750.44	43.796
750.75	47.368
751.07	41.158
751.38	43.206
751.69	43.321
752.01	44.361
752.32	42.599
752.63	44.326
752.94	46.311
753.26	49.200
753.57	45.122
753.88	47.266
754.19	43.571
754.51	42.361
754.82	38.989
755.13	46.415
755.44	50.376
755.75	43.066
756.07	42.908
756.38	39.781
756.69	40.940
757.00	42.814
757.31	37.389
757.63	34.503
757.94	31.903
758.25	35.539
758.56	32.593
758.87	36.022
759.18	36.970
759.50	37.618
759.81	39.875
760.12	37.187
760.43	36.963
760.74	35.054
761.05	37.571
761.36	40.909
761.67	37.216
761.99	36.646
762.30	42.708
762.61	38.931
762.92	46.094
763.23	44.538
763.54	46.800
763.85	41.797
764.16	46.154
764.47	42.966
764.78	37.809
765.10	33.861
765.41	35.103
765.72	37.725
766.03	38.558
766.34	38.000
766.65	48.085
766.96	44.872
767.27	54.315
767.58	59.896
767.89	56.842
768.20	59.770
768.51	48.731
768.82	43.119
769.13	43.496
769.44	43.320
769.75	44.206
770.06	44.037
770.37	51.584
770.68	51.389
770.99	41.778
771.30	41.803
771.61	51.121
771.92	43.033
772.23	48.319
772.54	55.385
772.85	48.691
773.16	51.596
773.47	57.065
773.78	59.391
774.09	57.738
774.39	53.216
774.70	62.346
775.01	65.942
775.32	62.745
775.63	64.474
775.94	61.151
776.25	65.354
776.56	68.657
776.87	66.393
777.18	72.656
777.48	67.176
777.79	67.424
778.10	64.444
778.41	81.250
778.72	63.504
779.03	69.128
779.34	58.389
779.65	57.432
779.95	56.442
780.26	64.706
780.57	65.517
780.88	77.344
781.19	60.150
781.50	64.865
781.80	56.604
782.11	51.412
782.42	50.633
782.73	57.055
783.04	66.216
783.34	64.789
783.65	65.753
783.96	68.657
784.27	55.944
784.57	59.712
784.88	59.259
785.19	69.841
785.50	76.415
785.81	73.134
786.11	69.672
786.42	66.667
786.73	71.681
787.04	78.302
787.34	78.571
787.65	84.000
787.96	74.775
788.26	59.504
788.57	73.729
788.88	69.421
789.19	63.194
789.49	67.424
789.80	65.649
790.11	86.667
790.41	78.218
790.72	89.157
791.03	90.217
791.33	65.116
791.64	77.320
791.95	76.238
792.25	101.111
792.56	94.805
792.87	106.410
793.17	101.266
793.48	94.253
793.79	96.552
794.09	88.636
794.40	75.630
794.70	66.176
795.01	56.296
795.32	60.432
795.62	66.142
795.93	63.793
796.23	77.876
796.54	78.824
796.85	91.892
797.15	104.225
797.46	122.727
797.76	95.181
798.07	96.203
798.37	115.385
798.68	96.970
798.99	101.408
799.29	81.818
799.60	95.455
799.90	119.178
800.21	104.478
800.51	129.310
800.82	133.333
801.12	114.754
801.43	115.152
801.73	93.243
802.04	125.397
802.34	83.951
802.65	120.313
802.95	130.508
803.26	128.125
803.56	100.000
803.87	98.462
804.17	110.294
804.48	120.370
804.78	115.517
805.09	120.588
805.39	142.308
805.70	137.500
806.00	111.475
806.30	95.455
806.61	90.244
806.91	101.266
807.22	102.632
807.52	94.030
807.83	105.634
808.13	123.438
808.43	113.333
808.74	101.316
809.04	105.797
809.35	105.970
809.65	96.053
809.95	120.968
810.26	120.339
810.56	115.873
810.86	161.364
811.17	180.952
811.47	121.667
811.77	118.519
812.08	143.636
812.38	144.000
812.69	188.889
812.99	165.909
813.29	122.449
813.59	135.714
813.90	151.020
814.20	130.909
814.50	98.462
814.81	117.647
815.11	128.571
815.41	121.311
815.72	180.952
816.02	141.818
816.32	171.429
816.62	152.500
816.93	156.098
817.23	173.810
817.53	159.091
817.84	212.121
818.14	136.957
818.44	151.111
818.74	182.353
819.04	152.500
819.35	165.714
819.65	200.000
819.95	160.714
820.25	340.000
820.56	197.436
820.86	163.636
821.16	174.419
821.46	148.718
821.76	152.000
822.07	200.000
822.37	162.500
822.67	172.727
822.97	129.412
823.27	214.286
823.57	167.568
823.88	195.000
824.18	183.333
824.48	185.714
824.78	236.000
825.08	179.167
825.38	172.973
825.69	173.171
825.99	233.333
826.29	210.345
826.59	197.368
826.89	163.158
827.19	200.000
827.49	209.677
827.79	170.455
828.09	152.273
828.39	142.553
828.70	157.143
829.00	185.185
829.30	190.323
829.60	175.000
829.90	333.333
830.20	235.714
830.50	243.478
830.80	269.565
831.10	226.667
831.40	223.333
831.70	243.478
832.00	265.385
832.30	200.000
832.60	406.250
832.90	250.000
833.20	492.857
833.50	190.323
833.80	224.138
834.10	215.625
834.40	261.538
834.70	338.889
835.00	347.619
835.30	168.571
835.60	361.538
835.90	206.897
836.20	442.857
836.50	172.414
836.80	216.000
837.10	186.111
837.40	300.000
837.70	335.294
838.00	225.926
838.30	285.714
838.60	328.571
838.90	261.538
839.19	280.000
839.49	421.429
839.79	345.000
840.09	310.000
840.39	319.048
840.69	300.000
840.99	322.222
841.29	560.000
841.59	416.667
841.88	412.500
842.18	210.345
842.48	323.810
842.78	230.000
843.08	265.217
843.38	203.125
843.68	883.333
843.97	269.231
844.27	224.138
844.57	300.000
844.87	400.000
845.17	259.259
845.47	1600.000
845.76	488.889
846.06	329.412
846.36	725.000
846.66	414.286
846.96	368.750
847.25	463.636
847.55	463.636
847.85	247.826
848.15	610.000
848.44	407.143
848.74	261.111
849.04	335.294
849.34	570.000
849.63	284.211
849.93	554.545
850.23	1160.000
850.53	464.286
850.82	2900.000
851.12	-5900.000
851.42	5700.000
851.71	385.000
852.01	-1333.333
852.31	262.500
852.61	1966.667
852.90	290.476
853.20	248.000
853.50	347.059
853.79	295.238
854.09	245.833
854.39	400.000
854.68	175.676
854.98	200.000
855.28	190.000
855.57	217.241
855.87	233.333
856.17	357.895
856.46	320.000
856.76	347.059
857.05	231.034
857.35	241.667
857.65	340.000
857.94	269.565
858.24	207.692
858.53	315.000
858.83	281.818
859.13	400.000
859.42	0.000
859.72	666.667
860.01	472.727
860.31	268.182
860.60	300.000
860.90	291.304
861.20	655.556
861.49	508.333
861.79	-4900.000
862.08	687.500
862.38	280.952
862.67	353.846
862.97	358.824
863.26	611.111
863.56	244.444
863.85	466.667
864.15	537.500
864.44	393.333
864.74	750.000
865.03	687.500
865.33	342.105
865.62	490.909
865.92	446.154
866.21	375.000
866.51	0.000
866.80	436.364
867.10	1260.000
867.39	461.538
867.69	518.182
867.98	278.947
868.27	545.455
868.57	305.263
868.86	-5300.000
869.16	418.750
869.45	2450.000
869.75	-4700.000
870.04	450.000
870.33	800.000
870.63	1075.000
870.92	2900.000
871.22	871.429
871.51	388.235
871.80	242.857
872.10	421.429
>>>>>End Processed Spectral Data<<<<<
