SpectraSuite Data File
++++++++++++++++++++++++++++++++++++
Date: Wed May 13 19:10:42 PDT 2015
User: schluterlab
Dark Spectrum Present: Yes
Reference Spectrum Present: Yes
Number of Sampled Component Spectra: 1
Spectrometers: USB2E3373
Integration Time (usec): 3000 (USB2E3373)
Spectra Averaged: 3 (USB2E3373)
Boxcar Smoothing: 0 (USB2E3373)
Correct for Electrical Dark: No (USB2E3373)
Strobe/Lamp Enabled: No (USB2E3373)
Correct for Detector Non-linearity: No (USB2E3373)
Correct for Stray Light: No (USB2E3373)
Number of Pixels in Processed Spectrum: 2048
>>>>>Begin Processed Spectral Data<<<<<
178.53	0.000
178.91	-1525.000
179.29	-1600.000
179.67	-255.556
180.04	-1550.000
180.42	3000.000
180.80	1160.000
181.18	-975.000
181.56	800.000
181.94	0.000
182.31	-871.429
182.69	1900.000
183.07	-650.000
183.45	-577.778
183.83	554.545
184.20	-550.000
184.58	2700.000
184.96	5800.000
185.34	-1020.000
185.72	-775.000
186.09	-2700.000
186.47	2950.000
186.85	3250.000
187.23	5600.000
187.61	-1866.667
187.98	1525.000
188.36	536.364
188.74	572.727
189.12	-1100.000
189.49	620.000
189.87	-5700.000
190.25	-1525.000
190.63	514.286
191.00	561.538
191.38	983.333
191.76	-1450.000
192.14	1600.000
192.51	750.000
192.89	983.333
193.27	750.000
193.65	-1375.000
194.02	560.000
194.40	1040.000
194.78	650.000
195.15	525.000
195.53	710.000
195.91	-2600.000
196.29	406.250
196.66	347.368
197.04	-400.000
197.42	0.000
197.79	680.000
198.17	-5600.000
198.55	742.857
198.92	862.500
199.30	1160.000
199.68	0.000
200.05	355.556
200.43	814.286
200.81	5300.000
201.18	2066.667
201.56	-1600.000
201.94	677.778
202.31	744.444
202.69	516.667
203.07	550.000
203.44	0.000
203.82	1450.000
204.19	1057.143
204.57	521.429
204.95	762.500
205.32	1900.000
205.70	709.091
206.08	407.143
206.45	3200.000
206.83	387.500
207.20	1066.667
207.58	1000.000
207.96	400.000
208.33	737.500
208.71	-966.667
209.08	857.143
209.46	655.556
209.84	663.636
210.21	-1766.667
210.59	1675.000
210.96	-587.500
211.34	3150.000
211.71	640.000
212.09	983.333
212.46	0.000
212.84	2066.667
213.22	1375.000
213.59	-4900.000
213.97	933.333
214.34	928.571
214.72	663.636
215.09	1320.000
215.47	-2900.000
215.84	-2850.000
216.22	2266.667
216.59	464.286
216.97	1250.000
217.34	481.818
217.72	-866.667
218.09	0.000
218.47	-5600.000
218.84	822.222
219.22	971.429
219.59	2000.000
219.97	-728.571
220.34	1140.000
220.72	-2233.333
221.09	414.286
221.47	1575.000
221.84	-1166.667
222.22	0.000
222.59	1725.000
222.97	-3000.000
223.34	1200.000
223.72	515.385
224.09	1360.000
224.46	2650.000
224.84	-5500.000
225.21	-1240.000
225.59	-4900.000
225.96	790.000
226.34	375.000
226.71	2700.000
227.08	800.000
227.46	650.000
227.83	-1475.000
228.21	-2700.000
228.58	733.333
228.95	-3150.000
229.33	-2550.000
229.70	1833.333
230.08	871.429
230.45	-900.000
230.82	500.000
231.20	883.333
231.57	800.000
231.95	525.000
232.32	272.727
232.69	572.727
233.07	700.000
233.44	415.385
233.81	-1833.333
234.19	326.316
234.56	508.333
234.93	416.667
235.31	563.636
235.68	453.846
236.05	450.000
236.43	200.000
236.80	363.158
237.17	6200.000
237.55	247.619
237.92	271.429
238.29	309.524
238.67	225.806
239.04	255.172
239.41	183.333
239.79	145.652
240.16	154.762
240.53	143.182
240.91	113.725
241.28	124.000
241.65	128.000
242.02	114.493
242.40	101.613
242.77	120.000
243.14	83.871
243.51	92.135
243.89	80.000
244.26	73.333
244.63	75.269
245.00	57.447
245.38	68.317
245.75	61.682
246.12	61.468
246.49	64.964
246.87	61.600
247.24	60.769
247.61	53.571
247.98	52.288
248.36	46.622
248.73	44.586
249.10	52.229
249.47	49.718
249.84	44.385
250.22	42.246
250.59	50.296
250.96	45.455
251.33	43.602
251.70	48.020
252.08	42.381
252.45	38.117
252.82	36.957
253.19	37.447
253.56	38.824
253.94	37.344
254.31	39.453
254.68	36.923
255.05	39.483
255.42	34.146
255.79	36.029
256.16	35.379
256.54	31.449
256.91	34.164
257.28	32.734
257.65	32.013
258.02	34.161
258.39	27.760
258.76	29.097
259.14	32.440
259.51	29.179
259.88	27.950
260.25	30.514
260.62	29.769
260.99	25.466
261.36	31.832
261.73	28.367
262.10	29.942
262.47	30.141
262.85	28.134
263.22	28.205
263.59	28.775
263.96	28.022
264.33	28.721
264.70	25.000
265.07	28.133
265.44	28.535
265.81	25.061
266.18	28.141
266.55	24.878
266.92	24.324
267.29	26.389
267.66	27.982
268.03	26.591
268.40	26.168
268.77	27.446
269.14	25.450
269.51	27.540
269.88	23.776
270.25	24.831
270.62	22.921
270.99	26.882
271.36	25.751
271.73	24.299
272.10	23.261
272.47	27.097
272.84	24.675
273.21	24.528
273.58	23.362
273.95	24.319
274.32	23.140
274.69	25.482
275.06	21.654
275.43	26.596
275.80	24.048
276.17	24.440
276.54	23.077
276.91	24.308
277.28	21.875
277.65	23.598
278.02	24.224
278.39	22.852
278.76	22.000
279.13	20.755
279.50	23.091
279.87	20.518
280.23	22.555
280.60	23.017
280.97	21.627
281.34	22.124
281.71	22.909
282.08	25.144
282.45	21.455
282.82	20.959
283.19	20.499
283.56	21.404
283.92	23.012
284.29	23.457
284.66	21.597
285.03	19.530
285.40	20.951
285.77	21.212
286.14	21.589
286.51	22.667
286.87	21.709
287.24	22.801
287.61	20.385
287.98	21.916
288.35	20.285
288.72	19.003
289.08	20.501
289.45	18.122
289.82	20.976
290.19	18.838
290.56	19.296
290.93	18.429
291.29	20.399
291.66	20.944
292.03	21.221
292.40	20.852
292.77	19.083
293.13	20.000
293.50	18.222
293.87	18.815
294.24	17.333
294.60	17.176
294.97	19.186
295.34	18.477
295.71	17.330
296.08	17.094
296.44	17.882
296.81	17.041
297.18	19.241
297.55	15.172
297.91	15.831
298.28	17.537
298.65	16.449
299.02	17.260
299.38	16.202
299.75	14.690
300.12	15.326
300.48	16.125
300.85	16.523
301.22	15.541
301.59	15.278
301.95	16.373
302.32	17.330
302.69	16.249
303.05	16.121
303.42	15.926
303.79	16.761
304.15	12.821
304.52	14.368
304.89	15.563
305.25	16.241
305.62	16.082
305.99	16.057
306.35	15.436
306.72	16.368
307.09	15.094
307.45	16.441
307.82	13.839
308.19	15.453
308.55	15.534
308.92	15.145
309.29	15.100
309.65	13.786
310.02	16.173
310.38	15.699
310.75	15.734
311.12	16.274
311.48	15.987
311.85	16.562
312.22	15.609
312.58	15.593
312.95	15.945
313.31	16.019
313.68	16.112
314.05	17.554
314.41	16.985
314.78	17.422
315.14	16.683
315.51	17.199
315.87	17.228
316.24	18.272
316.61	18.129
316.97	19.374
317.34	17.123
317.70	20.554
318.07	20.885
318.43	20.744
318.80	21.368
319.16	23.164
319.53	22.608
319.89	24.476
320.26	25.100
320.62	25.992
320.99	27.172
321.35	29.495
321.72	30.185
322.08	30.503
322.45	33.035
322.81	34.109
323.18	34.393
323.54	35.807
323.91	37.264
324.27	39.101
324.64	41.007
325.00	41.930
325.37	47.589
325.73	47.127
326.10	46.867
326.46	50.627
326.83	53.494
327.19	53.800
327.56	56.010
327.92	58.093
328.29	60.692
328.65	61.786
329.01	63.538
329.38	64.570
329.74	66.851
330.11	69.651
330.47	70.523
330.84	69.393
331.20	71.676
331.56	73.945
331.93	75.185
332.29	74.623
332.66	74.513
333.02	76.417
333.38	78.139
333.75	78.966
334.11	79.626
334.48	80.834
334.84	82.721
335.20	80.636
335.57	82.412
335.93	80.893
336.29	83.608
336.66	83.950
337.02	83.348
337.38	85.556
337.75	82.353
338.11	83.885
338.47	86.280
338.84	87.626
339.20	87.156
339.56	86.496
339.93	87.818
340.29	87.953
340.65	85.829
341.02	87.609
341.38	90.125
341.74	86.316
342.11	88.384
342.47	90.220
342.83	88.014
343.20	88.571
343.56	87.953
343.92	89.825
344.28	88.180
344.65	91.144
345.01	89.562
345.37	91.252
345.73	88.409
346.10	90.878
346.46	90.085
346.82	89.868
347.19	89.641
347.55	88.588
347.91	89.725
348.27	90.468
348.63	91.137
349.00	90.210
349.36	90.722
349.72	90.377
350.08	91.167
350.45	92.433
350.81	91.145
351.17	92.464
351.53	94.185
351.89	90.924
352.26	90.529
352.62	92.702
352.98	91.248
353.34	92.687
353.70	93.208
354.07	92.581
354.43	90.397
354.79	91.150
355.15	91.700
355.51	94.724
355.87	95.510
356.24	93.404
356.60	92.462
356.96	93.403
357.32	95.258
357.68	94.488
358.04	92.637
358.40	94.458
358.77	93.818
359.13	92.976
359.49	93.725
359.85	94.762
360.21	96.252
360.57	95.875
360.93	98.462
361.29	93.651
361.66	94.195
362.02	93.134
362.38	94.981
362.74	95.610
363.10	94.745
363.46	95.378
363.82	95.692
364.18	95.228
364.54	96.211
364.90	96.601
365.26	97.721
365.62	97.809
365.98	96.859
366.35	96.275
366.71	96.963
367.07	98.471
367.43	97.896
367.79	98.287
368.15	97.342
368.51	98.110
368.87	96.645
369.23	98.537
369.59	100.362
369.95	98.750
370.31	97.721
370.67	96.159
371.03	98.202
371.39	97.813
371.75	100.368
372.11	98.080
372.47	99.853
372.83	101.009
373.19	96.821
373.55	100.887
373.91	102.504
374.27	99.244
374.63	102.327
374.99	99.364
375.35	100.419
375.71	100.069
376.07	99.931
376.42	101.651
376.78	99.934
377.14	102.782
377.50	101.722
377.86	100.864
378.22	100.506
378.58	100.000
378.94	100.943
379.30	101.018
379.66	102.728
380.02	102.273
380.38	102.307
380.74	102.701
381.09	103.178
381.45	102.766
381.81	103.440
382.17	102.675
382.53	102.013
382.89	104.074
383.25	103.252
383.61	106.134
383.97	103.690
384.32	101.684
384.68	102.230
385.04	104.978
385.40	102.663
385.76	103.624
386.12	102.979
386.48	104.279
386.83	105.901
387.19	105.628
387.55	103.958
387.91	104.837
388.27	104.231
388.62	103.073
388.98	105.037
389.34	104.881
389.70	104.047
390.06	106.274
390.42	104.410
390.77	102.545
391.13	105.999
391.49	105.140
391.85	105.474
392.20	104.921
392.56	106.187
392.92	106.004
393.28	105.207
393.64	105.635
393.99	102.321
394.35	105.397
394.71	103.639
395.07	104.735
395.42	106.057
395.78	105.471
396.14	104.221
396.50	107.832
396.85	109.218
397.21	105.980
397.57	106.448
397.92	105.349
398.28	104.596
398.64	104.062
399.00	105.260
399.35	104.851
399.71	103.993
400.07	105.559
400.42	105.031
400.78	105.609
401.14	106.220
401.49	105.791
401.85	105.445
402.21	102.994
402.57	104.935
402.92	105.549
403.28	105.746
403.63	106.559
403.99	106.115
404.35	105.879
404.70	104.257
405.06	104.485
405.42	105.115
405.77	103.543
406.13	103.612
406.49	105.145
406.84	104.076
407.20	103.014
407.55	104.786
407.91	107.000
408.27	106.765
408.62	105.178
408.98	104.473
409.34	103.752
409.69	105.355
410.05	104.833
410.40	104.281
410.76	104.839
411.11	101.870
411.47	102.812
411.83	103.726
412.18	103.772
412.54	105.853
412.89	103.795
413.25	103.365
413.60	103.582
413.96	101.882
414.31	103.827
414.67	104.183
415.03	104.437
415.38	104.059
415.74	102.572
416.09	106.989
416.45	103.481
416.80	104.891
417.16	104.558
417.51	106.702
417.87	103.276
418.22	103.596
418.58	104.584
418.93	103.808
419.29	104.265
419.64	103.463
420.00	103.780
420.35	103.594
420.71	105.260
421.06	102.924
421.42	103.392
421.77	102.915
422.12	104.436
422.48	103.022
422.83	105.358
423.19	102.762
423.54	105.572
423.90	103.594
424.25	103.071
424.61	103.869
424.96	105.015
425.31	103.433
425.67	101.629
426.02	102.629
426.38	105.739
426.73	103.452
427.09	105.289
427.44	102.990
427.79	102.818
428.15	102.917
428.50	105.442
428.85	103.218
429.21	102.430
429.56	104.821
429.92	103.573
430.27	102.830
430.62	103.431
430.98	101.920
431.33	102.526
431.68	103.874
432.04	101.810
432.39	105.825
432.74	104.428
433.10	104.867
433.45	104.840
433.80	104.268
434.16	102.618
434.51	102.421
434.86	105.017
435.22	104.836
435.57	103.343
435.92	104.096
436.28	105.694
436.63	103.698
436.98	104.522
437.34	105.188
437.69	105.368
438.04	104.272
438.39	103.582
438.75	104.765
439.10	105.866
439.45	103.778
439.81	105.680
440.16	103.727
440.51	104.921
440.86	104.864
441.22	105.840
441.57	104.883
441.92	105.578
442.27	104.521
442.63	104.055
442.98	104.507
443.33	104.130
443.68	105.059
444.03	104.539
444.39	105.063
444.74	103.896
445.09	104.528
445.44	103.171
445.79	103.761
446.15	103.600
446.50	104.416
446.85	105.704
447.20	104.793
447.55	105.918
447.91	103.696
448.26	104.062
448.61	105.144
448.96	106.755
449.31	107.030
449.66	104.840
450.02	104.401
450.37	103.231
450.72	105.922
451.07	105.728
451.42	102.492
451.77	105.461
452.12	103.406
452.47	105.908
452.83	106.177
453.18	105.012
453.53	105.937
453.88	104.784
454.23	103.288
454.58	104.058
454.93	108.264
455.28	104.364
455.63	106.068
455.98	105.298
456.34	104.711
456.69	106.763
457.04	106.687
457.39	104.150
457.74	104.527
458.09	102.703
458.44	104.732
458.79	101.735
459.14	104.402
459.49	104.203
459.84	104.432
460.19	103.889
460.54	101.678
460.89	104.169
461.24	104.979
461.59	103.719
461.94	103.144
462.29	102.433
462.64	101.021
462.99	103.383
463.34	104.467
463.69	104.565
464.04	103.188
464.39	101.855
464.74	102.911
465.09	103.438
465.44	101.773
465.79	102.517
466.14	101.314
466.49	102.336
466.84	103.503
467.19	100.905
467.54	103.063
467.89	101.321
468.24	103.141
468.59	102.808
468.94	101.894
469.29	103.149
469.64	103.347
469.99	103.721
470.34	104.822
470.68	102.802
471.03	103.129
471.38	104.656
471.73	101.332
472.08	101.842
472.43	102.198
472.78	103.489
473.13	102.632
473.48	102.747
473.83	102.561
474.17	101.369
474.52	103.908
474.87	101.401
475.22	99.942
475.57	99.301
475.92	101.699
476.27	100.113
476.61	102.317
476.96	101.979
477.31	100.157
477.66	101.422
478.01	98.850
478.36	100.000
478.70	99.325
479.05	100.319
479.40	101.177
479.75	100.356
480.10	99.503
480.45	98.429
480.79	98.901
481.14	99.853
481.49	100.332
481.84	99.497
482.19	99.682
482.53	99.174
482.88	100.233
483.23	100.234
483.58	99.818
483.92	100.656
484.27	96.688
484.62	98.276
484.97	98.581
485.31	100.822
485.66	98.255
486.01	95.192
486.36	91.718
486.70	90.813
487.05	92.467
487.40	94.356
487.75	96.166
488.09	97.877
488.44	97.598
488.79	100.289
489.13	100.382
489.48	99.062
489.83	99.223
490.17	99.912
490.52	97.741
490.87	99.005
491.22	97.635
491.56	96.538
491.91	97.906
492.26	97.382
492.60	96.820
492.95	97.755
493.30	95.935
493.64	96.314
493.99	97.029
494.34	96.809
494.68	97.436
495.03	97.932
495.37	94.881
495.72	98.587
496.07	99.443
496.41	95.133
496.76	97.010
497.11	96.488
497.45	96.367
497.80	97.169
498.14	96.522
498.49	97.756
498.84	97.651
499.18	96.905
499.53	97.009
499.87	95.294
500.22	96.420
500.56	97.621
500.91	96.058
501.26	96.728
501.60	97.342
501.95	94.088
502.29	96.579
502.64	97.253
502.98	96.447
503.33	95.110
503.67	96.056
504.02	95.042
504.36	93.776
504.71	95.506
505.06	94.602
505.40	95.916
505.75	94.648
506.09	96.453
506.44	97.040
506.78	95.324
507.13	97.426
507.47	96.162
507.82	96.606
508.16	96.302
508.51	97.869
508.85	95.929
509.19	95.816
509.54	95.918
509.88	95.878
510.23	95.321
510.57	97.265
510.92	95.702
511.26	93.834
511.61	96.421
511.95	93.215
512.30	95.440
512.64	94.949
512.98	95.713
513.33	95.075
513.67	94.077
514.02	93.506
514.36	95.303
514.70	96.624
515.05	95.482
515.39	95.289
515.74	95.101
516.08	94.522
516.42	95.061
516.77	95.541
517.11	94.395
517.46	94.470
517.80	95.470
518.14	94.210
518.49	95.624
518.83	94.489
519.17	93.995
519.52	95.246
519.86	94.295
520.20	95.202
520.55	95.272
520.89	96.594
521.23	94.511
521.58	95.498
521.92	96.020
522.26	93.777
522.61	95.888
522.95	94.782
523.29	95.253
523.64	94.451
523.98	96.303
524.32	93.667
524.66	93.506
525.01	93.137
525.35	95.725
525.69	92.426
526.04	93.333
526.38	93.777
526.72	92.454
527.06	93.660
527.41	91.337
527.75	94.405
528.09	94.990
528.43	94.774
528.78	93.854
529.12	91.576
529.46	93.631
529.80	93.750
530.15	95.452
530.49	90.215
530.83	92.722
531.17	93.930
531.51	95.201
531.86	93.419
532.20	94.263
532.54	93.466
532.88	94.352
533.22	90.881
533.57	91.358
533.91	91.933
534.25	92.163
534.59	93.594
534.93	90.303
535.27	91.008
535.62	90.476
535.96	92.090
536.30	93.897
536.64	92.981
536.98	92.634
537.32	92.166
537.66	93.200
538.01	93.878
538.35	93.083
538.69	91.895
539.03	92.528
539.37	89.585
539.71	89.436
540.05	93.529
540.39	92.691
540.73	89.651
541.07	90.850
541.42	92.042
541.76	91.161
542.10	92.303
542.44	91.788
542.78	92.424
543.12	89.123
543.46	91.016
543.80	91.997
544.14	89.153
544.48	90.984
544.82	90.827
545.16	90.891
545.50	89.589
545.84	90.726
546.18	92.458
546.52	92.429
546.86	93.127
547.20	92.717
547.54	90.848
547.88	90.625
548.22	89.601
548.56	89.686
548.90	89.565
549.24	90.168
549.58	89.222
549.92	91.140
550.26	91.690
550.60	89.903
550.94	90.141
551.28	89.027
551.62	89.792
551.96	90.105
552.30	90.785
552.64	89.723
552.98	89.898
553.32	87.458
553.66	90.389
554.00	91.695
554.34	88.889
554.68	91.845
555.02	89.704
555.36	89.562
555.69	88.633
556.03	88.694
556.37	88.336
556.71	89.836
557.05	89.426
557.39	89.083
557.73	89.626
558.07	91.008
558.41	89.797
558.75	89.346
559.08	91.201
559.42	91.988
559.76	89.412
560.10	89.864
560.44	88.819
560.78	87.824
561.12	89.776
561.45	89.635
561.79	87.343
562.13	87.659
562.47	89.617
562.81	90.446
563.15	88.161
563.48	89.191
563.82	88.911
564.16	87.835
564.50	86.458
564.84	87.168
565.17	88.481
565.51	89.457
565.85	87.183
566.19	86.162
566.52	88.030
566.86	86.860
567.20	87.028
567.54	87.842
567.88	85.660
568.21	85.767
568.55	85.592
568.89	85.700
569.23	83.200
569.56	83.117
569.90	82.792
570.24	83.028
570.57	81.639
570.91	80.123
571.25	81.779
571.59	80.943
571.92	82.488
572.26	81.456
572.60	81.982
572.93	81.349
573.27	81.721
573.61	81.323
573.95	81.835
574.28	80.402
574.62	80.709
574.96	80.311
575.29	80.480
575.63	80.767
575.97	81.671
576.30	81.094
576.64	80.642
576.98	80.481
577.31	80.615
577.65	80.109
577.98	79.835
578.32	79.230
578.66	79.497
578.99	80.781
579.33	80.392
579.67	79.372
580.00	80.484
580.34	80.494
580.67	79.768
581.01	80.639
581.35	80.650
581.68	79.933
582.02	78.415
582.35	79.241
582.69	79.363
583.02	79.431
583.36	79.479
583.70	81.144
584.03	80.773
584.37	80.501
584.70	81.531
585.04	80.064
585.37	79.683
585.71	79.934
586.04	79.633
586.38	80.747
586.72	81.304
587.05	79.109
587.39	78.971
587.72	80.057
588.06	79.883
588.39	80.686
588.73	80.933
589.06	81.116
589.40	82.222
589.73	81.873
590.07	81.637
590.40	81.293
590.73	82.084
591.07	82.662
591.40	81.232
591.74	82.944
592.07	81.065
592.41	81.645
592.74	80.000
593.08	80.147
593.41	80.291
593.75	78.795
594.08	79.517
594.41	80.134
594.75	81.701
595.08	79.957
595.42	80.315
595.75	80.484
596.09	81.712
596.42	80.589
596.75	82.313
597.09	82.554
597.42	80.481
597.75	81.846
598.09	81.174
598.42	80.627
598.76	80.259
599.09	79.437
599.42	78.712
599.76	79.612
600.09	79.854
600.42	79.766
600.76	79.036
601.09	79.053
601.42	80.632
601.76	81.063
602.09	79.960
602.42	80.971
602.76	80.129
603.09	80.488
603.42	80.867
603.76	78.468
604.09	79.178
604.42	80.921
604.76	80.472
605.09	80.865
605.42	79.778
605.75	79.346
606.09	79.870
606.42	80.343
606.75	78.681
607.09	78.568
607.42	79.204
607.75	79.958
608.08	79.244
608.42	79.247
608.75	79.216
609.08	79.556
609.41	79.438
609.75	79.276
610.08	81.008
610.41	81.052
610.74	81.079
611.07	81.423
611.41	81.207
611.74	80.794
612.07	82.143
612.40	81.899
612.73	81.158
613.07	81.034
613.40	81.938
613.73	80.598
614.06	81.075
614.39	79.234
614.72	78.842
615.06	79.937
615.39	80.414
615.72	78.783
616.05	79.904
616.38	81.601
616.71	82.779
617.05	81.802
617.38	81.600
617.71	81.862
618.04	82.031
618.37	80.189
618.70	81.767
619.03	82.237
619.36	83.775
619.69	81.761
620.03	83.997
620.36	82.487
620.69	81.781
621.02	82.891
621.35	81.911
621.68	82.555
622.01	82.276
622.34	82.980
622.67	85.247
623.00	81.365
623.33	79.914
623.66	83.703
623.99	83.137
624.32	78.959
624.65	80.932
624.99	80.666
625.32	82.042
625.65	81.067
625.98	83.551
626.31	82.893
626.64	83.265
626.97	84.040
627.30	83.957
627.63	83.757
627.96	84.525
628.29	83.115
628.62	82.708
628.95	84.717
629.28	83.029
629.61	83.043
629.94	85.524
630.26	82.269
630.59	83.413
630.92	83.142
631.25	82.428
631.58	81.882
631.91	85.193
632.24	84.388
632.57	84.260
632.90	84.320
633.23	86.577
633.56	85.876
633.89	86.297
634.22	85.925
634.55	86.391
634.88	87.425
635.20	86.380
635.53	84.819
635.86	87.624
636.19	82.353
636.52	84.775
636.85	84.422
637.18	82.949
637.51	86.052
637.83	83.970
638.16	87.468
638.49	84.887
638.82	87.737
639.15	85.500
639.48	85.536
639.81	87.802
640.13	86.979
640.46	87.114
640.79	84.016
641.12	85.970
641.45	87.430
641.77	90.133
642.10	89.035
642.43	88.889
642.76	89.319
643.09	90.951
643.41	88.771
643.74	88.426
644.07	87.652
644.40	87.270
644.73	87.717
645.05	88.748
645.38	84.676
645.71	88.889
646.04	89.867
646.36	93.155
646.69	89.298
647.02	89.116
647.35	89.347
647.67	91.681
648.00	86.504
648.33	85.809
648.66	84.697
648.98	85.907
649.31	85.052
649.64	85.351
649.96	84.054
650.29	86.256
650.62	86.408
650.94	86.548
651.27	89.696
651.60	88.020
651.92	84.345
652.25	87.296
652.58	88.006
652.90	87.836
653.23	84.592
653.56	86.299
653.88	88.114
654.21	84.992
654.54	87.294
654.86	85.202
655.19	83.243
655.52	61.506
655.84	59.201
656.17	77.218
656.49	100.000
656.82	100.000
657.15	86.415
657.47	61.057
657.80	47.052
658.13	49.267
658.45	73.556
658.78	73.907
659.10	77.167
659.43	80.225
659.75	85.127
660.08	88.608
660.41	94.413
660.73	91.614
661.06	89.650
661.38	91.636
661.71	89.423
662.03	91.321
662.36	85.089
662.68	87.550
663.01	88.485
663.33	90.870
663.66	89.916
663.98	92.657
664.31	87.815
664.63	87.247
664.96	84.909
665.28	90.984
665.61	85.185
665.93	89.537
666.26	87.627
666.58	88.285
666.91	89.006
667.23	92.809
667.56	83.585
667.88	85.256
668.21	87.420
668.53	89.805
668.86	85.498
669.18	85.714
669.50	89.565
669.83	89.760
670.15	88.222
670.48	87.582
670.80	86.853
671.13	87.473
671.45	86.383
671.77	90.224
672.10	85.767
672.42	79.329
672.75	79.768
673.07	81.514
673.39	87.523
673.72	88.281
674.04	85.686
674.37	84.272
674.69	85.685
675.01	85.356
675.34	87.474
675.66	89.684
675.98	84.114
676.31	86.765
676.63	86.837
676.95	80.294
677.28	90.421
677.60	85.934
677.92	88.819
678.25	82.136
678.57	85.060
678.89	82.766
679.22	79.961
679.54	83.015
679.86	81.101
680.18	83.900
680.51	81.206
680.83	80.961
681.15	84.906
681.48	83.365
681.80	82.592
682.12	80.843
682.44	81.044
682.77	85.540
683.09	90.129
683.41	86.475
683.73	86.534
684.06	83.884
684.38	82.192
684.70	82.171
685.02	81.426
685.34	81.319
685.67	76.748
685.99	79.553
686.31	79.863
686.63	76.325
686.96	79.286
687.28	78.520
687.60	78.442
687.92	83.181
688.24	81.369
688.56	84.940
688.89	84.025
689.21	87.336
689.53	83.090
689.85	87.140
690.17	79.296
690.49	84.926
690.82	87.617
691.14	82.366
691.46	79.536
691.78	78.112
692.10	84.711
692.42	79.840
692.74	80.705
693.06	79.149
693.39	83.778
693.71	85.371
694.03	81.053
694.35	80.736
694.67	79.863
694.99	87.073
695.31	85.049
695.63	84.211
695.95	86.308
696.27	86.041
696.59	83.161
696.91	83.679
697.23	77.934
697.56	78.465
697.88	77.505
698.20	78.125
698.52	80.860
698.84	82.405
699.16	78.802
699.48	83.373
699.80	85.266
700.12	91.429
700.44	87.268
700.76	87.293
701.08	88.793
701.40	83.520
701.72	90.379
702.04	86.932
702.36	82.436
702.68	84.986
703.00	86.704
703.32	78.989
703.64	84.718
703.96	84.680
704.28	81.395
704.60	88.563
704.91	82.196
705.23	87.977
705.55	92.691
705.87	90.033
706.19	87.633
706.51	84.424
706.83	86.970
707.15	84.594
707.47	79.798
707.79	80.590
708.11	78.082
708.43	79.286
708.74	81.888
709.06	81.818
709.38	82.415
709.70	88.081
710.02	83.976
710.34	79.394
710.66	83.582
710.98	82.955
711.29	86.337
711.61	82.596
711.93	84.615
712.25	91.961
712.57	95.588
712.89	87.889
713.20	82.371
713.52	81.908
713.84	80.696
714.16	81.707
714.48	81.322
714.80	88.146
715.11	82.421
715.43	80.415
715.75	83.768
716.07	84.345
716.39	81.818
716.70	83.721
717.02	87.770
717.34	83.039
717.66	86.194
717.97	94.024
718.29	84.815
718.61	85.766
718.93	91.912
719.24	87.543
719.56	82.034
719.88	84.407
720.20	86.824
720.51	85.714
720.83	88.848
721.15	83.955
721.46	82.270
721.78	88.530
722.10	89.811
722.42	90.602
722.73	87.266
723.05	88.934
723.37	90.688
723.68	87.259
724.00	84.146
724.32	86.290
724.63	88.618
724.95	84.937
725.27	88.259
725.58	87.109
725.90	86.861
726.22	86.038
726.53	80.903
726.85	75.427
727.16	83.630
727.48	82.270
727.80	90.152
728.11	81.884
728.43	89.615
728.74	77.061
729.06	88.321
729.38	88.971
729.69	83.986
730.01	76.109
730.32	83.333
730.64	79.264
730.96	76.568
731.27	80.795
731.59	77.370
731.90	74.636
732.22	85.093
732.53	79.257
732.85	79.487
733.16	77.492
733.48	80.731
733.80	82.792
734.11	80.573
734.43	77.515
734.74	75.429
735.06	77.077
735.37	78.902
735.69	75.796
736.00	82.026
736.32	79.751
736.63	80.511
736.95	77.316
737.26	75.850
737.58	78.065
737.89	77.258
738.21	82.594
738.52	78.929
738.83	78.113
739.15	78.462
739.46	80.292
739.78	79.514
740.09	76.000
740.41	81.290
740.72	74.216
741.04	79.259
741.35	84.167
741.66	89.778
741.98	88.679
742.29	88.995
742.61	85.345
742.92	89.593
743.23	84.188
743.55	81.200
743.86	85.088
744.18	90.265
744.49	87.081
744.80	87.793
745.12	90.000
745.43	83.260
745.74	88.739
746.06	86.239
746.37	85.650
746.68	90.950
747.00	87.963
747.31	82.857
747.62	84.071
747.94	83.700
748.25	84.681
748.56	88.106
748.88	90.099
749.19	92.000
749.50	85.116
749.82	78.862
750.13	81.224
750.44	80.292
750.75	83.860
751.07	82.637
751.38	80.488
751.69	84.477
752.01	75.564
752.32	74.368
752.63	81.560
752.94	86.066
753.26	84.000
753.57	74.797
753.88	80.078
754.19	73.571
754.51	76.736
754.82	77.617
755.13	81.887
755.44	78.195
755.75	71.898
756.07	76.950
756.38	76.642
756.69	77.852
757.00	69.162
757.31	70.030
757.63	73.392
757.94	69.169
758.25	67.157
758.56	66.420
758.87	68.280
759.18	74.242
759.50	73.354
759.81	71.028
760.12	72.812
760.43	70.201
760.74	68.207
761.05	74.294
761.36	71.658
761.67	70.739
761.99	69.255
762.30	80.903
762.61	80.534
762.92	77.344
763.23	78.571
763.54	84.000
763.85	74.609
764.16	79.615
764.47	77.567
764.78	67.845
765.10	68.038
765.41	69.912
765.72	72.754
766.03	72.727
766.34	72.000
766.65	88.085
766.96	82.479
767.27	89.340
767.58	85.417
767.89	82.105
768.20	97.126
768.51	82.741
768.82	79.358
769.13	72.764
769.44	73.684
769.75	80.258
770.06	74.771
770.37	81.900
770.68	77.778
770.99	81.778
771.30	73.361
771.61	81.614
771.92	76.639
772.23	79.412
772.54	89.231
772.85	84.817
773.16	84.043
773.47	86.413
773.78	84.264
774.09	87.500
774.39	91.228
774.70	90.741
775.01	102.899
775.32	98.693
775.63	95.395
775.94	87.050
776.25	107.087
776.56	104.478
776.87	104.918
777.18	102.344
777.48	92.366
777.79	99.242
778.10	93.333
778.41	111.607
778.72	89.781
779.03	84.564
779.34	91.275
779.65	102.703
779.95	92.025
780.26	94.771
780.57	91.034
780.88	109.375
781.19	80.451
781.50	104.730
781.80	94.969
782.11	85.876
782.42	92.405
782.73	80.982
783.04	95.946
783.34	91.549
783.65	99.315
783.96	97.015
784.27	83.916
784.57	92.086
784.88	104.630
785.19	100.000
785.50	110.377
785.81	95.522
786.11	106.557
786.42	96.899
786.73	111.504
787.04	113.208
787.34	98.214
787.65	121.000
787.96	105.405
788.26	95.041
788.57	113.559
788.88	109.091
789.19	89.583
789.49	97.727
789.80	95.420
790.11	103.810
790.41	111.881
790.72	125.301
791.03	119.565
791.33	109.302
791.64	106.186
791.95	113.861
792.25	133.333
792.56	132.468
792.87	135.897
793.17	131.646
793.48	122.989
793.79	114.943
794.09	128.409
794.40	94.118
794.70	97.794
795.01	99.259
795.32	88.489
795.62	91.339
795.93	100.000
796.23	95.575
796.54	118.824
796.85	125.676
797.15	126.761
797.46	140.909
797.76	127.711
798.07	120.253
798.37	143.077
798.68	143.939
798.99	112.676
799.29	128.571
799.60	94.318
799.90	131.507
800.21	143.284
800.51	141.379
800.82	164.912
801.12	131.148
801.43	140.909
801.73	136.486
802.04	160.317
802.34	109.877
802.65	140.625
802.95	152.542
803.26	154.688
803.56	120.000
803.87	127.692
804.17	136.765
804.48	168.519
804.78	163.793
805.09	136.765
805.39	169.231
805.70	155.357
806.00	147.541
806.30	145.455
806.61	114.634
806.91	108.861
807.22	130.263
807.52	116.418
807.83	133.803
808.13	150.000
808.43	161.667
808.74	119.737
809.04	137.681
809.35	165.672
809.65	122.368
809.95	172.581
810.26	150.847
810.56	139.683
810.86	190.909
811.17	209.524
811.47	156.667
811.77	135.185
812.08	154.545
812.38	166.000
812.69	197.222
812.99	190.909
813.29	173.469
813.59	140.476
813.90	185.714
814.20	145.455
814.50	130.769
814.81	133.824
815.11	183.673
815.41	145.902
815.72	219.048
816.02	170.909
816.32	211.905
816.62	180.000
816.93	173.171
817.23	195.238
817.53	168.182
817.84	233.333
818.14	184.783
818.44	173.333
818.74	200.000
819.04	180.000
819.35	211.429
819.65	220.588
819.95	285.714
820.25	285.000
820.56	202.564
820.86	170.455
821.16	202.326
821.46	184.615
821.76	186.000
822.07	197.143
822.37	177.500
822.67	224.242
822.97	139.216
823.27	278.571
823.57	197.297
823.88	162.500
824.18	246.667
824.48	188.095
824.78	276.000
825.08	300.000
825.38	194.595
825.69	185.366
825.99	258.333
826.29	241.379
826.59	207.895
826.89	210.526
827.19	217.647
827.49	248.387
827.79	209.091
828.09	177.273
828.39	146.809
828.70	167.347
829.00	225.926
829.30	241.935
829.60	175.000
829.90	420.000
830.20	225.000
830.50	282.609
830.80	304.348
831.10	273.333
831.40	196.667
831.70	321.739
832.00	300.000
832.30	292.593
832.60	393.750
832.90	270.000
833.20	485.714
833.50	238.710
833.80	282.759
834.10	256.250
834.40	273.077
834.70	400.000
835.00	390.476
835.30	228.571
835.60	461.538
835.90	227.586
836.20	457.143
836.50	237.931
836.80	236.000
837.10	213.889
837.40	280.952
837.70	347.059
838.00	248.148
838.30	300.000
838.60	338.095
838.90	276.923
839.19	330.000
839.49	492.857
839.79	355.000
840.09	355.000
840.39	333.333
840.69	326.087
840.99	372.222
841.29	690.000
841.59	500.000
841.88	362.500
842.18	241.379
842.48	342.857
842.78	206.667
843.08	308.696
843.38	200.000
843.68	1066.667
843.97	265.385
844.27	272.414
844.57	333.333
844.87	368.750
845.17	225.926
845.47	1866.667
845.76	700.000
846.06	382.353
846.36	600.000
846.66	450.000
846.96	437.500
847.25	509.091
847.55	518.182
847.85	304.348
848.15	620.000
848.44	457.143
848.74	322.222
849.04	400.000
849.34	620.000
849.63	278.947
849.93	509.091
850.23	1180.000
850.53	521.429
850.82	2500.000
851.12	-5600.000
851.42	6000.000
851.71	310.000
852.01	-1500.000
852.31	270.833
852.61	2166.667
852.90	314.286
853.20	264.000
853.50	423.529
853.79	342.857
854.09	275.000
854.39	443.750
854.68	227.027
854.98	232.258
855.28	213.333
855.57	241.379
855.87	277.778
856.17	321.053
856.46	353.333
856.76	352.941
857.05	241.379
857.35	291.667
857.65	413.333
857.94	269.565
858.24	269.231
858.53	310.000
858.83	309.091
859.13	413.333
859.42	0.000
859.72	622.222
860.01	563.636
860.31	277.273
860.60	315.789
860.90	278.261
861.20	733.333
861.49	608.333
861.79	-5500.000
862.08	725.000
862.38	366.667
862.67	376.923
862.97	388.235
863.26	722.222
863.56	344.444
863.85	516.667
864.15	787.500
864.44	406.667
864.74	1016.667
865.03	862.500
865.33	373.684
865.62	500.000
865.92	461.538
866.21	425.000
866.51	0.000
866.80	572.727
867.10	1080.000
867.39	538.462
867.69	581.818
867.98	384.211
868.27	545.455
868.57	315.789
868.86	-4600.000
869.16	356.250
869.45	2700.000
869.75	-4900.000
870.04	466.667
870.33	728.571
870.63	1275.000
870.92	3000.000
871.22	800.000
871.51	370.588
871.80	266.667
872.10	400.000
>>>>>End Processed Spectral Data<<<<<
