SpectraSuite Data File
++++++++++++++++++++++++++++++++++++
Date: Wed May 13 19:49:54 PDT 2015
User: schluterlab
Dark Spectrum Present: Yes
Reference Spectrum Present: Yes
Number of Sampled Component Spectra: 1
Spectrometers: USB2E3373
Integration Time (usec): 3000 (USB2E3373)
Spectra Averaged: 3 (USB2E3373)
Boxcar Smoothing: 0 (USB2E3373)
Correct for Electrical Dark: No (USB2E3373)
Strobe/Lamp Enabled: No (USB2E3373)
Correct for Detector Non-linearity: No (USB2E3373)
Correct for Stray Light: No (USB2E3373)
Number of Pixels in Processed Spectrum: 2048
>>>>>Begin Processed Spectral Data<<<<<
178.53	0.000
178.91	-1400.000
179.29	-1075.000
179.67	-250.000
180.04	-1250.000
180.42	2600.000
180.80	1060.000
181.18	-925.000
181.56	714.286
181.94	0.000
182.31	-742.857
182.69	1900.000
183.07	-600.000
183.45	-533.333
183.83	572.727
184.20	-390.000
184.58	2700.000
184.96	5900.000
185.34	-900.000
185.72	-662.500
186.09	-2400.000
186.47	2850.000
186.85	2300.000
187.23	4300.000
187.61	-1933.333
187.98	1600.000
188.36	618.182
188.74	481.818
189.12	-1160.000
189.49	590.000
189.87	-5000.000
190.25	-1300.000
190.63	442.857
191.00	407.692
191.38	900.000
191.76	-1175.000
192.14	1550.000
192.51	512.500
192.89	983.333
193.27	650.000
193.65	-1350.000
194.02	600.000
194.40	960.000
194.78	600.000
195.15	566.667
195.53	600.000
195.91	-2900.000
196.29	350.000
196.66	336.842
197.04	-490.000
197.42	0.000
197.79	660.000
198.17	-4700.000
198.55	785.714
198.92	787.500
199.30	960.000
199.68	0.000
200.05	333.333
200.43	928.571
200.81	4100.000
201.18	1700.000
201.56	-1666.667
201.94	655.556
202.31	677.778
202.69	366.667
203.07	500.000
203.44	0.000
203.82	1350.000
204.19	871.429
204.57	414.286
204.95	600.000
205.32	1733.333
205.70	527.273
206.08	378.571
206.45	2600.000
206.83	325.000
207.20	1016.667
207.58	700.000
207.96	361.111
208.33	850.000
208.71	-783.333
209.08	800.000
209.46	611.111
209.84	572.727
210.21	-1533.333
210.59	1600.000
210.96	-562.500
211.34	2750.000
211.71	620.000
212.09	983.333
212.46	0.000
212.84	1900.000
213.22	1450.000
213.59	-4500.000
213.97	833.333
214.34	885.714
214.72	618.182
215.09	1140.000
215.47	-2200.000
215.84	-2750.000
216.22	1766.667
216.59	392.857
216.97	1225.000
217.34	472.727
217.72	-883.333
218.09	0.000
218.47	-4300.000
218.84	611.111
219.22	757.143
219.59	1900.000
219.97	-628.571
220.34	880.000
220.72	-1800.000
221.09	435.714
221.47	1675.000
221.84	-983.333
222.22	0.000
222.59	1425.000
222.97	-2650.000
223.34	1140.000
223.72	492.308
224.09	1100.000
224.46	2350.000
224.84	-3700.000
225.21	-1040.000
225.59	-5300.000
225.96	660.000
226.34	305.000
226.71	2850.000
227.08	675.000
227.46	620.000
227.83	-1025.000
228.21	-2200.000
228.58	633.333
228.95	-2200.000
229.33	-2400.000
229.70	1866.667
230.08	942.857
230.45	-940.000
230.82	491.667
231.20	1033.333
231.57	628.571
231.95	458.333
232.32	259.091
232.69	490.909
233.07	600.000
233.44	346.154
233.81	-1866.667
234.19	342.105
234.56	508.333
234.93	408.333
235.31	509.091
235.68	415.385
236.05	414.286
236.43	172.727
236.80	315.789
237.17	4900.000
237.55	242.857
237.92	189.286
238.29	280.952
238.67	190.323
239.04	224.138
239.41	177.778
239.79	130.435
240.16	150.000
240.53	159.091
240.91	107.843
241.28	136.000
241.65	116.000
242.02	123.188
242.40	85.484
242.77	115.000
243.14	83.871
243.51	85.393
243.89	88.235
244.26	73.333
244.63	69.892
245.00	69.149
245.38	79.208
245.75	75.701
246.12	62.385
246.49	68.613
246.87	74.400
247.24	66.923
247.61	63.571
247.98	66.013
248.36	54.054
248.73	54.140
249.10	62.420
249.47	51.412
249.84	58.289
250.22	47.594
250.59	54.438
250.96	49.495
251.33	51.659
251.70	53.960
252.08	48.571
252.45	46.637
252.82	47.826
253.19	49.787
253.56	44.314
253.94	51.867
254.31	46.094
254.68	42.692
255.05	41.697
255.42	43.902
255.79	44.853
256.16	47.653
256.54	39.929
256.91	47.331
257.28	38.129
257.65	39.934
258.02	39.441
258.39	41.640
258.76	42.140
259.14	41.369
259.51	37.690
259.88	35.093
260.25	40.785
260.62	40.751
260.99	40.062
261.36	39.339
261.73	37.822
262.10	38.372
262.47	39.718
262.85	37.883
263.22	35.043
263.59	37.892
263.96	32.692
264.33	37.859
264.70	37.632
265.07	37.340
265.44	36.616
265.81	36.983
266.18	35.678
266.55	36.829
266.92	36.118
267.29	37.731
267.66	38.532
268.03	35.227
268.40	33.178
268.77	33.174
269.14	33.784
269.51	33.634
269.88	35.897
270.25	34.312
270.62	34.157
270.99	38.065
271.36	33.262
271.73	34.112
272.10	32.391
272.47	34.839
272.84	34.416
273.21	35.430
273.58	32.533
273.95	31.447
274.32	33.058
274.69	34.261
275.06	30.315
275.43	32.766
275.80	31.663
276.17	33.198
276.54	32.640
276.91	34.387
277.28	33.203
277.65	33.462
278.02	32.919
278.39	32.617
278.76	29.273
279.13	34.906
279.50	32.402
279.87	33.665
280.23	32.535
280.60	30.561
280.97	29.945
281.34	34.159
281.71	31.636
282.08	31.286
282.45	30.727
282.82	30.906
283.19	30.481
283.56	30.351
283.92	30.288
284.29	30.335
284.66	30.490
285.03	30.741
285.40	32.042
285.77	30.808
286.14	28.670
286.51	29.833
286.87	29.915
287.24	29.967
287.61	29.213
287.98	30.682
288.35	28.368
288.72	29.751
289.08	29.421
289.45	29.325
289.82	30.407
290.19	26.217
290.56	28.484
290.93	26.888
291.29	26.840
291.66	27.286
292.03	26.599
292.40	27.900
292.77	24.260
293.13	26.866
293.50	27.259
293.87	25.481
294.24	26.222
294.60	25.182
294.97	24.419
295.34	26.939
295.71	26.278
296.08	25.214
296.44	24.209
296.81	23.646
297.18	25.474
297.55	23.615
297.91	24.274
298.28	23.829
298.65	24.151
299.02	24.769
299.38	23.904
299.75	21.698
300.12	22.222
300.48	23.375
300.85	21.948
301.22	23.567
301.59	22.222
301.95	23.426
302.32	21.951
302.69	22.222
303.05	23.152
303.42	23.951
303.79	22.424
304.15	21.795
304.52	21.669
304.89	22.648
305.25	21.810
305.62	21.518
305.99	21.960
306.35	22.931
306.72	23.767
307.09	21.643
307.45	22.973
307.82	22.098
308.19	22.848
308.55	22.546
308.92	22.127
309.29	21.753
309.65	20.573
310.02	22.939
310.38	21.828
310.75	23.126
311.12	21.494
311.48	23.511
311.85	23.585
312.22	22.893
312.58	22.141
312.95	21.964
313.31	22.233
313.68	23.597
314.05	24.951
314.41	23.518
314.78	23.263
315.14	22.840
315.51	24.099
315.87	24.950
316.24	24.528
316.61	24.659
316.97	25.342
317.34	25.245
317.70	26.864
318.07	26.275
318.43	27.495
318.80	26.898
319.16	26.365
319.53	27.486
319.89	27.143
320.26	29.200
320.62	28.770
320.99	30.303
321.35	30.202
321.72	30.082
322.08	30.997
322.45	31.841
322.81	32.461
323.18	32.563
323.54	31.447
323.91	33.774
324.27	33.652
324.64	33.458
325.00	33.093
325.37	36.033
325.73	35.907
326.10	35.569
326.46	36.828
326.83	35.893
327.19	36.806
327.56	37.369
327.92	37.533
328.29	37.445
328.65	37.569
329.01	38.809
329.38	38.020
329.74	36.842
330.11	37.889
330.47	38.384
330.84	39.890
331.20	39.071
331.56	39.725
331.93	40.556
332.29	39.752
332.66	41.150
333.02	39.305
333.38	39.837
333.75	41.979
334.11	40.480
334.48	40.816
334.84	42.739
335.20	41.455
335.57	41.251
335.93	40.536
336.29	40.476
336.66	41.930
337.02	41.538
337.38	41.204
337.75	40.731
338.11	41.092
338.47	41.713
338.84	41.980
339.20	40.826
339.56	42.153
339.93	40.545
340.29	42.120
340.65	40.285
341.02	42.059
341.38	43.683
341.74	41.667
342.11	42.445
342.47	42.555
342.83	41.524
343.20	42.511
343.56	41.786
343.92	43.158
344.28	43.112
344.65	42.648
345.01	41.919
345.37	42.281
345.73	43.486
346.10	44.246
346.46	42.119
346.82	43.245
347.19	42.774
347.55	41.461
347.91	43.285
348.27	44.207
348.63	43.980
349.00	42.880
349.36	44.417
349.72	43.464
350.08	41.734
350.45	44.426
350.81	43.054
351.17	44.246
351.53	44.308
351.89	43.399
352.26	43.883
352.62	44.507
352.98	44.652
353.34	44.864
353.70	44.190
354.07	45.323
354.43	43.651
354.79	43.363
355.15	44.613
355.51	45.803
355.87	45.878
356.24	46.173
356.60	44.988
356.96	46.983
357.32	45.626
357.68	46.614
358.04	45.843
358.40	46.002
358.77	47.105
359.13	46.409
359.49	46.353
359.85	46.905
360.21	47.608
360.57	47.938
360.93	48.154
361.29	47.846
361.66	46.362
362.02	47.761
362.38	49.049
362.74	47.991
363.10	49.075
363.46	48.202
363.82	48.904
364.18	48.238
364.54	49.108
364.90	50.142
365.26	50.294
365.62	50.986
365.98	50.548
366.35	51.433
366.71	50.832
367.07	51.347
367.43	52.975
367.79	53.176
368.15	53.376
368.51	50.581
368.87	52.748
369.23	53.328
369.59	53.367
369.95	52.574
370.31	53.490
370.67	52.391
371.03	53.783
371.39	54.810
371.75	55.368
372.11	53.841
372.47	55.645
372.83	55.908
373.19	54.335
373.55	56.911
373.91	56.996
374.27	54.296
374.63	55.927
374.99	57.062
375.35	57.851
375.71	57.848
376.07	57.545
376.42	57.565
376.78	58.383
377.14	57.395
377.50	58.411
377.86	56.782
378.22	57.965
378.58	59.461
378.94	59.585
379.30	60.115
379.66	61.358
380.02	60.135
380.38	59.866
380.74	62.245
381.09	62.225
381.45	61.955
381.81	60.934
382.17	63.312
382.53	62.201
382.89	62.901
383.25	62.789
383.61	63.321
383.97	62.226
384.32	64.005
384.68	64.250
385.04	63.491
385.40	63.839
385.76	63.943
386.12	65.091
386.48	64.821
386.83	67.094
387.19	65.986
387.55	65.430
387.91	66.264
388.27	65.297
388.62	67.179
388.98	66.523
389.34	67.021
389.70	65.297
390.06	67.047
390.42	68.807
390.77	67.239
391.13	69.687
391.49	68.084
391.85	67.982
392.20	67.319
392.56	68.813
392.92	70.159
393.28	68.639
393.64	69.664
393.99	67.624
394.35	70.037
394.71	69.385
395.07	68.536
395.42	70.087
395.78	70.483
396.14	69.336
396.50	70.426
396.85	71.837
397.21	69.051
397.57	71.544
397.92	72.776
398.28	69.675
398.64	71.326
399.00	71.181
399.35	70.446
399.71	70.602
400.07	70.018
400.42	70.982
400.78	71.532
401.14	71.280
401.49	71.164
401.85	71.264
402.21	70.719
402.57	72.178
402.92	72.257
403.28	72.829
403.63	71.720
403.99	71.529
404.35	71.939
404.70	71.703
405.06	72.161
405.42	73.175
405.77	72.000
406.13	71.163
406.49	73.093
406.84	72.652
407.20	72.045
407.55	72.176
407.91	73.200
408.27	73.325
408.62	73.269
408.98	72.059
409.34	74.047
409.69	73.742
410.05	73.048
410.40	73.639
410.76	72.700
411.11	71.532
411.47	71.757
411.83	73.549
412.18	72.727
412.54	73.973
412.89	72.169
413.25	73.081
413.60	72.514
413.96	70.735
414.31	72.053
414.67	72.307
415.03	73.444
415.38	72.423
415.74	73.119
416.09	73.351
416.45	73.561
416.80	72.373
417.16	72.922
417.51	73.059
417.87	72.511
418.22	75.268
418.58	74.177
418.93	73.526
419.29	72.056
419.64	73.111
420.00	72.683
420.35	72.348
420.71	72.385
421.06	72.076
421.42	71.345
421.77	72.085
422.12	72.768
422.48	72.801
422.83	73.034
423.19	72.707
423.54	71.155
423.90	72.754
424.25	73.479
424.61	72.083
424.96	72.478
425.31	70.819
425.67	71.180
426.02	71.886
426.38	72.772
426.73	71.445
427.09	72.280
427.44	72.973
427.79	71.478
428.15	71.429
428.50	72.147
428.85	71.931
429.21	70.790
429.56	71.021
429.92	71.716
430.27	71.450
430.62	71.019
430.98	71.043
431.33	70.464
431.68	70.314
432.04	68.637
432.39	71.445
432.74	70.856
433.10	71.081
433.45	72.536
433.80	70.787
434.16	71.474
434.51	70.105
434.86	70.239
435.22	70.539
435.57	71.064
435.92	69.982
436.28	71.174
436.63	69.812
436.98	70.235
437.34	71.318
437.69	71.995
438.04	70.658
438.39	70.328
438.75	70.192
439.10	70.112
439.45	70.071
439.81	70.876
440.16	68.888
440.51	70.064
440.86	71.453
441.22	68.465
441.57	70.541
441.92	70.317
442.27	69.214
442.63	69.616
442.98	70.930
443.33	69.511
443.68	68.456
444.03	68.326
444.39	68.939
444.74	69.048
445.09	68.464
445.44	67.961
445.79	69.075
446.15	67.284
446.50	67.851
446.85	69.630
447.20	68.281
447.55	68.900
447.91	68.395
448.26	68.225
448.61	67.665
448.96	68.439
449.31	69.460
449.66	68.261
450.02	68.245
450.37	68.311
450.72	68.697
451.07	68.007
451.42	66.079
451.77	68.761
452.12	67.090
452.47	68.470
452.83	68.298
453.18	66.809
453.53	69.202
453.88	66.982
454.23	67.723
454.58	67.656
454.93	68.086
455.28	68.204
455.63	67.597
455.98	69.048
456.34	65.892
456.69	67.564
457.04	67.430
457.39	65.576
457.74	65.641
458.09	65.670
458.44	65.678
458.79	65.130
459.14	65.519
459.49	65.499
459.84	64.820
460.19	65.174
460.54	63.021
460.89	64.948
461.24	66.606
461.59	65.892
461.94	64.550
462.29	66.231
462.64	63.306
462.99	63.500
463.34	65.533
463.69	64.290
464.04	64.058
464.39	63.478
464.74	64.290
465.09	63.269
465.44	62.770
465.79	62.919
466.14	62.233
466.49	62.458
466.84	62.872
467.19	61.617
467.54	62.313
467.89	61.705
468.24	61.780
468.59	63.309
468.94	61.332
469.29	62.339
469.64	62.249
469.99	61.840
470.34	62.351
470.68	61.997
471.03	61.633
471.38	63.099
471.73	61.359
472.08	62.697
472.43	61.118
472.78	60.764
473.13	60.334
473.48	61.423
473.83	59.756
474.17	59.739
474.52	60.422
474.87	62.113
475.22	60.998
475.57	58.678
475.92	58.948
476.27	58.850
476.61	60.232
476.96	58.219
477.31	58.451
477.66	59.464
478.01	57.344
478.36	58.382
478.70	58.411
479.05	57.188
479.40	58.495
479.75	57.804
480.10	58.549
480.45	56.925
480.79	57.238
481.14	56.996
481.49	56.763
481.84	57.247
482.19	57.201
482.53	56.927
482.88	57.096
483.23	55.561
483.58	55.323
483.92	55.483
484.27	54.466
484.62	55.733
484.97	54.277
485.31	55.377
485.66	55.654
486.01	53.943
486.36	51.885
486.70	51.007
487.05	50.564
487.40	52.324
487.75	51.177
488.09	51.987
488.44	51.234
488.79	53.128
489.13	51.986
489.48	53.181
489.83	52.050
490.17	54.011
490.52	52.126
490.87	53.641
491.22	51.205
491.56	51.435
491.91	52.257
492.26	50.942
492.60	52.442
492.95	50.655
493.30	51.682
493.64	51.190
493.99	51.625
494.34	50.416
494.68	51.236
495.03	52.209
495.37	49.651
495.72	51.949
496.07	50.812
496.41	49.602
496.76	50.132
497.11	49.302
497.45	49.604
497.80	50.432
498.14	49.517
498.49	49.268
498.84	48.322
499.18	48.667
499.53	48.718
499.87	49.953
500.22	48.987
500.56	49.854
500.91	48.558
501.26	48.127
501.60	49.786
501.95	48.029
502.29	48.922
502.64	48.138
502.98	47.686
503.33	47.715
503.67	47.981
504.02	48.082
504.36	47.637
504.71	47.728
505.06	46.410
505.40	47.788
505.75	45.853
506.09	46.307
506.44	47.410
506.78	46.566
507.13	46.744
507.47	46.061
507.82	46.707
508.16	47.568
508.51	47.539
508.85	46.127
509.19	46.224
509.54	45.306
509.88	47.192
510.23	46.735
510.57	47.317
510.92	46.194
511.26	45.838
511.61	46.058
511.95	44.729
512.30	44.698
512.64	44.868
512.98	45.284
513.33	45.182
513.67	44.824
514.02	43.939
514.36	45.167
514.70	43.885
515.05	45.287
515.39	45.036
515.74	45.664
516.08	44.941
516.42	44.728
516.77	45.095
517.11	43.729
517.46	44.357
517.80	45.412
518.14	44.065
518.49	45.041
518.83	42.955
519.17	44.977
519.52	43.294
519.86	43.754
520.20	43.179
520.55	43.986
520.89	44.769
521.23	43.667
521.58	42.737
521.92	42.988
522.26	42.465
522.61	43.801
522.95	43.646
523.29	42.788
523.64	42.805
523.98	43.068
524.32	43.366
524.66	42.934
525.01	42.402
525.35	41.945
525.69	41.810
526.04	42.555
526.38	42.099
526.72	42.577
527.06	43.754
527.41	41.275
527.75	43.537
528.09	42.967
528.43	40.918
528.78	42.102
529.12	40.788
529.46	40.906
529.80	40.842
530.15	42.741
530.49	40.492
530.83	40.949
531.17	41.319
531.51	42.088
531.86	40.387
532.20	40.548
532.54	40.423
532.88	40.436
533.22	38.788
533.57	39.938
533.91	39.916
534.25	39.915
534.59	39.170
534.93	39.322
535.27	38.865
535.62	39.377
535.96	39.799
536.30	38.716
536.64	39.794
536.98	39.151
537.32	39.434
537.66	39.733
538.01	39.434
538.35	38.914
538.69	40.013
539.03	39.051
539.37	37.827
539.71	38.108
540.05	39.216
540.39	38.738
540.73	37.581
541.07	39.001
541.42	39.400
541.76	39.355
542.10	38.292
542.44	38.940
542.78	38.011
543.12	37.044
543.46	37.508
543.80	38.256
544.14	37.612
544.48	38.730
544.82	37.011
545.16	37.541
545.50	37.082
545.84	37.433
546.18	36.835
546.52	37.027
546.86	37.182
547.20	37.559
547.54	37.341
547.88	36.926
548.22	36.550
548.56	36.981
548.90	36.108
549.24	36.700
549.58	36.357
549.92	36.264
550.26	36.364
550.60	36.238
550.94	36.901
551.28	35.918
551.62	36.736
551.96	34.947
552.30	36.177
552.64	36.782
552.98	36.339
553.32	35.401
553.66	35.515
554.00	36.513
554.34	35.473
554.68	36.409
555.02	35.896
555.36	35.560
555.69	35.589
556.03	34.993
556.37	34.993
556.71	34.106
557.05	34.524
557.39	35.619
557.73	34.721
558.07	35.896
558.41	35.311
558.75	35.783
559.08	36.167
559.42	36.130
559.76	35.735
560.10	34.118
560.44	35.360
560.78	33.799
561.12	34.367
561.45	34.941
561.79	34.410
562.13	33.937
562.47	34.836
562.81	34.170
563.15	34.047
563.48	33.488
563.82	34.116
564.16	33.878
564.50	33.073
564.84	32.807
565.17	33.140
565.51	35.080
565.85	34.010
566.19	32.060
566.52	34.516
566.86	33.153
567.20	33.667
567.54	33.790
567.88	32.591
568.21	32.169
568.55	32.811
568.89	32.539
569.23	31.729
569.56	31.822
569.90	31.283
570.24	31.109
570.57	30.806
570.91	30.543
571.25	30.482
571.59	30.309
571.92	29.666
572.26	30.185
572.60	29.550
572.93	29.865
573.27	30.021
573.61	29.955
573.95	29.793
574.28	28.719
574.62	29.082
574.96	28.961
575.29	28.880
575.63	29.167
575.97	28.664
576.30	28.864
576.64	29.189
576.98	28.853
577.31	28.974
577.65	28.599
577.98	28.468
578.32	27.859
578.66	28.889
578.99	28.555
579.33	28.637
579.67	27.998
580.00	28.315
580.34	28.310
580.67	27.866
581.01	28.311
581.35	28.431
581.68	28.194
582.02	27.934
582.35	27.613
582.69	27.951
583.02	28.416
583.36	28.153
583.70	28.322
584.03	27.743
584.37	28.643
584.70	27.900
585.04	27.935
585.37	27.796
585.71	27.820
586.04	27.591
586.38	28.161
586.72	28.031
587.05	27.275
587.39	27.124
587.72	27.957
588.06	27.054
588.39	27.545
588.73	27.515
589.06	28.794
589.40	28.316
589.73	27.913
590.07	28.363
590.40	27.695
590.73	28.962
591.07	28.856
591.40	29.270
591.74	29.221
592.07	28.490
592.41	29.020
592.74	28.315
593.08	28.348
593.41	27.649
593.75	27.358
594.08	27.657
594.41	28.066
594.75	28.059
595.08	26.664
595.42	27.741
595.75	27.564
596.09	27.563
596.42	27.544
596.75	27.944
597.09	28.528
597.42	27.530
597.75	27.426
598.09	27.783
598.42	27.448
598.76	27.726
599.09	27.442
599.42	26.965
599.76	27.416
600.09	26.302
600.42	27.173
600.76	26.643
601.09	26.594
601.42	27.473
601.76	27.135
602.09	27.233
602.42	27.269
602.76	27.207
603.09	27.105
603.42	27.372
603.76	27.706
604.09	27.026
604.42	26.539
604.76	27.077
605.09	27.610
605.42	26.721
605.75	26.076
606.09	27.532
606.42	27.217
606.75	27.084
607.09	26.371
607.42	26.829
607.75	26.498
608.08	26.183
608.42	26.356
608.75	26.601
609.08	26.688
609.41	26.702
609.75	26.822
610.08	27.757
610.41	27.048
610.74	27.436
611.07	27.174
611.41	26.840
611.74	27.602
612.07	27.174
612.40	27.020
612.73	27.211
613.07	27.155
613.40	27.962
613.73	26.586
614.06	26.720
614.39	26.796
614.72	27.000
615.06	26.838
615.39	27.919
615.72	26.431
616.05	26.794
616.38	27.293
616.71	27.316
617.05	26.561
617.38	27.060
617.71	27.748
618.04	27.584
618.37	26.848
618.70	27.878
619.03	28.947
619.36	27.766
619.69	27.676
620.03	27.679
620.36	27.741
620.69	28.151
621.02	27.802
621.35	26.625
621.68	26.947
622.01	28.019
622.34	27.685
622.67	29.278
623.00	27.953
623.33	27.591
623.66	28.091
623.99	27.320
624.32	26.890
624.65	27.048
624.99	27.266
625.32	27.009
625.65	28.325
625.98	28.132
626.31	27.683
626.64	27.837
626.97	26.933
627.30	28.096
627.63	28.384
627.96	29.016
628.29	28.171
628.62	29.003
628.95	30.189
629.28	28.376
629.61	28.964
629.94	29.429
630.26	28.313
630.59	28.217
630.92	29.023
631.25	28.628
631.58	28.428
631.91	27.079
632.24	28.903
632.57	28.751
632.90	29.167
633.23	28.971
633.56	28.701
633.89	29.898
634.22	28.377
634.55	29.586
634.88	27.305
635.20	31.422
635.53	31.205
635.86	29.455
636.19	29.882
636.52	27.105
636.85	28.293
637.18	27.995
637.51	30.260
637.83	27.620
638.16	29.284
638.49	29.849
638.82	30.594
639.15	29.000
639.48	30.299
639.81	30.831
640.13	30.208
640.46	29.128
640.79	29.723
641.12	27.648
641.45	30.028
641.77	30.928
642.10	30.409
642.43	29.429
642.76	32.198
643.09	31.442
643.41	30.197
643.74	31.790
644.07	30.183
644.40	32.975
644.73	30.709
645.05	33.122
645.38	31.596
645.71	29.469
646.04	30.565
646.36	31.386
646.69	30.602
647.02	29.762
647.35	32.302
647.67	32.920
648.00	32.846
648.33	30.858
648.66	30.909
648.98	31.334
649.31	28.102
649.64	31.390
649.96	29.210
650.29	30.332
650.62	29.450
650.94	31.929
651.27	31.588
651.60	30.449
651.92	30.032
652.25	28.013
652.58	29.595
652.90	31.438
653.23	29.584
653.56	30.551
653.88	31.537
654.21	31.754
654.54	29.538
654.86	29.751
655.19	28.514
655.52	20.442
655.84	19.562
656.17	26.025
656.49	34.671
656.82	34.807
657.15	25.721
657.47	18.652
657.80	14.276
658.13	14.680
658.45	21.296
658.78	20.712
659.10	21.036
659.43	21.273
659.75	23.135
660.08	25.253
660.41	28.305
660.73	31.385
661.06	29.618
661.38	29.455
661.71	30.577
662.03	33.531
662.36	29.423
662.68	32.329
663.01	31.515
663.33	31.423
663.66	30.042
663.98	31.533
664.31	31.513
664.63	31.984
664.96	30.382
665.28	31.352
665.61	30.799
665.93	32.193
666.26	31.440
666.58	32.427
666.91	35.518
667.23	34.157
667.56	28.510
667.88	33.761
668.21	33.049
668.53	34.056
668.86	31.169
669.18	35.394
669.50	33.696
669.83	36.166
670.15	32.889
670.48	32.462
670.80	31.681
671.13	34.395
671.45	30.851
671.77	33.198
672.10	28.651
672.42	30.212
672.75	30.182
673.07	30.282
673.39	27.486
673.72	28.906
674.04	29.804
674.37	30.485
674.69	31.288
675.01	29.916
675.34	34.497
675.66	34.526
675.98	32.587
676.31	32.563
676.63	33.546
676.95	32.495
677.28	29.439
677.60	30.989
677.92	34.810
678.25	33.060
678.57	31.076
678.89	33.066
679.22	29.862
679.54	31.107
679.86	31.560
680.18	28.801
680.51	29.965
680.83	30.071
681.15	29.434
681.48	31.569
681.80	28.820
682.12	30.651
682.44	29.400
682.77	30.143
683.09	34.764
683.41	33.481
683.73	35.099
684.06	31.612
684.38	30.333
684.70	30.814
685.02	31.332
685.34	30.037
685.67	29.895
685.99	27.491
686.31	28.328
686.63	28.445
686.96	28.214
687.28	29.061
687.60	28.804
687.92	31.261
688.24	30.798
688.56	31.526
688.89	32.988
689.21	33.188
689.53	31.524
689.85	32.373
690.17	28.986
690.49	34.395
690.82	32.944
691.14	30.580
691.46	28.481
691.78	30.924
692.10	31.198
692.42	34.132
692.74	29.046
693.06	30.638
693.39	31.211
693.71	30.568
694.03	30.526
694.35	28.571
694.67	32.494
694.99	35.854
695.31	31.863
695.63	34.928
695.95	31.051
696.27	30.711
696.59	31.865
696.91	34.197
697.23	26.761
697.56	31.557
697.88	26.789
698.20	30.208
698.52	32.043
698.84	30.067
699.16	30.645
699.48	31.829
699.80	31.401
700.12	36.104
700.44	32.626
700.76	38.674
701.08	33.908
701.40	34.358
701.72	37.318
702.04	36.648
702.36	33.994
702.68	38.244
703.00	34.903
703.32	33.777
703.64	31.099
703.96	32.869
704.28	37.791
704.60	37.537
704.91	38.872
705.23	35.484
705.55	37.542
705.87	39.203
706.19	38.869
706.51	36.760
706.83	33.939
707.15	35.014
707.47	31.566
707.79	32.432
708.11	31.507
708.43	33.571
708.74	30.867
709.06	35.325
709.38	33.071
709.70	36.047
710.02	36.202
710.34	34.545
710.66	37.313
710.98	39.489
711.29	36.337
711.61	35.988
711.93	36.859
712.25	38.585
712.57	36.029
712.89	37.716
713.20	33.131
713.52	40.789
713.84	32.911
714.16	38.110
714.48	34.770
714.80	35.866
715.11	34.294
715.43	34.421
715.75	31.014
716.07	36.422
716.39	36.364
716.70	39.535
717.02	40.647
717.34	36.042
717.66	43.657
717.97	42.231
718.29	38.519
718.61	39.416
718.93	38.971
719.24	37.370
719.56	38.644
719.88	39.322
720.20	35.135
720.51	39.721
720.83	40.149
721.15	38.060
721.46	39.007
721.78	38.710
722.10	40.000
722.42	43.609
722.73	38.202
723.05	40.164
723.37	36.437
723.68	38.224
724.00	41.057
724.32	40.323
724.63	37.805
724.95	39.331
725.27	41.296
725.58	41.016
725.90	43.431
726.22	37.736
726.53	38.194
726.85	35.836
727.16	35.231
727.48	40.426
727.80	37.500
728.11	37.319
728.43	38.462
728.74	36.201
729.06	42.336
729.38	40.441
729.69	41.637
730.01	33.447
730.32	32.639
730.64	38.462
730.96	33.003
731.27	38.742
731.59	33.333
731.90	37.318
732.22	33.230
732.53	34.675
732.85	34.295
733.16	33.441
733.48	38.870
733.80	37.338
734.11	35.032
734.43	35.503
734.74	31.429
735.06	33.524
735.37	35.260
735.69	39.172
736.00	37.582
736.32	34.268
736.63	33.227
736.95	34.505
737.26	32.653
737.58	31.935
737.89	35.786
738.21	37.884
738.52	38.929
738.83	38.491
739.15	33.846
739.46	38.321
739.78	37.153
740.09	35.692
740.41	36.774
740.72	34.146
741.04	38.519
741.35	40.833
741.66	42.667
741.98	37.264
742.29	44.498
742.61	39.655
742.92	37.557
743.23	38.034
743.55	42.000
743.86	39.035
744.18	44.248
744.49	49.761
744.80	41.784
745.12	46.364
745.43	38.326
745.74	42.793
746.06	45.413
746.37	47.982
746.68	46.154
747.00	45.833
747.31	47.143
747.62	40.708
747.94	37.004
748.25	37.021
748.56	49.780
748.88	38.119
749.19	48.500
749.50	45.581
749.82	37.805
750.13	38.776
750.44	38.321
750.75	36.491
751.07	37.942
751.38	36.237
751.69	37.545
752.01	40.602
752.32	37.906
752.63	35.106
752.94	38.934
753.26	44.000
753.57	36.585
753.88	42.578
754.19	38.929
754.51	39.583
754.82	36.823
755.13	41.887
755.44	34.586
755.75	37.226
756.07	35.816
756.38	35.766
756.69	33.893
757.00	34.132
757.31	35.015
757.63	33.333
757.94	30.831
758.25	31.618
758.56	29.383
758.87	31.720
759.18	33.636
759.50	32.288
759.81	33.333
760.12	29.062
760.43	30.659
760.74	34.239
761.05	34.181
761.36	33.422
761.67	32.670
761.99	35.093
762.30	37.847
762.61	33.588
762.92	41.797
763.23	41.597
763.54	44.400
763.85	38.672
764.16	36.923
764.47	41.445
764.78	34.276
765.10	33.861
765.41	33.628
765.72	33.533
766.03	36.991
766.34	37.000
766.65	43.830
766.96	39.316
767.27	48.731
767.58	42.188
767.89	55.263
768.20	50.000
768.51	37.563
768.82	39.908
769.13	41.870
769.44	34.413
769.75	40.773
770.06	37.615
770.37	44.796
770.68	43.981
770.99	40.889
771.30	38.525
771.61	43.498
771.92	41.393
772.23	43.697
772.54	46.154
772.85	46.073
773.16	47.872
773.47	51.087
773.78	50.254
774.09	50.595
774.39	48.538
774.70	49.383
775.01	53.623
775.32	60.784
775.63	54.605
775.94	53.957
776.25	59.843
776.56	60.448
776.87	59.836
777.18	54.688
777.48	61.069
777.79	55.303
778.10	55.556
778.41	54.464
778.72	54.745
779.03	58.389
779.34	53.020
779.65	44.595
779.95	49.693
780.26	54.248
780.57	57.931
780.88	61.719
781.19	60.150
781.50	56.081
781.80	55.975
782.11	47.458
782.42	42.405
782.73	48.466
783.04	55.405
783.34	55.634
783.65	56.164
783.96	55.224
784.27	52.448
784.57	54.676
784.88	54.630
785.19	62.698
785.50	62.264
785.81	59.701
786.11	65.574
786.42	67.442
786.73	66.372
787.04	77.358
787.34	58.929
787.65	67.000
787.96	65.766
788.26	56.198
788.57	66.949
788.88	72.727
789.19	61.111
789.49	64.394
789.80	58.015
790.11	63.810
790.41	73.267
790.72	71.084
791.03	78.261
791.33	61.628
791.64	62.887
791.95	66.337
792.25	74.444
792.56	75.325
792.87	80.769
793.17	101.266
793.48	86.207
793.79	81.609
794.09	72.727
794.40	66.387
794.70	58.088
795.01	52.593
795.32	54.676
795.62	57.480
795.93	56.897
796.23	63.717
796.54	81.176
796.85	87.838
797.15	94.366
797.46	72.727
797.76	81.928
798.07	64.557
798.37	81.538
798.68	103.030
798.99	54.930
799.29	84.416
799.60	86.364
799.90	97.260
800.21	88.060
800.51	112.069
800.82	105.263
801.12	114.754
801.43	106.061
801.73	81.081
802.04	88.889
802.34	90.123
802.65	120.313
802.95	128.814
803.26	104.688
803.56	85.714
803.87	103.077
804.17	79.412
804.48	105.556
804.78	93.103
805.09	77.941
805.39	113.462
805.70	112.500
806.00	100.000
806.30	95.455
806.61	79.268
806.91	84.810
807.22	86.842
807.52	73.134
807.83	92.958
808.13	90.625
808.43	121.667
808.74	80.263
809.04	107.246
809.35	92.537
809.65	93.421
809.95	120.968
810.26	98.305
810.56	101.587
810.86	150.000
811.17	111.905
811.47	116.667
811.77	118.519
812.08	147.273
812.38	110.000
812.69	127.778
812.99	152.273
813.29	153.061
813.59	126.190
813.90	136.735
814.20	110.909
814.50	100.000
814.81	108.824
815.11	124.490
815.41	103.279
815.72	150.000
816.02	116.364
816.32	130.952
816.62	132.500
816.93	134.146
817.23	159.524
817.53	120.455
817.84	160.606
818.14	136.957
818.44	133.333
818.74	188.235
819.04	135.000
819.35	180.000
819.65	170.588
819.95	235.714
820.25	205.000
820.56	166.667
820.86	150.000
821.16	160.465
821.46	148.718
821.76	136.000
822.07	160.000
822.37	160.000
822.67	187.879
822.97	115.686
823.27	210.714
823.57	151.351
823.88	197.500
824.18	206.667
824.48	157.143
824.78	192.000
825.08	200.000
825.38	175.676
825.69	158.537
825.99	241.667
826.29	189.655
826.59	150.000
826.89	165.789
827.19	179.412
827.49	193.548
827.79	154.545
828.09	145.455
828.39	110.638
828.70	124.490
829.00	174.074
829.30	196.774
829.60	162.500
829.90	333.333
830.20	210.714
830.50	200.000
830.80	221.739
831.10	220.000
831.40	180.000
831.70	182.609
832.00	230.769
832.30	196.296
832.60	343.750
832.90	200.000
833.20	428.571
833.50	200.000
833.80	210.345
834.10	187.500
834.40	246.154
834.70	327.778
835.00	319.048
835.30	182.857
835.60	361.538
835.90	179.310
836.20	385.714
836.50	175.862
836.80	184.000
837.10	169.444
837.40	261.905
837.70	317.647
838.00	229.630
838.30	200.000
838.60	304.762
838.90	215.385
839.19	280.000
839.49	400.000
839.79	265.000
840.09	265.000
840.39	309.524
840.69	243.478
840.99	338.889
841.29	520.000
841.59	425.000
841.88	343.750
842.18	186.207
842.48	295.238
842.78	220.000
843.08	256.522
843.38	190.625
843.68	833.333
843.97	200.000
844.27	203.448
844.57	309.524
844.87	325.000
845.17	225.926
845.47	1933.333
845.76	588.889
846.06	276.471
846.36	587.500
846.66	385.714
846.96	331.250
847.25	436.364
847.55	445.455
847.85	252.174
848.15	510.000
848.44	400.000
848.74	322.222
849.04	317.647
849.34	510.000
849.63	268.421
849.93	554.545
850.23	1120.000
850.53	435.714
850.82	2750.000
851.12	-4300.000
851.42	5700.000
851.71	305.000
852.01	-1366.667
852.31	250.000
852.61	1866.667
852.90	276.190
853.20	256.000
853.50	335.294
853.79	304.762
854.09	208.333
854.39	325.000
854.68	202.703
854.98	183.871
855.28	196.667
855.57	234.483
855.87	222.222
856.17	268.421
856.46	273.333
856.76	276.471
857.05	189.655
857.35	254.167
857.65	353.333
857.94	260.870
858.24	219.231
858.53	290.000
858.83	254.545
859.13	333.333
859.42	0.000
859.72	600.000
860.01	418.182
860.31	240.909
860.60	257.895
860.90	243.478
861.20	633.333
861.49	516.667
861.79	-4300.000
862.08	725.000
862.38	280.952
862.67	376.923
862.97	400.000
863.26	566.667
863.56	283.333
863.85	416.667
864.15	650.000
864.44	373.333
864.74	1000.000
865.03	562.500
865.33	326.316
865.62	490.909
865.92	369.231
866.21	416.667
866.51	0.000
866.80	490.909
867.10	1180.000
867.39	492.308
867.69	418.182
867.98	242.105
868.27	481.818
868.57	294.737
868.86	-5000.000
869.16	393.750
869.45	2100.000
869.75	-4100.000
870.04	375.000
870.33	728.571
870.63	1275.000
870.92	2800.000
871.22	714.286
871.51	294.118
871.80	266.667
872.10	378.571
>>>>>End Processed Spectral Data<<<<<
