SpectraSuite Data File
++++++++++++++++++++++++++++++++++++
Date: Wed May 13 19:34:07 PDT 2015
User: schluterlab
Dark Spectrum Present: Yes
Reference Spectrum Present: Yes
Number of Sampled Component Spectra: 1
Spectrometers: USB2E3373
Integration Time (usec): 3000 (USB2E3373)
Spectra Averaged: 3 (USB2E3373)
Boxcar Smoothing: 0 (USB2E3373)
Correct for Electrical Dark: No (USB2E3373)
Strobe/Lamp Enabled: No (USB2E3373)
Correct for Detector Non-linearity: No (USB2E3373)
Correct for Stray Light: No (USB2E3373)
Number of Pixels in Processed Spectrum: 2048
>>>>>Begin Processed Spectral Data<<<<<
178.53	0.000
178.91	-1525.000
179.29	-1325.000
179.67	-183.333
180.04	-1350.000
180.42	2850.000
180.80	1220.000
181.18	-1050.000
181.56	857.143
181.94	0.000
182.31	-814.286
182.69	1933.333
183.07	-537.500
183.45	-611.111
183.83	627.273
184.20	-460.000
184.58	2250.000
184.96	5700.000
185.34	-1020.000
185.72	-775.000
186.09	-3150.000
186.47	3100.000
186.85	2650.000
187.23	5800.000
187.61	-1833.333
187.98	1325.000
188.36	581.818
188.74	518.182
189.12	-940.000
189.49	610.000
189.87	-6600.000
190.25	-1350.000
190.63	492.857
191.00	469.231
191.38	800.000
191.76	-1225.000
192.14	1450.000
192.51	700.000
192.89	1050.000
193.27	712.500
193.65	-1375.000
194.02	590.000
194.40	900.000
194.78	560.000
195.15	541.667
195.53	670.000
195.91	-2300.000
196.29	350.000
196.66	284.211
197.04	-450.000
197.42	0.000
197.79	580.000
198.17	-4100.000
198.55	700.000
198.92	787.500
199.30	1060.000
199.68	0.000
200.05	333.333
200.43	757.143
200.81	5200.000
201.18	1833.333
201.56	-1533.333
201.94	588.889
202.31	688.889
202.69	450.000
203.07	630.000
203.44	0.000
203.82	1525.000
204.19	800.000
204.57	414.286
204.95	612.500
205.32	1566.667
205.70	572.727
206.08	364.286
206.45	2650.000
206.83	431.250
207.20	1050.000
207.58	1120.000
207.96	361.111
208.33	775.000
208.71	-766.667
209.08	842.857
209.46	733.333
209.84	500.000
210.21	-1666.667
210.59	1175.000
210.96	-500.000
211.34	3000.000
211.71	560.000
212.09	800.000
212.46	0.000
212.84	1900.000
213.22	1325.000
213.59	-5000.000
213.97	966.667
214.34	971.429
214.72	627.273
215.09	1220.000
215.47	-2150.000
215.84	-3100.000
216.22	1900.000
216.59	435.714
216.97	1600.000
217.34	572.727
217.72	-900.000
218.09	0.000
218.47	-5100.000
218.84	655.556
219.22	814.286
219.59	1766.667
219.97	-500.000
220.34	980.000
220.72	-2133.333
221.09	457.143
221.47	1500.000
221.84	-1050.000
222.22	0.000
222.59	1250.000
222.97	-2450.000
223.34	1160.000
223.72	446.154
224.09	1320.000
224.46	2750.000
224.84	-5600.000
225.21	-960.000
225.59	-4600.000
225.96	680.000
226.34	335.000
226.71	2950.000
227.08	600.000
227.46	590.000
227.83	-1075.000
228.21	-2650.000
228.58	655.556
228.95	-2950.000
229.33	-2750.000
229.70	1700.000
230.08	828.571
230.45	-880.000
230.82	466.667
231.20	833.333
231.57	700.000
231.95	516.667
232.32	263.636
232.69	527.273
233.07	785.714
233.44	407.692
233.81	-1600.000
234.19	310.526
234.56	383.333
234.93	425.000
235.31	554.545
235.68	238.462
236.05	364.286
236.43	175.758
236.80	273.684
237.17	4600.000
237.55	257.143
237.92	225.000
238.29	242.857
238.67	187.097
239.04	193.103
239.41	138.889
239.79	121.739
240.16	142.857
240.53	134.091
240.91	109.804
241.28	106.000
241.65	120.000
242.02	104.348
242.40	90.323
242.77	95.000
243.14	82.796
243.51	71.910
243.89	72.941
244.26	63.333
244.63	53.763
245.00	52.128
245.38	50.495
245.75	52.336
246.12	48.624
246.49	43.796
246.87	64.000
247.24	49.231
247.61	41.429
247.98	45.098
248.36	39.865
248.73	38.217
249.10	40.764
249.47	36.723
249.84	36.364
250.22	37.433
250.59	34.911
250.96	37.374
251.33	33.175
251.70	30.198
252.08	32.857
252.45	26.906
252.82	27.826
253.19	27.660
253.56	28.627
253.94	31.120
254.31	26.172
254.68	33.846
255.05	21.033
255.42	27.236
255.79	28.676
256.16	24.910
256.54	22.261
256.91	27.046
257.28	24.101
257.65	24.422
258.02	22.360
258.39	21.136
258.76	24.415
259.14	21.429
259.51	22.188
259.88	16.770
260.25	19.335
260.62	23.121
260.99	21.739
261.36	21.622
261.73	19.198
262.10	18.895
262.47	21.127
262.85	20.056
263.22	17.664
263.59	18.803
263.96	20.604
264.33	20.104
264.70	18.158
265.07	20.460
265.44	17.929
265.81	18.005
266.18	19.095
266.55	19.268
266.92	20.147
267.29	19.907
267.66	18.119
268.03	14.773
268.40	16.822
268.77	16.468
269.14	17.117
269.51	18.736
269.88	18.415
270.25	18.059
270.62	17.753
270.99	18.710
271.36	16.738
271.73	17.056
272.10	15.217
272.47	16.344
272.84	15.152
273.21	16.981
273.58	18.341
273.95	15.933
274.32	14.876
274.69	16.488
275.06	13.386
275.43	14.681
275.80	15.230
276.17	15.479
276.54	17.048
276.91	14.625
277.28	13.477
277.65	16.441
278.02	15.942
278.39	15.234
278.76	16.000
279.13	16.981
279.50	14.525
279.87	14.741
280.23	16.567
280.60	13.540
280.97	14.233
281.34	14.159
281.71	16.909
282.08	15.739
282.45	13.636
282.82	13.499
283.19	13.012
283.56	14.211
283.92	14.721
284.29	13.757
284.66	14.338
285.03	14.467
285.40	13.028
285.77	12.963
286.14	14.162
286.51	14.167
286.87	14.017
287.24	13.192
287.61	13.002
287.98	13.961
288.35	12.678
288.72	13.084
289.08	14.085
289.45	12.850
289.82	13.008
290.19	12.402
290.56	10.873
290.93	12.689
291.29	12.270
291.66	11.209
292.03	13.081
292.40	13.069
292.77	12.278
293.13	11.642
293.50	11.808
293.87	10.815
294.24	10.370
294.60	10.771
294.97	11.483
295.34	11.989
295.71	11.648
296.08	11.538
296.44	11.692
296.81	9.908
297.18	13.279
297.55	8.179
297.91	10.026
298.28	12.450
298.65	10.966
299.02	11.199
299.38	9.562
299.75	8.760
300.12	10.089
300.48	10.875
300.85	10.604
301.22	10.191
301.59	9.091
301.95	9.950
302.32	9.371
302.69	10.036
303.05	9.091
303.42	10.247
303.79	8.154
304.15	9.790
304.52	8.111
304.89	9.292
305.25	8.701
305.62	8.947
305.99	9.799
306.35	8.725
306.72	9.978
307.09	9.878
307.45	10.135
307.82	7.478
308.19	9.713
308.55	10.248
308.92	9.560
309.29	8.765
309.65	9.544
310.02	10.148
310.38	8.710
310.75	9.926
311.12	10.133
311.48	9.195
311.85	9.958
312.22	9.573
312.58	7.588
312.95	9.609
313.31	9.223
313.68	9.667
314.05	11.440
314.41	8.844
314.78	9.970
315.14	9.732
315.51	10.711
315.87	11.089
316.24	10.328
316.61	9.552
316.97	10.470
317.34	10.372
317.70	10.994
318.07	11.357
318.43	12.035
318.80	12.184
319.16	11.582
319.53	10.788
319.89	12.190
320.26	13.000
320.62	11.706
320.99	13.030
321.35	12.929
321.72	13.244
322.08	14.215
322.45	14.726
322.81	15.601
323.18	14.933
323.54	15.306
323.91	15.943
324.27	14.818
324.64	15.750
325.00	14.698
325.37	15.378
325.73	16.697
326.10	15.357
326.46	16.756
326.83	16.480
327.19	17.763
327.56	15.767
327.92	16.973
328.29	18.634
328.65	19.337
329.01	18.321
329.38	18.686
329.74	18.006
330.11	19.227
330.47	18.825
330.84	20.037
331.20	18.670
331.56	18.165
331.93	17.407
332.29	19.077
332.66	20.442
333.02	20.567
333.38	21.138
333.75	20.677
334.11	20.819
334.48	20.497
334.84	19.761
335.20	21.545
335.57	20.036
335.93	20.179
336.29	20.604
336.66	22.002
337.02	20.271
337.38	21.296
337.75	19.964
338.11	21.397
338.47	20.994
338.84	20.623
339.20	21.560
339.56	22.536
339.93	20.545
340.29	21.649
340.65	21.301
341.02	22.077
341.38	21.530
341.74	21.316
342.11	22.271
342.47	21.762
342.83	21.062
343.20	22.511
343.56	22.578
343.92	22.632
344.28	21.599
344.65	23.818
345.01	21.212
345.37	21.698
345.73	22.589
346.10	22.762
346.46	22.627
346.82	22.570
347.19	22.055
347.55	23.071
347.91	23.301
348.27	24.569
348.63	22.826
349.00	22.816
349.36	23.153
349.72	23.176
350.08	23.096
350.45	23.678
350.81	23.152
351.17	24.230
351.53	22.359
351.89	23.762
352.26	23.678
352.62	23.577
352.98	23.582
353.34	24.158
353.70	23.322
354.07	25.403
354.43	23.889
354.79	23.813
355.15	24.741
355.51	24.221
355.87	24.898
356.24	24.186
356.60	23.897
356.96	25.342
357.32	25.511
357.68	25.276
358.04	25.257
358.40	26.128
358.77	26.448
359.13	26.125
359.49	26.275
359.85	23.571
360.21	25.199
360.57	26.459
360.93	27.000
361.29	25.850
361.66	25.929
362.02	25.821
362.38	26.160
362.74	26.711
363.10	25.093
363.46	25.972
363.82	26.228
364.18	25.771
364.54	27.786
364.90	26.983
365.26	25.809
365.62	27.173
365.98	25.858
366.35	25.931
366.71	27.187
367.07	28.186
367.43	28.665
367.79	27.837
368.15	28.017
368.51	26.744
368.87	27.052
369.23	27.286
369.59	28.313
369.95	28.824
370.31	27.778
370.67	28.116
371.03	29.288
371.39	28.134
371.75	27.868
372.11	27.383
372.47	28.886
372.83	29.323
373.19	28.251
373.55	29.490
373.91	30.044
374.27	27.973
374.63	28.655
374.99	29.661
375.35	27.913
375.71	28.992
376.07	29.698
376.42	29.986
376.78	29.423
377.14	29.715
377.50	29.669
377.86	28.923
378.22	29.520
378.58	29.637
378.94	30.295
379.30	30.216
379.66	29.632
380.02	31.695
380.38	29.751
380.74	31.212
381.09	30.685
381.45	31.469
381.81	30.713
382.17	31.783
382.53	31.321
382.89	31.420
383.25	31.957
383.61	31.846
383.97	30.769
384.32	31.067
384.68	31.475
385.04	31.715
385.40	31.455
385.76	31.941
386.12	31.801
386.48	32.159
386.83	32.713
387.19	32.839
387.55	32.406
387.91	31.923
388.27	32.863
388.62	32.821
388.98	32.002
389.34	33.354
389.70	32.679
390.06	33.460
390.42	32.490
390.77	32.888
391.13	34.014
391.49	32.931
391.85	32.973
392.20	32.303
392.56	33.649
392.92	33.314
393.28	33.195
393.64	32.974
393.99	33.048
394.35	33.561
394.71	32.685
395.07	32.586
395.42	34.363
395.78	34.097
396.14	34.078
396.50	34.837
396.85	33.694
397.21	33.107
397.57	34.098
397.92	33.594
398.28	33.184
398.64	33.990
399.00	33.576
399.35	33.954
399.71	33.333
400.07	33.826
400.42	33.742
400.78	34.439
401.14	33.902
401.49	34.269
401.85	33.636
402.21	33.174
402.57	33.683
402.92	34.552
403.28	35.290
403.63	34.344
403.99	35.096
404.35	33.333
404.70	34.173
405.06	33.489
405.42	34.186
405.77	33.600
406.13	33.804
406.49	34.004
406.84	33.845
407.20	32.801
407.55	33.950
407.91	34.533
408.27	33.759
408.62	33.654
408.98	34.069
409.34	34.194
409.69	34.387
410.05	34.387
410.40	34.618
410.76	34.707
411.11	33.534
411.47	33.610
411.83	34.270
412.18	33.581
412.54	35.056
412.89	33.976
413.25	34.061
413.60	33.663
413.96	33.151
414.31	33.354
414.67	33.967
415.03	33.841
415.38	34.214
415.74	33.891
416.09	35.271
416.45	33.869
416.80	34.104
417.16	34.316
417.51	34.705
417.87	32.755
418.22	33.691
418.58	34.474
418.93	34.091
419.29	33.673
419.64	34.131
420.00	34.146
420.35	32.232
420.71	33.951
421.06	32.220
421.42	33.216
421.77	33.800
422.12	31.948
422.48	32.110
422.83	33.663
423.19	34.088
423.54	33.256
423.90	33.101
424.25	32.775
424.61	33.929
424.96	34.519
425.31	32.946
425.67	31.966
426.02	32.343
426.38	33.578
426.73	32.300
427.09	32.705
427.44	32.777
427.79	32.317
428.15	33.333
428.50	32.651
428.85	32.002
429.21	31.088
429.56	32.037
429.92	31.303
430.27	31.380
430.62	31.644
430.98	31.915
431.33	32.216
431.68	31.466
432.04	31.257
432.39	31.354
432.74	32.017
433.10	31.522
433.45	31.545
433.80	30.931
434.16	30.716
434.51	31.000
434.86	31.129
435.22	31.462
435.57	32.644
435.92	30.720
436.28	31.613
436.63	31.236
436.98	31.139
437.34	31.127
437.69	31.155
438.04	30.972
438.39	30.388
438.75	31.028
439.10	30.838
439.45	30.756
439.81	30.634
440.16	30.717
440.51	30.814
440.86	30.863
441.22	30.145
441.57	30.998
441.92	31.269
442.27	30.194
442.63	31.174
442.98	30.648
443.33	29.457
443.68	30.098
444.03	29.380
444.39	27.945
444.74	30.465
445.09	29.218
445.44	29.798
445.79	29.243
446.15	29.804
446.50	28.864
446.85	28.366
447.20	28.608
447.55	28.252
447.91	28.682
448.26	29.271
448.61	28.604
448.96	30.565
449.31	29.190
449.66	28.475
450.02	27.855
450.37	27.948
450.72	29.047
451.07	28.946
451.42	28.207
451.77	28.362
452.12	28.176
452.47	28.420
452.83	28.205
453.18	28.301
453.53	28.324
453.88	29.002
454.23	27.854
454.58	28.589
454.93	28.481
455.28	26.683
455.63	28.095
455.98	28.095
456.34	28.141
456.69	27.927
457.04	27.245
457.39	26.534
457.74	27.336
458.09	28.120
458.44	26.796
458.79	26.410
459.14	27.032
459.49	27.437
459.84	26.704
460.19	25.869
460.54	25.694
460.89	25.946
461.24	26.108
461.59	26.322
461.94	25.462
462.29	27.418
462.64	25.846
462.99	25.114
463.34	26.667
463.69	25.141
464.04	24.986
464.39	25.391
464.74	25.490
465.09	25.513
465.44	24.266
465.79	24.049
466.14	24.357
466.49	23.637
466.84	24.810
467.19	24.562
467.54	25.188
467.89	24.310
468.24	23.793
468.59	24.420
468.94	23.458
469.29	24.036
469.64	24.163
469.99	23.613
470.34	23.184
470.68	23.491
471.03	23.605
471.38	24.739
471.73	23.185
472.08	23.289
472.43	22.990
472.78	23.239
473.13	23.492
473.48	22.909
473.83	23.171
474.17	22.962
474.52	22.953
474.87	22.884
475.22	22.577
475.57	21.010
475.92	21.880
476.27	22.266
476.61	21.842
476.96	21.990
477.31	21.821
477.66	22.593
478.01	20.805
478.36	21.417
478.70	21.028
479.05	21.565
479.40	20.676
479.75	21.149
480.10	21.123
480.45	19.848
480.79	20.401
481.14	20.303
481.49	20.361
481.84	19.753
482.19	19.991
482.53	20.413
482.88	20.428
483.23	20.327
483.58	20.200
483.92	19.963
484.27	19.129
484.62	19.138
484.97	19.117
485.31	18.836
485.66	17.822
486.01	17.004
486.36	16.629
486.70	16.435
487.05	16.982
487.40	17.620
487.75	17.853
488.09	17.743
488.44	18.145
488.79	18.083
489.13	18.144
489.48	18.434
489.83	18.602
490.17	18.851
490.52	18.423
490.87	18.272
491.22	18.554
491.56	17.039
491.91	17.171
492.26	17.593
492.60	17.650
492.95	17.399
493.30	17.290
493.64	18.245
493.99	17.317
494.34	18.039
494.68	17.949
495.03	18.139
495.37	17.729
495.72	18.080
496.07	18.051
496.41	16.504
496.76	16.579
497.11	17.109
497.45	17.466
497.80	16.651
498.14	17.053
498.49	17.366
498.84	16.826
499.18	17.048
499.53	16.809
499.87	16.496
500.22	17.098
500.56	16.990
500.91	16.010
501.26	16.453
501.60	17.228
501.95	16.407
502.29	16.401
502.64	16.853
502.98	15.708
503.33	16.179
503.67	16.334
504.02	15.762
504.36	16.378
504.71	16.219
505.06	16.482
505.40	16.043
505.75	15.574
506.09	15.695
506.44	16.280
506.78	16.123
507.13	16.608
507.47	16.970
507.82	16.464
508.16	16.363
508.51	16.134
508.85	15.541
509.19	15.204
509.54	15.714
509.88	16.229
510.23	15.681
510.57	16.512
510.92	16.209
511.26	15.519
511.61	16.442
511.95	15.344
512.30	15.217
512.64	16.174
512.98	16.077
513.33	16.488
513.67	15.475
514.02	15.963
514.36	16.330
514.70	15.938
515.05	15.505
515.39	15.872
515.74	16.385
516.08	16.546
516.42	16.204
516.77	15.886
517.11	15.150
517.46	15.801
517.80	16.202
518.14	15.402
518.49	15.986
518.83	14.830
519.17	15.820
519.52	14.488
519.86	15.573
520.20	16.185
520.55	16.996
520.89	16.119
521.23	15.320
521.58	15.786
521.92	15.493
522.26	15.497
522.61	15.950
522.95	15.224
523.29	15.764
523.64	15.549
523.98	15.404
524.32	15.139
524.66	15.514
525.01	15.441
525.35	16.047
525.69	15.640
526.04	16.075
526.38	15.314
526.72	14.540
527.06	15.254
527.41	15.408
527.75	15.563
528.09	15.350
528.43	15.743
528.78	16.103
529.12	14.909
529.46	15.064
529.80	15.161
530.15	15.140
530.49	14.154
530.83	15.570
531.17	16.384
531.51	16.537
531.86	15.226
532.20	15.776
532.54	15.695
532.88	15.469
533.22	14.991
533.57	15.494
533.91	15.172
534.25	14.763
534.59	14.399
534.93	14.932
535.27	14.967
535.62	15.446
535.96	15.568
536.30	14.749
536.64	15.196
536.98	16.257
537.32	14.417
537.66	14.733
538.01	15.142
538.35	15.449
538.69	14.997
539.03	15.335
539.37	14.313
539.71	13.999
540.05	15.425
540.39	14.884
540.73	15.136
541.07	14.731
541.42	15.003
541.76	15.806
542.10	15.718
542.44	15.364
542.78	15.152
543.12	13.628
543.46	14.885
543.80	14.314
544.14	14.185
544.48	15.492
544.82	14.817
545.16	15.029
545.50	14.010
545.84	13.978
546.18	14.815
546.52	14.453
546.86	14.364
547.20	15.307
547.54	14.896
547.88	15.242
548.22	14.259
548.56	14.528
548.90	13.892
549.24	12.929
549.58	14.461
549.92	14.217
550.26	14.631
550.60	14.454
550.94	14.366
551.28	13.680
551.62	14.881
551.96	14.737
552.30	15.017
552.64	15.078
552.98	14.508
553.32	14.902
553.66	13.974
554.00	14.413
554.34	14.424
554.68	15.737
555.02	14.175
555.36	14.823
555.69	13.667
556.03	13.930
556.37	14.598
556.71	14.393
557.05	13.655
557.39	13.996
557.73	14.538
558.07	14.576
558.41	14.182
558.75	14.328
559.08	14.392
559.42	14.588
559.76	14.853
560.10	13.847
560.44	13.767
560.78	12.974
561.12	14.116
561.45	14.146
561.79	14.107
562.13	13.280
562.47	13.251
562.81	14.505
563.15	13.779
563.48	14.854
563.82	13.633
564.16	12.623
564.50	13.151
564.84	13.717
565.17	13.127
565.51	13.994
565.85	13.135
566.19	13.087
566.52	13.173
566.86	13.261
567.20	12.913
567.54	12.900
567.88	12.548
568.21	13.016
568.55	13.145
568.89	12.257
569.23	11.631
569.56	11.174
569.90	11.849
570.24	11.231
570.57	11.459
570.91	10.569
571.25	11.365
571.59	10.839
571.92	10.599
572.26	11.150
572.60	11.081
572.93	10.885
573.27	11.239
573.61	10.804
573.95	10.568
574.28	10.327
574.62	10.350
574.96	10.514
575.29	10.330
575.63	10.518
575.97	10.752
576.30	11.126
576.64	10.488
576.98	10.185
577.31	10.421
577.65	10.163
577.98	10.153
578.32	10.048
578.66	10.126
578.99	10.523
579.33	10.143
579.67	10.022
580.00	10.333
580.34	10.489
580.67	10.447
581.01	10.456
581.35	10.043
581.68	9.857
582.02	9.743
582.35	9.910
582.69	10.271
583.02	10.295
583.36	10.261
583.70	10.639
584.03	10.763
584.37	10.698
584.70	10.345
585.04	10.568
585.37	10.461
585.71	10.291
586.04	10.027
586.38	10.371
586.72	11.433
587.05	10.160
587.39	10.079
587.72	10.435
588.06	10.272
588.39	10.864
588.73	10.707
589.06	10.938
589.40	11.145
589.73	11.017
590.07	11.032
590.40	10.851
590.73	11.085
591.07	11.762
591.40	11.472
591.74	12.208
592.07	12.173
592.41	11.534
592.74	10.936
593.08	11.193
593.41	10.661
593.75	10.712
594.08	10.526
594.41	11.099
594.75	10.721
595.08	11.167
595.42	11.173
595.75	11.182
596.09	10.965
596.42	11.631
596.75	11.313
597.09	11.602
597.42	10.919
597.75	11.600
598.09	11.652
598.42	10.997
598.76	10.499
599.09	11.250
599.42	10.735
599.76	10.432
600.09	10.200
600.42	10.628
600.76	10.571
601.09	10.565
601.42	10.845
601.76	11.385
602.09	11.146
602.42	11.664
602.76	11.729
603.09	11.408
603.42	11.128
603.76	10.823
604.09	10.585
604.42	11.007
604.76	11.725
605.09	11.402
605.42	10.945
605.75	10.555
606.09	10.939
606.42	11.034
606.75	11.448
607.09	11.009
607.42	10.655
607.75	10.549
608.08	10.942
608.42	11.564
608.75	11.271
609.08	11.610
609.41	11.518
609.75	11.053
610.08	11.687
610.41	11.034
610.74	11.400
611.07	11.660
611.41	11.629
611.74	11.966
612.07	11.957
612.40	12.067
612.73	11.632
613.07	11.853
613.40	11.901
613.73	10.488
614.06	11.828
614.39	11.904
614.72	11.684
615.06	11.922
615.39	11.518
615.72	11.912
616.05	11.430
616.38	11.506
616.71	12.589
617.05	12.073
617.38	12.087
617.71	11.712
618.04	12.680
618.37	12.537
618.70	12.632
619.03	12.763
619.36	12.627
619.69	12.535
620.03	12.637
620.36	13.570
620.69	13.699
621.02	13.717
621.35	12.843
621.68	12.928
622.01	12.771
622.34	12.935
622.67	12.548
623.00	12.693
623.33	12.938
623.66	13.510
623.99	13.623
624.32	12.696
624.65	13.771
624.99	13.385
625.32	12.238
625.65	12.096
625.98	12.913
626.31	13.219
626.64	14.612
626.97	13.383
627.30	12.718
627.63	14.684
627.96	14.130
628.29	13.211
628.62	12.717
628.95	15.660
629.28	13.504
629.61	15.582
629.94	14.190
630.26	13.727
630.59	14.490
630.92	15.421
631.25	12.241
631.58	15.115
631.91	14.706
632.24	13.291
632.57	16.055
632.90	14.583
633.23	15.772
633.56	14.915
633.89	15.629
634.22	14.756
634.55	14.556
634.88	14.491
635.20	16.368
635.53	15.422
635.86	14.728
636.19	15.294
636.52	15.917
636.85	15.578
637.18	14.747
637.51	16.312
637.83	15.043
638.16	16.113
638.49	15.869
638.82	17.446
639.15	16.875
639.48	16.584
639.81	16.890
640.13	17.448
640.46	16.376
640.79	16.909
641.12	14.993
641.45	15.642
641.77	18.262
642.10	16.959
642.43	16.667
642.76	18.111
643.09	15.951
643.41	15.175
643.74	16.204
644.07	17.226
644.40	18.712
644.73	18.898
645.05	18.067
645.38	18.167
645.71	17.874
646.04	17.774
646.36	19.699
646.69	18.060
647.02	18.537
647.35	18.385
647.67	17.168
648.00	19.675
648.33	17.327
648.66	17.121
648.98	17.091
649.31	15.396
649.64	16.592
649.96	17.139
650.29	17.378
650.62	16.667
650.94	17.990
651.27	18.412
651.60	17.970
651.92	19.169
652.25	15.635
652.58	17.913
652.90	15.956
653.23	17.257
653.56	17.165
653.88	18.542
654.21	17.852
654.54	15.842
654.86	18.536
655.19	15.946
655.52	9.564
655.84	7.079
656.17	9.009
656.49	12.126
656.82	12.782
657.15	9.837
657.47	7.391
657.80	5.946
658.13	6.273
658.45	9.214
658.78	9.027
659.10	9.699
659.43	10.075
659.75	10.674
660.08	12.785
660.41	14.898
660.73	17.154
661.06	18.153
661.38	20.727
661.71	18.269
662.03	20.513
662.36	19.483
662.68	20.482
663.01	18.990
663.33	21.444
663.66	21.639
663.98	18.575
664.31	20.168
664.63	18.826
664.96	17.103
665.28	19.672
665.61	21.442
665.93	19.718
666.26	18.864
666.58	17.782
666.91	21.987
667.23	21.348
667.56	18.575
667.88	20.726
668.21	19.403
668.53	17.787
668.86	18.831
669.18	22.175
669.50	22.826
669.83	22.876
670.15	19.556
670.48	19.608
670.80	20.905
671.13	21.231
671.45	19.362
671.77	21.996
672.10	18.299
672.42	16.784
672.75	18.076
673.07	15.669
673.39	18.264
673.72	19.141
674.04	18.627
674.37	19.417
674.69	21.268
675.01	18.619
675.34	20.534
675.66	22.947
675.98	19.348
676.31	22.689
676.63	22.293
676.95	20.335
677.28	21.028
677.60	18.681
677.92	23.418
678.25	21.150
678.57	21.514
678.89	19.439
679.22	18.861
679.54	18.893
679.86	19.083
680.18	18.426
680.51	18.617
680.83	19.751
681.15	19.623
681.48	20.794
681.80	19.149
682.12	19.349
682.44	17.408
682.77	19.959
683.09	23.820
683.41	19.290
683.73	19.868
684.06	22.314
684.38	20.744
684.70	21.318
685.02	18.949
685.34	20.696
685.67	14.336
685.99	17.869
686.31	18.942
686.63	17.491
686.96	18.750
687.28	18.231
687.60	16.304
687.92	18.464
688.24	21.103
688.56	20.482
688.89	20.124
689.21	21.397
689.53	21.712
689.85	22.616
690.17	19.048
690.49	22.930
690.82	19.626
691.14	21.652
691.46	16.245
691.78	22.289
692.10	19.008
692.42	18.762
692.74	18.880
693.06	19.362
693.39	18.686
693.71	18.341
694.03	20.842
694.35	19.697
694.67	21.281
694.99	23.171
695.31	18.627
695.63	21.292
695.95	22.005
696.27	19.797
696.59	20.466
696.91	23.316
697.23	19.718
697.56	20.896
697.88	16.973
698.20	21.667
698.52	20.000
698.84	22.049
699.16	20.507
699.48	19.952
699.80	24.638
700.12	24.156
700.44	23.607
700.76	24.309
701.08	21.552
701.40	22.067
701.72	24.781
702.04	28.977
702.36	22.096
702.68	23.229
703.00	20.776
703.32	24.468
703.64	26.542
703.96	23.677
704.28	26.453
704.60	23.167
704.91	24.036
705.23	25.806
705.55	26.246
705.87	29.236
706.19	25.795
706.51	27.103
706.83	25.758
707.15	25.490
707.47	22.980
707.79	19.165
708.11	22.374
708.43	19.524
708.74	19.388
709.06	23.117
709.38	22.835
709.70	21.512
710.02	29.080
710.34	25.455
710.66	26.269
710.98	24.716
711.29	25.000
711.61	28.909
711.93	25.962
712.25	29.904
712.57	28.309
712.89	29.066
713.20	25.532
713.52	27.303
713.84	27.215
714.16	22.866
714.48	25.287
714.80	26.444
715.11	22.767
715.43	22.255
715.75	23.768
716.07	25.879
716.39	25.078
716.70	27.575
717.02	28.058
717.34	27.562
717.66	29.851
717.97	33.865
718.29	28.889
718.61	28.102
718.93	27.941
719.24	27.682
719.56	30.169
719.88	29.492
720.20	31.757
720.51	31.359
720.83	30.112
721.15	29.478
721.46	27.305
721.78	30.108
722.10	29.811
722.42	28.195
722.73	31.835
723.05	32.787
723.37	24.696
723.68	32.432
724.00	28.049
724.32	29.435
724.63	29.268
724.95	28.452
725.27	30.364
725.58	30.078
725.90	31.387
726.22	26.038
726.53	27.431
726.85	26.280
727.16	28.470
727.48	27.305
727.80	26.894
728.11	30.072
728.43	27.308
728.74	27.599
729.06	30.292
729.38	33.456
729.69	27.402
730.01	26.621
730.32	22.569
730.64	23.746
730.96	22.112
731.27	24.503
731.59	22.630
731.90	22.449
732.22	27.019
732.53	24.149
732.85	25.321
733.16	26.688
733.48	26.578
733.80	26.299
734.11	26.433
734.43	23.669
734.74	25.429
735.06	24.928
735.37	25.434
735.69	25.796
736.00	29.739
736.32	25.234
736.63	24.601
736.95	29.712
737.26	19.728
737.58	24.839
737.89	26.756
738.21	28.328
738.52	25.714
738.83	24.906
739.15	26.154
739.46	26.277
739.78	32.639
740.09	27.692
740.41	27.419
740.72	25.436
741.04	31.481
741.35	30.833
741.66	34.222
741.98	28.774
742.29	36.842
742.61	31.897
742.92	30.317
743.23	31.624
743.55	33.600
743.86	33.772
744.18	32.301
744.49	33.971
744.80	33.333
745.12	37.273
745.43	33.921
745.74	36.036
746.06	36.239
746.37	33.632
746.68	32.579
747.00	33.796
747.31	34.286
747.62	27.434
747.94	30.837
748.25	29.787
748.56	35.242
748.88	33.663
749.19	40.500
749.50	32.093
749.82	30.894
750.13	28.163
750.44	26.277
750.75	26.667
751.07	33.119
751.38	27.178
751.69	29.242
752.01	29.323
752.32	26.354
752.63	28.014
752.94	26.639
753.26	34.800
753.57	32.927
753.88	34.766
754.19	31.429
754.51	29.861
754.82	23.466
755.13	30.566
755.44	27.820
755.75	28.102
756.07	24.823
756.38	26.277
756.69	31.544
757.00	25.749
757.31	26.706
757.63	26.608
757.94	24.397
758.25	22.304
758.56	21.975
758.87	22.581
759.18	26.667
759.50	25.705
759.81	20.561
760.12	21.562
760.43	28.653
760.74	22.554
761.05	27.119
761.36	22.995
761.67	26.136
761.99	27.019
762.30	27.083
762.61	25.191
762.92	32.813
763.23	33.193
763.54	31.600
763.85	25.000
764.16	30.769
764.47	30.038
764.78	26.502
765.10	22.785
765.41	26.549
765.72	25.150
766.03	26.959
766.34	24.667
766.65	32.340
766.96	30.769
767.27	41.624
767.58	36.979
767.89	43.158
768.20	40.805
768.51	35.533
768.82	30.275
769.13	28.862
769.44	31.174
769.75	27.039
770.06	27.982
770.37	32.579
770.68	36.111
770.99	30.667
771.30	29.918
771.61	35.426
771.92	31.967
772.23	33.193
772.54	35.385
772.85	36.649
773.16	38.830
773.47	43.478
773.78	42.640
774.09	39.286
774.39	48.538
774.70	35.185
775.01	44.203
775.32	48.366
775.63	44.737
775.94	38.849
776.25	57.480
776.56	50.746
776.87	43.443
777.18	50.781
777.48	52.672
777.79	54.545
778.10	52.593
778.41	51.786
778.72	49.635
779.03	44.966
779.34	47.651
779.65	33.784
779.95	43.558
780.26	50.980
780.57	47.586
780.88	53.906
781.19	47.368
781.50	45.946
781.80	43.396
782.11	42.938
782.42	36.709
782.73	37.423
783.04	41.892
783.34	41.549
783.65	55.479
783.96	54.478
784.27	49.650
784.57	41.007
784.88	39.815
785.19	61.905
785.50	50.943
785.81	52.985
786.11	55.738
786.42	57.364
786.73	56.637
787.04	58.491
787.34	50.893
787.65	60.000
787.96	62.162
788.26	41.322
788.57	56.780
788.88	58.678
789.19	52.778
789.49	62.121
789.80	48.092
790.11	55.238
790.41	66.337
790.72	69.880
791.03	55.435
791.33	68.605
791.64	74.227
791.95	75.248
792.25	65.556
792.56	74.026
792.87	84.615
793.17	83.544
793.48	82.759
793.79	58.621
794.09	69.318
794.40	57.983
794.70	63.971
795.01	43.704
795.32	54.676
795.62	52.756
795.93	50.862
796.23	62.832
796.54	64.706
796.85	79.730
797.15	98.592
797.46	77.273
797.76	81.928
798.07	74.684
798.37	70.769
798.68	109.091
798.99	81.690
799.29	83.117
799.60	85.227
799.90	86.301
800.21	95.522
800.51	100.000
800.82	101.754
801.12	95.082
801.43	107.576
801.73	78.378
802.04	109.524
802.34	66.667
802.65	100.000
802.95	122.034
803.26	98.438
803.56	84.286
803.87	83.077
804.17	95.588
804.48	116.667
804.78	89.655
805.09	86.765
805.39	103.846
805.70	96.429
806.00	96.721
806.30	95.455
806.61	79.268
806.91	73.418
807.22	82.895
807.52	73.134
807.83	105.634
808.13	89.062
808.43	96.667
808.74	63.158
809.04	98.551
809.35	98.507
809.65	85.526
809.95	98.387
810.26	89.831
810.56	96.825
810.86	129.545
811.17	152.381
811.47	120.000
811.77	107.407
812.08	114.545
812.38	106.000
812.69	133.333
812.99	150.000
813.29	128.571
813.59	133.333
813.90	112.245
814.20	85.455
814.50	90.769
814.81	94.118
815.11	124.490
815.41	95.082
815.72	138.095
816.02	116.364
816.32	140.476
816.62	152.500
816.93	136.585
817.23	154.762
817.53	125.000
817.84	190.909
818.14	160.870
818.44	128.889
818.74	173.529
819.04	127.500
819.35	188.571
819.65	176.471
819.95	235.714
820.25	215.000
820.56	161.538
820.86	134.091
821.16	158.140
821.46	135.897
821.76	150.000
822.07	171.429
822.37	160.000
822.67	172.727
822.97	109.804
823.27	182.143
823.57	170.270
823.88	177.500
824.18	166.667
824.48	157.143
824.78	216.000
825.08	212.500
825.38	170.270
825.69	146.341
825.99	250.000
826.29	179.310
826.59	176.316
826.89	152.632
827.19	150.000
827.49	158.065
827.79	138.636
828.09	127.273
828.39	151.064
828.70	144.898
829.00	170.370
829.30	164.516
829.60	130.000
829.90	333.333
830.20	235.714
830.50	226.087
830.80	239.130
831.10	213.333
831.40	193.333
831.70	221.739
832.00	211.538
832.30	229.630
832.60	362.500
832.90	220.000
833.20	400.000
833.50	206.452
833.80	189.655
834.10	215.625
834.40	257.692
834.70	327.778
835.00	338.095
835.30	191.429
835.60	323.077
835.90	213.793
836.20	400.000
836.50	172.414
836.80	224.000
837.10	200.000
837.40	228.571
837.70	311.765
838.00	225.926
838.30	266.667
838.60	257.143
838.90	223.077
839.19	275.000
839.49	442.857
839.79	340.000
840.09	295.000
840.39	271.429
840.69	239.130
840.99	377.778
841.29	460.000
841.59	425.000
841.88	393.750
842.18	175.862
842.48	338.095
842.78	220.000
843.08	234.783
843.38	165.625
843.68	900.000
843.97	223.077
844.27	206.897
844.57	328.571
844.87	381.250
845.17	225.926
845.47	1533.333
845.76	511.111
846.06	317.647
846.36	600.000
846.66	378.571
846.96	306.250
847.25	581.818
847.55	409.091
847.85	221.739
848.15	570.000
848.44	400.000
848.74	316.667
849.04	341.176
849.34	630.000
849.63	284.211
849.93	463.636
850.23	940.000
850.53	421.429
850.82	2400.000
851.12	-4200.000
851.42	4700.000
851.71	285.000
852.01	-1033.333
852.31	245.833
852.61	1766.667
852.90	257.143
853.20	264.000
853.50	276.471
853.79	300.000
854.09	212.500
854.39	318.750
854.68	189.189
854.98	212.903
855.28	200.000
855.57	227.586
855.87	229.630
856.17	263.158
856.46	260.000
856.76	323.529
857.05	206.897
857.35	250.000
857.65	420.000
857.94	234.783
858.24	242.308
858.53	315.000
858.83	286.364
859.13	340.000
859.42	0.000
859.72	533.333
860.01	463.636
860.31	272.727
860.60	300.000
860.90	278.261
861.20	577.778
861.49	475.000
861.79	-4800.000
862.08	800.000
862.38	295.238
862.67	438.462
862.97	341.176
863.26	566.667
863.56	316.667
863.85	433.333
864.15	662.500
864.44	386.667
864.74	950.000
865.03	675.000
865.33	336.842
865.62	418.182
865.92	492.308
866.21	375.000
866.51	0.000
866.80	554.545
867.10	1260.000
867.39	446.154
867.69	490.909
867.98	226.316
868.27	554.545
868.57	300.000
868.86	-4300.000
869.16	387.500
869.45	2450.000
869.75	-4600.000
870.04	383.333
870.33	785.714
870.63	1125.000
870.92	2500.000
871.22	728.571
871.51	347.059
871.80	266.667
872.10	400.000
>>>>>End Processed Spectral Data<<<<<
