SpectraSuite Data File
++++++++++++++++++++++++++++++++++++
Date: Wed May 13 19:27:55 PDT 2015
User: schluterlab
Dark Spectrum Present: Yes
Reference Spectrum Present: Yes
Number of Sampled Component Spectra: 1
Spectrometers: USB2E3373
Integration Time (usec): 3000 (USB2E3373)
Spectra Averaged: 3 (USB2E3373)
Boxcar Smoothing: 0 (USB2E3373)
Correct for Electrical Dark: No (USB2E3373)
Strobe/Lamp Enabled: No (USB2E3373)
Correct for Detector Non-linearity: No (USB2E3373)
Correct for Stray Light: No (USB2E3373)
Number of Pixels in Processed Spectrum: 2048
>>>>>Begin Processed Spectral Data<<<<<
178.53	0.000
178.91	-1325.000
179.29	-1225.000
179.67	-283.333
180.04	-1400.000
180.42	2550.000
180.80	1100.000
181.18	-1000.000
181.56	771.429
181.94	0.000
182.31	-685.714
182.69	1633.333
183.07	-637.500
183.45	-566.667
183.83	509.091
184.20	-470.000
184.58	2550.000
184.96	5600.000
185.34	-920.000
185.72	-512.500
186.09	-2100.000
186.47	2350.000
186.85	2550.000
187.23	5500.000
187.61	-1966.667
187.98	1375.000
188.36	536.364
188.74	590.909
189.12	-1080.000
189.49	590.000
189.87	-4800.000
190.25	-950.000
190.63	378.571
191.00	438.462
191.38	883.333
191.76	-1350.000
192.14	1575.000
192.51	625.000
192.89	1100.000
193.27	687.500
193.65	-1125.000
194.02	470.000
194.40	900.000
194.78	680.000
195.15	583.333
195.53	700.000
195.91	-2500.000
196.29	306.250
196.66	336.842
197.04	-360.000
197.42	0.000
197.79	600.000
198.17	-4700.000
198.55	800.000
198.92	712.500
199.30	860.000
199.68	0.000
200.05	344.444
200.43	828.571
200.81	4900.000
201.18	1666.667
201.56	-1600.000
201.94	633.333
202.31	666.667
202.69	475.000
203.07	550.000
203.44	0.000
203.82	1400.000
204.19	957.143
204.57	464.286
204.95	775.000
205.32	1733.333
205.70	545.455
206.08	400.000
206.45	2750.000
206.83	381.250
207.20	950.000
207.58	940.000
207.96	327.778
208.33	787.500
208.71	-800.000
209.08	785.714
209.46	666.667
209.84	590.909
210.21	-1466.667
210.59	1350.000
210.96	-562.500
211.34	2550.000
211.71	620.000
212.09	833.333
212.46	0.000
212.84	1966.667
213.22	1500.000
213.59	-4700.000
213.97	883.333
214.34	842.857
214.72	590.909
215.09	1040.000
215.47	-2750.000
215.84	-2400.000
216.22	1800.000
216.59	421.429
216.97	1150.000
217.34	481.818
217.72	-900.000
218.09	0.000
218.47	-5200.000
218.84	644.444
219.22	842.857
219.59	1600.000
219.97	-685.714
220.34	980.000
220.72	-1933.333
221.09	400.000
221.47	1675.000
221.84	-883.333
222.22	0.000
222.59	1500.000
222.97	-2850.000
223.34	1200.000
223.72	469.231
224.09	1080.000
224.46	2600.000
224.84	-6200.000
225.21	-1040.000
225.59	-4500.000
225.96	660.000
226.34	345.000
226.71	2700.000
227.08	650.000
227.46	610.000
227.83	-1150.000
228.21	-3150.000
228.58	644.444
228.95	-2600.000
229.33	-2450.000
229.70	1666.667
230.08	928.571
230.45	-980.000
230.82	500.000
231.20	966.667
231.57	642.857
231.95	375.000
232.32	277.273
232.69	472.727
233.07	700.000
233.44	376.923
233.81	-1800.000
234.19	357.895
234.56	458.333
234.93	400.000
235.31	527.273
235.68	384.615
236.05	392.857
236.43	178.788
236.80	315.789
237.17	5000.000
237.55	233.333
237.92	210.714
238.29	238.095
238.67	206.452
239.04	220.690
239.41	161.111
239.79	132.609
240.16	157.143
240.53	161.364
240.91	119.608
241.28	116.000
241.65	108.000
242.02	108.696
242.40	104.839
242.77	111.667
243.14	79.570
243.51	87.640
243.89	76.471
244.26	74.444
244.63	74.194
245.00	85.106
245.38	83.168
245.75	65.421
246.12	62.385
246.49	70.073
246.87	69.600
247.24	70.000
247.61	59.286
247.98	57.516
248.36	53.378
248.73	58.599
249.10	61.146
249.47	57.062
249.84	59.358
250.22	46.524
250.59	56.213
250.96	54.545
251.33	57.346
251.70	47.030
252.08	47.143
252.45	47.085
252.82	51.739
253.19	46.809
253.56	47.843
253.94	46.473
254.31	44.141
254.68	45.769
255.05	42.435
255.42	47.967
255.79	42.647
256.16	45.487
256.54	43.463
256.91	41.993
257.28	39.928
257.65	38.944
258.02	45.652
258.39	39.117
258.76	38.796
259.14	40.476
259.51	39.514
259.88	38.820
260.25	40.181
260.62	37.572
260.99	37.888
261.36	38.138
261.73	38.109
262.10	36.337
262.47	38.592
262.85	38.162
263.22	39.316
263.59	41.026
263.96	39.286
264.33	37.337
264.70	37.632
265.07	36.573
265.44	37.121
265.81	34.793
266.18	37.437
266.55	35.854
266.92	35.381
267.29	35.648
267.66	33.716
268.03	34.773
268.40	34.346
268.77	33.890
269.14	34.459
269.51	33.860
269.88	35.897
270.25	34.086
270.62	32.135
270.99	35.914
271.36	36.052
271.73	34.112
272.10	33.478
272.47	36.129
272.84	33.550
273.21	35.430
273.58	35.153
273.95	34.801
274.32	33.678
274.69	34.690
275.06	32.677
275.43	34.468
275.80	35.070
276.17	34.216
276.54	34.927
276.91	31.028
277.28	32.617
277.65	32.882
278.02	32.298
278.39	32.812
278.76	31.818
279.13	32.830
279.50	33.333
279.87	33.267
280.23	32.735
280.60	30.754
280.97	31.978
281.34	32.212
281.71	31.818
282.08	30.710
282.45	29.091
282.82	31.261
283.19	30.303
283.56	31.930
283.92	32.149
284.29	30.511
284.66	30.672
285.03	29.837
285.40	31.338
285.77	30.135
286.14	30.225
286.51	31.000
286.87	31.111
287.24	29.479
287.61	28.892
287.98	28.571
288.35	28.526
288.72	28.972
289.08	30.203
289.45	29.819
289.82	28.780
290.19	26.531
290.56	27.106
290.93	27.039
291.29	25.613
291.66	25.959
292.03	27.471
292.40	27.166
292.77	25.888
293.13	25.970
293.50	26.822
293.87	27.407
294.24	26.074
294.60	24.600
294.97	26.163
295.34	26.234
295.71	26.136
296.08	25.214
296.44	23.659
296.81	24.703
297.18	27.913
297.55	23.483
297.91	22.955
298.28	25.971
298.65	23.629
299.02	24.638
299.38	21.381
299.75	21.833
300.12	22.861
300.48	23.500
300.85	22.688
301.22	22.803
301.59	22.348
301.95	23.174
302.32	23.748
302.69	23.775
303.05	21.576
303.42	22.346
303.79	21.404
304.15	21.212
304.52	21.900
304.89	21.022
305.25	21.926
305.62	21.065
305.99	23.022
306.35	22.260
306.72	21.525
307.09	22.974
307.45	23.198
307.82	21.094
308.19	23.951
308.55	23.085
308.92	21.053
309.29	21.753
309.65	21.103
310.02	19.873
310.38	21.720
310.75	20.486
311.12	20.983
311.48	22.362
311.85	23.375
312.22	22.581
312.58	22.141
312.95	23.337
313.31	20.485
313.68	22.453
314.05	23.570
314.41	22.312
314.78	22.558
315.14	22.642
315.51	22.657
315.87	23.267
316.24	24.032
316.61	23.587
316.97	24.168
317.34	22.994
317.70	25.239
318.07	25.313
318.43	25.049
318.80	26.710
319.16	26.648
319.53	24.484
319.89	27.429
320.26	28.800
320.62	29.067
320.99	28.485
321.35	30.505
321.72	29.569
322.08	31.392
322.45	31.741
322.81	31.395
323.18	33.815
323.54	33.859
323.91	33.868
324.27	35.182
324.64	34.762
325.00	36.249
325.37	37.762
325.73	39.767
326.10	39.188
326.46	40.771
326.83	42.537
327.19	42.357
327.56	43.815
327.92	45.844
328.29	46.495
328.65	48.343
329.01	47.834
329.38	48.474
329.74	49.769
330.11	51.084
330.47	51.607
330.84	51.471
331.20	52.732
331.56	52.202
331.93	55.370
332.29	53.860
332.66	55.133
333.02	55.393
333.38	56.278
333.75	55.258
334.11	57.295
334.48	57.764
334.84	58.364
335.20	58.818
335.57	59.565
335.93	58.304
336.29	58.883
336.66	59.152
337.02	59.548
337.38	59.907
337.75	59.447
338.11	60.877
338.47	61.878
338.84	60.403
339.20	58.716
339.56	63.230
339.93	61.636
340.29	61.141
340.65	60.071
341.02	62.827
341.38	63.434
341.74	61.842
342.11	61.834
342.47	64.053
342.83	61.387
343.20	62.857
343.56	61.247
343.92	64.211
344.28	62.755
344.65	64.144
345.01	63.047
345.37	62.607
345.73	62.521
346.10	64.365
346.46	63.475
346.82	63.097
347.19	62.740
347.55	62.397
347.91	62.621
348.27	64.996
348.63	64.548
349.00	64.159
349.36	64.286
349.72	63.272
350.08	62.885
350.45	62.978
350.81	63.851
351.17	63.047
351.53	66.011
351.89	64.851
352.26	63.062
352.62	62.630
352.98	63.290
353.34	63.517
353.70	62.848
354.07	63.145
354.43	62.302
354.79	64.119
355.15	65.124
355.51	65.867
355.87	65.796
356.24	66.205
356.60	63.833
356.96	65.889
357.32	65.904
357.68	65.197
358.04	64.371
358.40	64.529
358.77	64.554
359.13	64.878
359.49	64.706
359.85	64.762
360.21	64.593
360.57	65.214
360.93	65.923
361.29	64.853
361.66	64.009
362.02	65.373
362.38	66.160
362.74	63.988
363.10	63.953
363.46	65.664
363.82	65.004
364.18	64.684
364.54	64.933
364.90	65.156
365.26	64.779
365.62	67.421
365.98	65.741
366.35	65.043
366.71	65.004
367.07	65.550
367.43	66.691
367.79	67.024
368.15	66.236
368.51	66.424
368.87	65.596
369.23	66.862
369.59	66.618
369.95	65.000
370.31	66.097
370.67	65.870
371.03	66.966
371.39	67.420
371.75	65.662
372.11	65.220
372.47	67.375
372.83	68.444
373.19	66.402
373.55	67.775
373.91	69.293
374.27	65.223
374.63	65.964
374.99	66.737
375.35	66.783
375.71	65.456
376.07	66.118
376.42	67.194
376.78	66.269
377.14	67.436
377.50	67.417
377.86	66.090
378.22	66.245
378.58	65.852
378.94	65.431
379.30	66.539
379.66	67.449
380.02	66.769
380.38	64.906
380.74	64.946
381.09	66.687
381.45	67.548
381.81	65.848
382.17	67.134
382.53	66.792
382.89	65.864
383.25	67.042
383.61	67.286
383.97	66.854
384.32	64.629
384.68	66.667
385.04	64.905
385.40	66.563
385.76	65.786
386.12	67.681
386.48	66.079
386.83	67.992
387.19	67.718
387.55	66.296
387.91	66.143
388.27	65.481
388.62	67.240
388.98	65.479
389.34	66.458
389.70	66.217
390.06	67.237
390.42	66.732
390.77	66.412
391.13	67.071
391.49	66.434
391.85	66.009
392.20	66.562
392.56	66.098
392.92	66.451
393.28	65.621
393.64	65.348
393.99	66.402
394.35	66.067
394.71	66.248
395.07	65.483
395.42	67.244
395.78	66.539
396.14	65.177
396.50	67.105
396.85	67.006
397.21	65.906
397.57	66.460
397.92	66.106
398.28	65.191
398.64	64.875
399.00	66.760
399.35	64.411
399.71	65.972
400.07	65.878
400.42	66.258
400.78	66.888
401.14	64.939
401.49	66.209
401.85	66.364
402.21	65.030
402.57	67.304
402.92	66.772
403.28	65.459
403.63	65.161
403.99	66.178
404.35	64.909
404.70	64.568
405.06	64.589
405.42	65.128
405.77	63.371
406.13	64.391
406.49	65.405
406.84	63.969
407.20	64.953
407.55	66.305
407.91	67.333
408.27	65.795
408.62	63.817
408.98	64.461
409.34	65.068
409.69	64.839
410.05	63.135
410.40	64.954
410.76	64.695
411.11	63.691
411.47	64.153
411.83	64.630
412.18	65.121
412.54	64.446
412.89	63.554
413.25	64.994
413.60	65.781
413.96	63.570
414.31	63.244
414.67	64.005
415.03	63.775
415.38	64.304
415.74	62.765
416.09	66.231
416.45	64.926
416.80	65.631
417.16	65.751
417.51	64.632
417.87	64.547
418.22	64.795
418.58	64.945
418.93	64.619
419.29	65.818
419.64	64.547
420.00	64.451
420.35	63.652
420.71	64.495
421.06	65.036
421.42	64.269
421.77	64.910
422.12	63.335
422.48	63.411
422.83	64.881
423.19	63.978
423.54	63.900
423.90	64.464
424.25	64.266
424.61	63.810
424.96	65.190
425.31	64.341
425.67	63.258
426.02	64.114
426.38	65.751
426.73	64.892
427.09	64.863
427.44	65.095
427.79	65.267
428.15	63.869
428.50	63.487
428.85	63.945
429.21	62.893
429.56	63.815
429.92	63.010
430.27	63.903
430.62	63.850
430.98	63.415
431.33	63.144
431.68	63.717
432.04	63.738
432.39	64.649
432.74	65.889
433.10	64.686
433.45	65.539
433.80	63.525
434.16	63.515
434.51	63.579
434.86	65.279
435.22	65.203
435.57	65.714
435.92	64.424
436.28	65.480
436.63	65.066
436.98	63.995
437.34	66.011
437.69	65.753
438.04	65.261
438.39	65.552
438.75	65.718
439.10	67.598
439.45	65.230
439.81	65.619
440.16	66.121
440.51	66.198
440.86	65.837
441.22	65.851
441.57	65.287
441.92	66.274
442.27	66.900
442.63	65.561
442.98	67.775
443.33	65.598
443.68	65.720
444.03	66.227
444.39	65.239
444.74	66.126
445.09	65.822
445.44	65.282
445.79	66.353
446.15	65.590
446.50	66.774
446.85	67.215
447.20	66.497
447.55	68.565
447.91	66.464
448.26	66.444
448.61	66.987
448.96	67.940
449.31	67.379
449.66	67.192
450.02	66.852
450.37	66.440
450.72	67.738
451.07	67.093
451.42	66.018
451.77	68.526
452.12	67.436
452.47	67.226
452.83	68.531
453.18	66.137
453.53	67.780
453.88	67.336
454.23	68.799
454.58	68.262
454.93	68.214
455.28	66.958
455.63	68.629
455.98	68.869
456.34	67.023
456.69	68.754
457.04	68.978
457.39	66.978
457.74	66.802
458.09	67.395
458.44	67.104
458.79	65.618
459.14	67.833
459.49	67.484
459.84	67.036
460.19	66.470
460.54	64.757
460.89	67.252
461.24	68.852
461.59	66.996
461.94	67.324
462.29	68.546
462.64	66.050
462.99	67.534
463.34	67.667
463.69	68.355
464.04	65.739
464.39	66.261
464.74	66.132
465.09	67.310
465.44	64.931
465.79	65.772
466.14	64.423
466.49	64.850
466.84	65.324
467.19	66.868
467.54	67.438
467.89	65.786
468.24	65.387
468.59	68.071
468.94	66.646
469.29	67.738
469.64	67.403
469.99	67.930
470.34	67.173
470.68	69.253
471.03	68.095
471.38	68.728
471.73	66.689
472.08	68.158
472.43	65.955
472.78	68.400
473.13	66.752
473.48	66.042
473.83	67.988
474.17	66.273
474.52	66.377
474.87	66.083
475.22	66.570
475.57	63.944
475.92	65.852
476.27	65.840
476.61	65.968
476.96	65.531
477.31	65.777
477.66	66.193
478.01	65.081
478.36	65.204
478.70	65.732
479.05	65.974
479.40	65.251
479.75	64.769
480.10	64.215
480.45	63.827
480.79	65.122
481.14	64.286
481.49	64.832
481.84	64.152
482.19	64.244
482.53	63.532
482.88	64.262
483.23	65.047
483.58	63.467
483.92	64.058
484.27	62.440
484.62	62.888
484.97	62.436
485.31	62.671
485.66	59.513
486.01	57.535
486.36	55.688
486.70	55.088
487.05	58.074
487.40	59.499
487.75	59.474
488.09	61.146
488.44	61.975
488.79	63.870
489.13	64.095
489.48	64.274
489.83	63.660
490.17	64.051
490.52	63.729
490.87	65.129
491.22	63.574
491.56	62.597
491.91	63.425
492.26	62.288
492.60	62.719
492.95	64.172
493.30	64.860
493.64	63.976
493.99	63.231
494.34	63.969
494.68	63.553
495.03	63.722
495.37	62.168
495.72	64.815
496.07	63.248
496.41	61.593
496.76	62.841
497.11	61.909
497.45	62.599
497.80	63.100
498.14	63.430
498.49	62.146
498.84	63.471
499.18	63.190
499.53	63.010
499.87	63.281
500.22	62.365
500.56	63.398
500.91	63.125
501.26	62.162
501.60	63.882
501.95	60.495
502.29	63.590
502.64	63.454
502.98	63.067
503.33	61.974
503.67	61.717
504.02	61.506
504.36	60.973
504.71	62.921
505.06	61.590
505.40	62.761
505.75	62.247
506.09	60.593
506.44	63.888
506.78	62.543
507.13	63.857
507.47	62.727
507.82	62.867
508.16	62.209
508.51	64.536
508.85	62.115
509.19	63.265
509.54	62.449
509.88	63.060
510.23	62.879
510.57	63.209
510.92	62.351
511.26	61.305
511.61	62.396
511.95	61.482
512.30	61.612
512.64	62.332
512.98	62.594
513.33	63.865
513.67	61.259
514.02	64.502
514.36	63.626
514.70	63.641
515.05	62.800
515.39	62.984
515.74	62.894
516.08	62.214
516.42	62.542
516.77	64.604
517.11	62.986
517.46	63.544
517.80	65.389
518.14	63.115
518.49	64.002
518.83	64.034
519.17	63.279
519.52	64.177
519.86	64.347
520.20	63.873
520.55	64.692
520.89	63.990
521.23	64.717
521.58	63.325
521.92	64.483
522.26	63.148
522.61	64.860
522.95	63.720
523.29	64.820
523.64	65.732
523.98	65.126
524.32	62.967
524.66	63.139
525.01	62.684
525.35	63.755
525.69	62.993
526.04	63.925
526.38	63.819
526.72	63.129
527.06	64.721
527.41	62.748
527.75	64.244
528.09	64.226
528.43	65.328
528.78	64.167
529.12	63.091
529.46	62.707
529.80	63.861
530.15	64.174
530.49	60.738
530.83	62.089
531.17	64.034
531.51	65.435
531.86	62.968
532.20	63.950
532.54	63.549
532.88	63.992
533.22	62.086
533.57	63.333
533.91	61.890
534.25	61.604
534.59	62.599
534.93	60.559
535.27	60.410
535.62	62.210
535.96	62.963
536.30	61.602
536.64	61.172
536.98	62.508
537.32	61.093
537.66	62.000
538.01	61.883
538.35	61.280
538.69	63.114
539.03	61.079
539.37	60.958
539.71	59.624
540.05	61.373
540.39	61.794
540.73	60.414
541.07	62.622
541.42	62.361
541.76	60.516
542.10	61.708
542.44	60.927
542.78	61.397
543.12	60.205
543.46	62.033
543.80	61.223
544.14	59.692
544.48	60.508
544.82	60.936
545.16	61.418
545.50	59.897
545.84	61.962
546.18	61.077
546.52	62.078
546.86	61.649
547.20	60.958
547.54	60.387
547.88	60.906
548.22	59.153
548.56	58.805
548.90	59.795
549.24	60.337
549.58	60.914
549.92	61.401
550.26	61.790
550.60	59.751
550.94	61.620
551.28	60.863
551.62	61.610
551.96	60.772
552.30	60.614
552.64	60.379
552.98	59.932
553.32	59.676
553.66	61.213
554.00	61.222
554.34	61.146
554.68	63.162
555.02	61.566
555.36	61.239
555.69	59.269
556.03	59.758
556.37	59.482
556.71	59.823
557.05	60.644
557.39	59.762
557.73	59.845
558.07	61.276
558.41	61.577
558.75	61.205
559.08	61.894
559.42	62.358
559.76	61.103
560.10	59.101
560.44	60.168
560.78	59.614
561.12	58.707
561.45	59.257
561.79	59.262
562.13	59.624
562.47	58.470
562.81	60.391
563.15	58.194
563.48	58.488
563.82	59.230
564.16	59.385
564.50	59.961
564.84	57.206
565.17	58.430
565.51	58.083
565.85	58.312
566.19	56.669
566.52	58.391
566.86	57.324
567.20	57.134
567.54	57.249
567.88	55.894
568.21	55.926
568.55	54.702
568.89	54.961
569.23	52.317
569.56	50.891
569.90	51.019
570.24	50.413
570.57	50.017
570.91	48.739
571.25	48.518
571.59	48.601
571.92	48.387
572.26	49.133
572.60	48.589
572.93	48.156
573.27	48.743
573.61	47.655
573.95	48.114
574.28	47.010
574.62	46.890
574.96	47.001
575.29	47.042
575.63	47.256
575.97	47.279
576.30	47.318
576.64	47.157
576.98	47.132
577.31	47.043
577.65	46.254
577.98	46.421
578.32	44.857
578.66	45.786
578.99	46.428
579.33	46.889
579.67	46.242
580.00	46.727
580.34	46.678
580.67	46.679
581.01	45.761
581.35	46.063
581.68	45.416
582.02	44.481
582.35	44.792
582.69	45.215
583.02	45.533
583.36	46.161
583.70	47.078
584.03	47.623
584.37	47.246
584.70	47.649
585.04	46.429
585.37	46.389
585.71	46.311
586.04	46.678
586.38	47.335
586.72	47.722
587.05	46.889
587.39	45.910
587.72	46.406
588.06	46.665
588.39	46.667
588.73	47.433
589.06	48.831
589.40	49.461
589.73	48.786
590.07	48.221
590.40	47.716
590.73	49.805
591.07	50.265
591.40	50.949
591.74	50.606
592.07	50.742
592.41	48.698
592.74	48.539
593.08	47.835
593.41	46.979
593.75	46.471
594.08	47.033
594.41	48.074
594.75	48.725
595.08	48.210
595.42	48.967
595.75	48.682
596.09	49.118
596.42	50.020
596.75	50.401
597.09	50.519
597.42	48.777
597.75	49.245
598.09	49.609
598.42	49.055
598.76	49.088
599.09	47.624
599.42	47.271
599.76	48.023
600.09	47.395
600.42	47.443
600.76	46.893
601.09	47.432
601.42	48.212
601.76	47.628
602.09	47.984
602.42	48.766
602.76	49.577
603.09	48.033
603.42	48.380
603.76	48.018
604.09	48.468
604.42	48.104
604.76	49.810
605.09	49.367
605.42	47.969
605.75	48.220
606.09	48.963
606.42	49.162
606.75	47.947
607.09	47.384
607.42	49.123
607.75	47.848
608.08	48.198
608.42	49.305
608.75	48.197
609.08	48.196
609.41	49.262
609.75	49.929
610.08	49.811
610.41	49.581
610.74	50.047
611.07	50.099
611.41	50.393
611.74	49.925
612.07	51.294
612.40	51.364
612.73	49.947
613.07	51.347
613.40	51.764
613.73	49.449
614.06	51.129
614.39	50.131
614.72	49.158
615.06	49.842
615.39	49.788
615.72	48.875
616.05	50.133
616.38	51.584
616.71	53.385
617.05	51.649
617.38	51.413
617.71	52.613
618.04	53.365
618.37	50.917
618.70	53.018
619.03	54.013
619.36	53.700
619.69	53.169
620.03	53.915
620.36	54.011
620.69	54.863
621.02	56.416
621.35	55.129
621.68	54.751
622.01	54.644
622.34	56.505
622.67	55.741
623.00	54.585
623.33	53.896
623.66	54.325
623.99	54.566
624.32	54.494
624.65	53.390
624.99	53.824
625.32	53.729
625.65	54.545
625.98	55.957
626.31	56.299
626.64	57.061
626.97	56.941
627.30	57.024
627.63	57.588
627.96	57.359
628.29	59.055
628.62	58.371
628.95	59.528
629.28	57.664
629.61	58.662
629.94	60.095
630.26	57.769
630.59	59.390
630.92	58.142
631.25	59.526
631.58	58.659
631.91	60.446
632.24	61.181
632.57	60.651
632.90	60.526
633.23	60.626
633.56	61.017
633.89	61.042
634.22	64.018
634.55	63.432
634.88	61.916
635.20	64.158
635.53	62.651
635.86	64.604
636.19	61.412
636.52	59.285
636.85	62.314
637.18	60.023
637.51	61.820
637.83	60.419
638.16	63.939
638.49	61.461
638.82	62.326
639.15	64.000
639.48	63.965
639.81	65.818
640.13	61.979
640.46	63.490
640.79	63.672
641.12	63.274
641.45	63.966
641.77	66.421
642.10	65.497
642.43	63.814
642.76	68.266
643.09	66.104
643.41	66.464
643.74	69.136
644.07	66.311
644.40	66.871
644.73	68.189
645.05	69.731
645.38	68.088
645.71	66.345
646.04	68.937
646.36	71.953
646.69	69.900
647.02	67.687
647.35	66.323
647.67	68.850
648.00	66.504
648.33	65.677
648.66	63.030
648.98	64.768
649.31	63.528
649.64	64.275
649.96	64.531
650.29	66.983
650.62	66.667
650.94	66.613
651.27	70.270
651.60	66.889
651.92	65.495
652.25	66.124
652.58	65.888
652.90	65.087
653.23	65.331
653.56	64.724
653.88	63.867
654.21	64.455
654.54	66.997
654.86	66.511
655.19	60.405
655.52	40.944
655.84	33.269
656.17	42.286
656.49	57.285
656.82	59.353
657.15	45.115
657.47	34.055
657.80	26.423
658.13	27.969
658.45	42.078
658.78	43.246
659.10	44.450
659.43	48.060
659.75	49.844
660.08	55.759
660.41	61.173
660.73	64.676
661.06	66.720
661.38	70.909
661.71	71.154
662.03	72.781
662.36	67.793
662.68	69.880
663.01	73.333
663.33	72.187
663.66	71.849
663.98	73.434
664.31	71.429
664.63	68.623
664.96	67.002
665.28	70.492
665.61	64.327
665.93	66.801
666.26	70.791
666.58	68.828
666.91	70.825
667.23	71.685
667.56	67.171
667.88	68.590
668.21	70.149
668.53	69.848
668.86	68.831
669.18	70.149
669.50	68.043
669.83	71.242
670.15	71.778
670.48	70.588
670.80	71.983
671.13	67.941
671.45	68.298
671.77	67.617
672.10	65.804
672.42	62.544
672.75	61.360
673.07	61.444
673.39	62.568
673.72	67.383
674.04	62.941
674.37	64.078
674.69	66.667
675.01	65.481
675.34	72.279
675.66	65.895
675.98	67.413
676.31	67.017
676.63	68.577
676.95	66.667
677.28	72.664
677.60	64.835
677.92	69.620
678.25	64.887
678.57	68.127
678.89	68.537
679.22	64.047
679.54	64.695
679.86	63.853
680.18	63.148
680.51	62.057
680.83	62.100
681.15	64.151
681.48	61.059
681.80	64.023
682.12	62.452
682.44	59.381
682.77	65.580
683.09	71.674
683.41	68.736
683.73	67.108
684.06	65.909
684.38	63.209
684.70	66.279
685.02	63.790
685.34	61.538
685.67	59.965
685.99	59.794
686.31	60.580
686.63	58.834
686.96	59.464
687.28	61.913
687.60	61.232
687.92	61.426
688.24	61.787
688.56	60.643
688.89	63.485
689.21	68.122
689.53	64.509
689.85	66.741
690.17	61.284
690.49	65.605
690.82	68.692
691.14	64.509
691.46	62.869
691.78	61.245
692.10	63.223
692.42	62.275
692.74	60.788
693.06	62.340
693.39	62.834
693.71	63.319
694.03	64.842
694.35	63.420
694.67	63.616
694.99	66.585
695.31	64.951
695.63	66.268
695.95	71.149
696.27	65.482
696.59	65.803
696.91	70.466
697.23	62.207
697.56	62.260
697.88	58.691
698.20	58.958
698.52	63.226
698.84	59.020
699.16	63.364
699.48	65.321
699.80	65.459
700.12	70.390
700.44	69.761
700.76	67.127
701.08	70.115
701.40	64.246
701.72	72.303
702.04	73.864
702.36	66.856
702.68	68.555
703.00	70.083
703.32	66.489
703.64	62.198
703.96	70.474
704.28	71.221
704.60	66.569
704.91	68.843
705.23	68.915
705.55	72.093
705.87	78.073
706.19	72.792
706.51	71.028
706.83	68.485
707.15	66.947
707.47	63.384
707.79	64.373
708.11	62.785
708.43	56.190
708.74	61.480
709.06	60.000
709.38	64.567
709.70	67.442
710.02	64.688
710.34	69.697
710.66	68.955
710.98	69.034
711.29	67.151
711.61	70.501
711.93	67.308
712.25	70.740
712.57	73.897
712.89	72.664
713.20	65.957
713.52	71.053
713.84	68.671
714.16	68.598
714.48	63.793
714.80	68.693
715.11	62.248
715.43	67.062
715.75	66.667
716.07	65.815
716.39	63.009
716.70	69.435
717.02	76.978
717.34	67.138
717.66	69.776
717.97	78.884
718.29	64.444
718.61	70.073
718.93	78.676
719.24	68.512
719.56	66.780
719.88	70.508
720.20	63.514
720.51	66.899
720.83	71.004
721.15	72.388
721.46	67.021
721.78	73.477
722.10	73.208
722.42	69.549
722.73	70.412
723.05	76.230
723.37	75.304
723.68	67.568
724.00	71.951
724.32	78.226
724.63	75.203
724.95	71.548
725.27	70.850
725.58	72.656
725.90	70.438
726.22	69.434
726.53	66.667
726.85	68.942
727.16	66.904
727.48	59.574
727.80	63.258
728.11	65.942
728.43	68.462
728.74	68.100
729.06	68.248
729.38	68.015
729.69	65.125
730.01	63.481
730.32	64.583
730.64	64.214
730.96	63.036
731.27	68.874
731.59	61.162
731.90	58.892
732.22	62.422
732.53	63.158
732.85	62.500
733.16	62.379
733.48	63.123
733.80	60.390
734.11	60.828
734.43	60.059
734.74	53.714
735.06	56.447
735.37	61.561
735.69	64.013
736.00	62.418
736.32	64.174
736.63	61.981
736.95	61.342
737.26	58.163
737.58	57.419
737.89	65.217
738.21	64.164
738.52	64.286
738.83	65.283
739.15	65.000
739.46	66.423
739.78	62.500
740.09	60.615
740.41	60.000
740.72	58.885
741.04	62.963
741.35	69.167
741.66	72.000
741.98	70.755
742.29	77.033
742.61	74.138
742.92	67.421
743.23	67.521
743.55	68.800
743.86	69.737
744.18	75.664
744.49	73.684
744.80	76.995
745.12	81.818
745.43	74.009
745.74	74.775
746.06	71.101
746.37	74.888
746.68	69.683
747.00	74.074
747.31	75.714
747.62	62.832
747.94	70.485
748.25	68.936
748.56	71.366
748.88	69.307
749.19	81.000
749.50	73.023
749.82	69.512
750.13	65.714
750.44	66.423
750.75	65.965
751.07	63.987
751.38	61.672
751.69	60.650
752.01	66.165
752.32	61.733
752.63	61.348
752.94	69.262
753.26	70.400
753.57	64.228
753.88	68.359
754.19	61.786
754.51	60.764
754.82	61.372
755.13	63.396
755.44	61.278
755.75	61.679
756.07	59.220
756.38	61.314
756.69	64.094
757.00	50.299
757.31	53.709
757.63	55.263
757.94	50.402
758.25	49.510
758.56	51.605
758.87	52.419
759.18	60.606
759.50	57.053
759.81	57.632
760.12	52.187
760.43	59.312
760.74	52.446
761.05	57.062
761.36	54.278
761.67	55.682
761.99	55.590
762.30	61.111
762.61	63.740
762.92	65.625
763.23	63.445
763.54	62.800
763.85	63.281
764.16	64.615
764.47	66.920
764.78	58.657
765.10	54.430
765.41	57.522
765.72	56.886
766.03	58.307
766.34	56.667
766.65	65.957
766.96	61.966
767.27	70.558
767.58	74.479
767.89	77.895
768.20	81.609
768.51	69.036
768.82	66.972
769.13	65.447
769.44	58.704
769.75	63.519
770.06	61.927
770.37	67.421
770.68	67.593
770.99	63.111
771.30	55.738
771.61	68.610
771.92	63.115
772.23	68.067
772.54	68.718
772.85	74.869
773.16	72.872
773.47	72.283
773.78	74.112
774.09	65.476
774.39	75.439
774.70	80.864
775.01	86.232
775.32	89.542
775.63	84.868
775.94	81.295
776.25	97.638
776.56	79.851
776.87	90.984
777.18	89.063
777.48	90.076
777.79	90.909
778.10	92.593
778.41	91.071
778.72	80.292
779.03	81.208
779.34	85.906
779.65	77.703
779.95	74.847
780.26	84.967
780.57	82.069
780.88	96.094
781.19	75.188
781.50	89.189
781.80	75.472
782.11	67.232
782.42	69.620
782.73	65.031
783.04	76.351
783.34	84.507
783.65	89.726
783.96	84.328
784.27	74.825
784.57	76.978
784.88	81.481
785.19	85.714
785.50	100.943
785.81	82.836
786.11	90.984
786.42	87.597
786.73	82.301
787.04	100.943
787.34	91.964
787.65	104.000
787.96	92.793
788.26	85.124
788.57	95.763
788.88	97.521
789.19	84.028
789.49	80.303
789.80	76.336
790.11	110.476
790.41	106.931
790.72	98.795
791.03	95.652
791.33	113.953
791.64	106.186
791.95	102.970
792.25	110.000
792.56	105.195
792.87	128.205
793.17	118.987
793.48	104.598
793.79	114.943
794.09	105.682
794.40	85.714
794.70	78.676
795.01	71.111
795.32	81.295
795.62	72.441
795.93	84.483
796.23	80.531
796.54	107.059
796.85	114.865
797.15	119.718
797.46	116.667
797.76	112.048
798.07	106.329
798.37	124.615
798.68	118.182
798.99	118.310
799.29	110.390
799.60	102.273
799.90	119.178
800.21	135.821
800.51	124.138
800.82	131.579
801.12	134.426
801.43	127.273
801.73	110.811
802.04	131.746
802.34	107.407
802.65	140.625
802.95	128.814
803.26	137.500
803.56	110.000
803.87	115.385
804.17	141.176
804.48	157.407
804.78	136.207
805.09	123.529
805.39	142.308
805.70	133.929
806.00	137.705
806.30	127.273
806.61	98.780
806.91	100.000
807.22	111.842
807.52	104.478
807.83	104.225
808.13	109.375
808.43	120.000
808.74	101.316
809.04	128.986
809.35	135.821
809.65	110.526
809.95	129.032
810.26	142.373
810.56	123.810
810.86	186.364
811.17	164.286
811.47	140.000
811.77	138.889
812.08	140.000
812.38	160.000
812.69	200.000
812.99	190.909
813.29	161.224
813.59	130.952
813.90	134.694
814.20	140.000
814.50	107.692
814.81	139.706
815.11	142.857
815.41	122.951
815.72	161.905
816.02	150.909
816.32	157.143
816.62	175.000
816.93	190.244
817.23	202.381
817.53	195.455
817.84	215.152
818.14	171.739
818.44	155.556
818.74	226.471
819.04	157.500
819.35	194.286
819.65	197.059
819.95	221.429
820.25	270.000
820.56	169.231
820.86	147.727
821.16	176.744
821.46	182.051
821.76	162.000
822.07	205.714
822.37	177.500
822.67	184.848
822.97	139.216
823.27	264.286
823.57	170.270
823.88	197.500
824.18	223.333
824.48	195.238
824.78	300.000
825.08	225.000
825.38	202.703
825.69	158.537
825.99	283.333
826.29	217.241
826.59	178.947
826.89	192.105
827.19	185.294
827.49	235.484
827.79	200.000
828.09	159.091
828.39	165.957
828.70	146.939
829.00	225.926
829.30	200.000
829.60	172.500
829.90	360.000
830.20	217.857
830.50	278.261
830.80	282.609
831.10	236.667
831.40	213.333
831.70	243.478
832.00	234.615
832.30	240.741
832.60	450.000
832.90	230.000
833.20	478.571
833.50	235.484
833.80	206.897
834.10	237.500
834.40	273.077
834.70	366.667
835.00	357.143
835.30	191.429
835.60	446.154
835.90	251.724
836.20	328.571
836.50	227.586
836.80	256.000
837.10	200.000
837.40	295.238
837.70	352.941
838.00	222.222
838.30	261.905
838.60	338.095
838.90	230.769
839.19	340.000
839.49	442.857
839.79	370.000
840.09	265.000
840.39	252.381
840.69	273.913
840.99	355.556
841.29	500.000
841.59	358.333
841.88	431.250
842.18	206.897
842.48	319.048
842.78	206.667
843.08	286.957
843.38	193.750
843.68	1050.000
843.97	288.462
844.27	224.138
844.57	328.571
844.87	437.500
845.17	225.926
845.47	1666.667
845.76	588.889
846.06	335.294
846.36	675.000
846.66	492.857
846.96	356.250
847.25	527.273
847.55	454.545
847.85	282.609
848.15	580.000
848.44	350.000
848.74	311.111
849.04	358.824
849.34	550.000
849.63	294.737
849.93	481.818
850.23	1180.000
850.53	500.000
850.82	2450.000
851.12	-5700.000
851.42	5700.000
851.71	320.000
852.01	-1433.333
852.31	295.833
852.61	2166.667
852.90	309.524
853.20	292.000
853.50	347.059
853.79	319.048
854.09	245.833
854.39	381.250
854.68	154.054
854.98	229.032
855.28	206.667
855.57	227.586
855.87	229.630
856.17	268.421
856.46	360.000
856.76	282.353
857.05	234.483
857.35	258.333
857.65	440.000
857.94	304.348
858.24	276.923
858.53	330.000
858.83	250.000
859.13	393.333
859.42	0.000
859.72	733.333
860.01	527.273
860.31	254.545
860.60	326.316
860.90	243.478
861.20	577.778
861.49	516.667
861.79	-5400.000
862.08	662.500
862.38	309.524
862.67	392.308
862.97	388.235
863.26	566.667
863.56	344.444
863.85	425.000
864.15	700.000
864.44	546.667
864.74	866.667
865.03	762.500
865.33	326.316
865.62	581.818
865.92	469.231
866.21	366.667
866.51	0.000
866.80	572.727
867.10	1220.000
867.39	507.692
867.69	490.909
867.98	305.263
868.27	481.818
868.57	352.632
868.86	-4600.000
869.16	350.000
869.45	2400.000
869.75	-4800.000
870.04	450.000
870.33	671.429
870.63	1225.000
870.92	2600.000
871.22	728.571
871.51	352.941
871.80	242.857
872.10	428.571
>>>>>End Processed Spectral Data<<<<<
