SpectraSuite Data File
++++++++++++++++++++++++++++++++++++
Date: Wed May 13 19:54:34 PDT 2015
User: schluterlab
Dark Spectrum Present: Yes
Reference Spectrum Present: Yes
Number of Sampled Component Spectra: 1
Spectrometers: USB2E3373
Integration Time (usec): 3000 (USB2E3373)
Spectra Averaged: 3 (USB2E3373)
Boxcar Smoothing: 0 (USB2E3373)
Correct for Electrical Dark: No (USB2E3373)
Strobe/Lamp Enabled: No (USB2E3373)
Correct for Detector Non-linearity: No (USB2E3373)
Correct for Stray Light: No (USB2E3373)
Number of Pixels in Processed Spectrum: 2048
>>>>>Begin Processed Spectral Data<<<<<
178.53	0.000
178.91	-950.000
179.29	-1175.000
179.67	-266.667
180.04	-1200.000
180.42	2550.000
180.80	1060.000
181.18	-1075.000
181.56	642.857
181.94	0.000
182.31	-785.714
182.69	1866.667
183.07	-575.000
183.45	-655.556
183.83	536.364
184.20	-340.000
184.58	2850.000
184.96	5000.000
185.34	-940.000
185.72	-537.500
186.09	-2750.000
186.47	2850.000
186.85	2600.000
187.23	5600.000
187.61	-1833.333
187.98	1425.000
188.36	609.091
188.74	554.545
189.12	-700.000
189.49	610.000
189.87	-4100.000
190.25	-1275.000
190.63	478.571
191.00	423.077
191.38	783.333
191.76	-1300.000
192.14	1425.000
192.51	612.500
192.89	1200.000
193.27	575.000
193.65	-1225.000
194.02	600.000
194.40	1000.000
194.78	660.000
195.15	475.000
195.53	650.000
195.91	-2200.000
196.29	362.500
196.66	289.474
197.04	-290.000
197.42	0.000
197.79	630.000
198.17	-5200.000
198.55	642.857
198.92	662.500
199.30	1020.000
199.68	0.000
200.05	350.000
200.43	885.714
200.81	5800.000
201.18	1966.667
201.56	-1766.667
201.94	466.667
202.31	622.222
202.69	466.667
203.07	540.000
203.44	0.000
203.82	1250.000
204.19	885.714
204.57	521.429
204.95	537.500
205.32	1733.333
205.70	500.000
206.08	407.143
206.45	2700.000
206.83	287.500
207.20	933.333
207.58	900.000
207.96	327.778
208.33	700.000
208.71	-916.667
209.08	1000.000
209.46	633.333
209.84	527.273
210.21	-2066.667
210.59	1425.000
210.96	-637.500
211.34	2550.000
211.71	630.000
212.09	850.000
212.46	0.000
212.84	1666.667
213.22	1450.000
213.59	-5400.000
213.97	816.667
214.34	842.857
214.72	590.909
215.09	1260.000
215.47	-2250.000
215.84	-2400.000
216.22	1400.000
216.59	421.429
216.97	1325.000
217.34	545.455
217.72	-733.333
218.09	0.000
218.47	-5600.000
218.84	711.111
219.22	800.000
219.59	1600.000
219.97	-657.143
220.34	880.000
220.72	-1766.667
221.09	471.429
221.47	1500.000
221.84	-983.333
222.22	0.000
222.59	1350.000
222.97	-2850.000
223.34	1200.000
223.72	469.231
224.09	1260.000
224.46	2600.000
224.84	-4400.000
225.21	-940.000
225.59	-5000.000
225.96	630.000
226.34	345.000
226.71	2500.000
227.08	650.000
227.46	590.000
227.83	-1175.000
228.21	-2600.000
228.58	488.889
228.95	-2700.000
229.33	-2600.000
229.70	1900.000
230.08	785.714
230.45	-1020.000
230.82	483.333
231.20	816.667
231.57	728.571
231.95	483.333
232.32	254.545
232.69	500.000
233.07	785.714
233.44	384.615
233.81	-2000.000
234.19	315.789
234.56	516.667
234.93	408.333
235.31	527.273
235.68	330.769
236.05	435.714
236.43	203.030
236.80	352.632
237.17	4500.000
237.55	247.619
237.92	232.143
238.29	309.524
238.67	232.258
239.04	234.483
239.41	188.889
239.79	150.000
240.16	195.238
240.53	159.091
240.91	131.373
241.28	148.000
241.65	140.000
242.02	108.696
242.40	135.484
242.77	130.000
243.14	93.548
243.51	105.618
243.89	102.353
244.26	93.333
244.63	86.022
245.00	88.298
245.38	95.050
245.75	79.439
246.12	88.991
246.49	86.861
246.87	91.200
247.24	93.077
247.61	77.857
247.98	75.817
248.36	79.730
248.73	78.344
249.10	80.892
249.47	71.186
249.84	73.262
250.22	64.706
250.59	71.598
250.96	71.212
251.33	65.877
251.70	65.842
252.08	69.048
252.45	62.780
252.82	65.217
253.19	63.830
253.56	68.235
253.94	65.560
254.31	62.891
254.68	60.769
255.05	63.100
255.42	62.195
255.79	61.029
256.16	63.538
256.54	57.597
256.91	55.872
257.28	56.115
257.65	60.066
258.02	56.522
258.39	53.628
258.76	54.515
259.14	61.012
259.51	53.799
259.88	51.242
260.25	54.079
260.62	54.046
260.99	51.553
261.36	54.655
261.73	55.874
262.10	54.942
262.47	59.718
262.85	53.760
263.22	50.712
263.59	57.550
263.96	56.319
264.33	52.480
264.70	54.474
265.07	54.731
265.44	52.020
265.81	51.338
266.18	53.769
266.55	52.195
266.92	53.563
267.29	52.546
267.66	51.835
268.03	48.864
268.40	54.206
268.77	49.403
269.14	50.901
269.51	52.370
269.88	55.012
270.25	49.436
270.62	48.090
270.99	50.323
271.36	49.571
271.73	53.972
272.10	51.522
272.47	47.097
272.84	50.649
273.21	49.057
273.58	51.747
273.95	47.379
274.32	47.521
274.69	49.679
275.06	44.488
275.43	51.064
275.80	47.695
276.17	48.880
276.54	51.143
276.91	48.024
277.28	49.414
277.65	47.582
278.02	49.896
278.39	48.242
278.76	45.818
279.13	49.811
279.50	47.486
279.87	49.402
280.23	49.301
280.60	50.677
280.97	46.950
281.34	45.841
281.71	46.364
282.08	47.409
282.45	46.909
282.82	45.293
283.19	45.098
283.56	46.491
283.92	47.208
284.29	45.150
284.66	45.191
285.03	42.676
285.40	45.951
285.77	45.623
286.14	45.423
286.51	46.667
286.87	44.957
287.24	43.974
287.61	45.104
287.98	43.506
288.35	44.691
288.72	43.146
289.08	40.063
289.45	43.822
289.82	42.602
290.19	39.246
290.56	40.276
290.93	39.577
291.29	41.104
291.66	38.643
292.03	40.843
292.40	41.263
292.77	40.089
293.13	39.552
293.50	39.504
293.87	39.852
294.24	38.815
294.60	38.428
294.97	36.773
295.34	38.364
295.71	37.926
296.08	37.749
296.44	37.001
296.81	37.252
297.18	37.398
297.55	34.037
297.91	34.565
298.28	38.019
298.65	35.509
299.02	36.891
299.38	33.466
299.75	33.962
300.12	35.121
300.48	34.375
300.85	34.402
301.22	35.159
301.59	33.965
301.95	36.020
302.32	34.403
302.69	32.616
303.05	33.818
303.42	32.222
303.79	32.163
304.15	31.585
304.52	31.634
304.89	32.753
305.25	33.063
305.62	31.823
305.99	34.593
306.35	31.879
306.72	32.399
307.09	33.185
307.45	32.207
307.82	33.036
308.19	31.236
308.55	32.470
308.92	32.546
309.29	30.834
309.65	30.541
310.02	31.395
310.38	31.613
310.75	32.101
311.12	31.934
311.48	32.288
311.85	31.971
312.22	31.217
312.58	31.497
312.95	30.729
313.31	29.417
313.68	32.121
314.05	33.136
314.41	32.663
314.78	31.823
315.14	30.189
315.51	31.823
315.87	32.178
316.24	31.380
316.61	30.799
316.97	30.920
317.34	31.409
317.70	31.740
318.07	32.531
318.43	32.387
318.80	32.146
319.16	33.333
319.53	31.895
319.89	33.048
320.26	35.200
320.62	32.738
320.99	34.141
321.35	35.152
321.72	34.600
322.08	34.255
322.45	35.920
322.81	36.240
323.18	36.898
323.54	35.807
323.91	36.321
324.27	37.667
324.64	37.372
325.00	36.970
325.37	40.491
325.73	39.228
326.10	39.806
326.46	40.412
326.83	41.588
327.19	40.820
327.56	41.812
327.92	41.820
328.29	42.768
328.65	42.541
329.01	42.690
329.38	44.773
329.74	43.398
330.11	43.921
330.47	45.363
330.84	43.658
331.20	44.809
331.56	45.505
331.93	44.722
332.29	44.809
332.66	46.106
333.02	46.252
333.38	46.522
333.75	46.791
334.11	45.819
334.48	47.116
334.84	47.426
335.20	48.000
335.57	46.238
335.93	45.089
336.29	48.443
336.66	48.242
337.02	45.701
337.38	48.981
337.75	47.415
338.11	49.776
338.47	49.816
338.84	49.313
339.20	48.991
339.56	49.544
339.93	49.455
340.29	49.275
340.65	51.248
341.02	49.913
341.38	50.356
341.74	48.947
342.11	50.568
342.47	50.661
342.83	50.171
343.20	49.437
343.56	50.463
343.92	49.649
344.28	50.255
344.65	50.817
345.01	48.990
345.37	49.485
345.73	51.100
346.10	52.003
346.46	50.593
346.82	52.471
347.19	50.209
347.55	50.082
347.91	50.971
348.27	52.588
348.63	52.425
349.00	50.971
349.36	50.657
349.72	50.682
350.08	51.297
350.45	51.587
350.81	52.396
351.17	51.783
351.53	52.826
351.89	51.650
352.26	52.249
352.62	53.408
352.98	52.431
353.34	53.492
353.70	51.800
354.07	53.790
354.43	52.381
354.79	53.660
355.15	53.232
355.51	53.397
355.87	53.306
356.24	53.176
356.60	52.285
356.96	53.982
357.32	52.984
357.68	52.598
358.04	52.811
358.40	54.078
358.77	53.991
359.13	53.433
359.49	52.784
359.85	53.413
360.21	55.024
360.57	53.696
360.93	53.615
361.29	54.573
361.66	52.012
362.02	53.134
362.38	54.144
362.74	53.348
363.10	52.702
363.46	54.952
363.82	54.497
364.18	54.258
364.54	55.944
364.90	53.754
365.26	55.441
365.62	54.565
365.98	54.054
366.35	53.438
366.71	54.808
367.07	54.698
367.43	55.515
367.79	55.603
368.15	55.101
368.51	54.070
368.87	56.031
369.23	55.304
369.59	54.960
369.95	55.074
370.31	53.063
370.67	54.420
371.03	55.056
371.39	54.665
371.75	55.882
372.11	54.339
372.47	55.938
372.83	56.340
373.19	55.347
373.55	55.950
373.91	57.511
374.27	54.639
374.63	56.291
374.99	56.144
375.35	55.478
375.71	55.106
376.07	55.281
376.42	55.433
376.78	56.395
377.14	56.309
377.50	57.616
377.86	55.253
378.22	56.890
378.58	55.138
378.94	56.128
379.30	56.298
379.66	57.360
380.02	55.037
380.38	56.284
380.74	55.882
381.09	55.501
381.45	56.177
381.81	55.344
382.17	56.051
382.53	57.107
382.89	57.284
383.25	58.099
383.61	57.497
383.97	55.972
384.32	56.082
384.68	56.196
385.04	55.194
385.40	56.347
385.76	57.064
386.12	56.671
386.48	56.639
386.83	57.601
387.19	57.205
387.55	57.205
387.91	57.557
388.27	57.817
388.62	57.099
388.98	56.634
389.34	57.635
389.70	57.572
390.06	57.414
390.42	58.301
390.77	57.252
391.13	58.711
391.49	58.439
391.85	57.734
392.20	56.782
392.56	57.639
392.92	57.799
393.28	56.923
393.64	57.134
393.99	57.422
394.35	56.576
394.71	58.971
395.07	55.389
395.42	57.355
395.78	55.916
396.14	57.169
396.50	57.143
396.85	56.898
397.21	57.275
397.57	56.541
397.92	57.512
398.28	56.670
398.64	57.945
399.00	56.351
399.35	57.304
399.71	55.382
400.07	56.712
400.42	57.301
400.78	56.634
401.14	57.683
401.49	57.134
401.85	56.140
402.21	55.269
402.57	56.878
402.92	57.314
403.28	57.277
403.63	57.983
403.99	57.325
404.35	57.212
404.70	56.894
405.06	56.028
405.42	56.457
405.77	56.057
406.13	55.023
406.49	56.653
406.84	54.755
407.20	56.087
407.55	55.584
407.91	57.333
408.27	56.286
408.62	56.773
408.98	56.311
409.34	56.458
409.69	57.355
410.05	56.506
410.40	54.985
410.76	55.018
411.11	54.704
411.47	54.313
411.83	55.589
412.18	55.411
412.54	55.729
412.89	54.518
413.25	55.254
413.60	56.208
413.96	54.098
414.31	55.346
414.67	55.133
415.03	55.430
415.38	54.317
415.74	55.498
416.09	56.434
416.45	55.221
416.80	55.453
417.16	55.429
417.51	55.143
417.87	55.042
418.22	54.574
418.58	55.520
418.93	56.204
419.29	54.297
419.64	55.856
420.00	55.122
420.35	54.493
420.71	55.290
421.06	54.594
421.42	53.977
421.77	54.372
422.12	54.015
422.48	54.830
422.83	55.329
423.19	53.094
423.54	55.194
423.90	54.725
424.25	52.987
424.61	54.464
424.96	54.694
425.31	53.212
425.67	53.933
426.02	53.486
426.38	54.396
426.73	53.482
427.09	53.252
427.44	54.284
427.79	54.457
428.15	54.643
428.50	51.960
428.85	51.669
429.21	53.285
429.56	52.100
429.92	53.749
430.27	53.128
430.62	52.586
430.98	53.243
431.33	53.351
431.68	53.037
432.04	51.810
432.39	52.827
432.74	53.680
433.10	52.745
433.45	52.945
433.80	53.825
434.16	52.137
434.51	52.053
434.86	52.395
435.22	52.752
435.57	53.131
435.92	52.253
436.28	53.144
436.63	52.815
436.98	51.631
437.34	51.640
437.69	52.800
438.04	51.939
438.39	51.224
438.75	53.051
439.10	52.402
439.45	51.830
439.81	51.601
440.16	52.400
440.51	51.963
440.86	52.229
441.22	51.669
441.57	51.858
441.92	51.740
442.27	52.045
442.63	51.764
442.98	52.338
443.33	51.413
443.68	51.575
444.03	51.342
444.39	50.487
444.74	51.407
445.09	50.674
445.44	50.137
445.79	51.113
446.15	50.926
446.50	50.135
446.85	51.028
447.20	50.637
447.55	51.089
447.91	50.303
448.26	50.807
448.61	51.272
448.96	50.997
449.31	50.844
449.66	50.422
450.02	51.365
450.37	50.510
450.72	50.367
451.07	49.726
451.42	49.058
451.77	49.501
452.12	49.018
452.47	49.627
452.83	50.117
453.18	48.655
453.53	50.711
453.88	49.911
454.23	49.552
454.58	49.546
454.93	49.968
455.28	48.504
455.63	50.061
455.98	50.238
456.34	48.807
456.69	48.591
457.04	49.845
457.39	47.750
457.74	49.565
458.09	48.246
458.44	48.119
458.79	47.505
459.14	48.871
459.49	47.636
459.84	47.590
460.19	47.024
460.54	46.238
460.89	47.394
461.24	47.784
461.59	47.240
461.94	46.609
462.29	47.537
462.64	49.138
462.99	45.999
463.34	47.267
463.69	47.342
464.04	46.493
464.39	46.725
464.74	46.940
465.09	45.657
465.44	45.762
465.79	45.190
466.14	45.211
466.49	45.606
466.84	45.476
467.19	46.590
467.54	45.938
467.89	44.958
468.24	45.550
468.59	45.910
468.94	44.166
469.29	46.401
469.64	46.319
469.99	46.143
470.34	44.650
470.68	44.828
471.03	45.170
471.38	45.657
471.73	44.104
472.08	45.789
472.43	44.095
472.78	43.976
473.13	45.315
473.48	43.196
473.83	43.963
474.17	42.750
474.52	43.797
474.87	44.191
475.22	43.935
475.57	42.826
475.92	43.229
476.27	42.841
476.61	42.416
476.96	42.716
477.31	42.491
477.66	42.560
478.01	42.081
478.36	42.729
478.70	42.004
479.05	42.439
479.40	41.760
479.75	41.739
480.10	41.799
480.45	41.694
480.79	40.946
481.14	41.879
481.49	41.291
481.84	40.558
482.19	40.300
482.53	41.835
482.88	40.670
483.23	41.075
483.58	40.309
483.92	40.769
484.27	40.000
484.62	40.733
484.97	40.126
485.31	40.856
485.66	39.676
486.01	38.504
486.36	37.496
486.70	37.244
487.05	37.799
487.40	37.743
487.75	38.034
488.09	38.308
488.44	37.859
488.79	39.241
489.13	39.840
489.48	38.540
489.83	38.930
490.17	39.632
490.52	39.105
490.87	39.575
491.22	38.608
491.56	38.360
491.91	38.762
492.26	39.045
492.60	38.571
492.95	38.541
493.30	38.364
493.64	38.637
493.99	38.765
494.34	38.622
494.68	38.919
495.03	39.145
495.37	37.645
495.72	38.450
496.07	37.819
496.41	37.389
496.76	36.807
497.11	37.235
497.45	37.448
497.80	37.668
498.14	37.778
498.49	37.171
498.84	38.255
499.18	37.619
499.53	38.034
499.87	36.999
500.22	36.599
500.56	37.913
500.91	36.442
501.26	37.648
501.60	37.352
501.95	36.709
502.29	37.348
502.64	37.011
502.98	36.840
503.33	36.335
503.67	36.752
504.02	35.968
504.36	36.172
504.71	36.639
505.06	36.386
505.40	35.780
505.75	35.776
506.09	37.026
506.44	36.310
506.78	35.460
507.13	37.102
507.47	36.566
507.82	36.424
508.16	36.272
508.51	35.921
508.85	35.501
509.19	35.969
509.54	36.020
509.88	36.321
510.23	35.835
510.57	36.017
510.92	36.561
511.26	35.612
511.61	36.722
511.95	35.021
512.30	35.260
512.64	35.519
512.98	35.584
513.33	36.242
513.67	34.632
514.02	35.390
514.36	36.155
514.70	35.639
515.05	34.690
515.39	35.614
515.74	34.347
516.08	36.277
516.42	35.294
516.77	35.507
517.11	35.461
517.46	35.892
517.80	35.772
518.14	34.974
518.49	36.639
518.83	35.455
519.17	35.335
519.52	35.088
519.86	34.455
520.20	34.509
520.55	35.129
520.89	35.584
521.23	35.163
521.58	36.074
521.92	35.946
522.26	33.740
522.61	35.576
522.95	34.193
523.29	33.536
523.64	33.902
523.98	34.689
524.32	34.560
524.66	34.696
525.01	35.110
525.35	33.581
525.69	33.682
526.04	34.455
526.38	34.411
526.72	33.926
527.06	33.836
527.41	33.416
527.75	34.920
528.09	34.746
528.43	35.946
528.78	35.587
529.12	34.303
529.46	34.415
529.80	34.282
530.15	33.084
530.49	33.354
530.83	34.430
531.17	34.073
531.51	35.473
531.86	34.516
532.20	33.833
532.54	33.889
532.88	34.788
533.22	32.979
533.57	34.074
533.91	33.715
534.25	32.928
534.59	33.374
534.93	32.659
535.27	32.046
535.62	33.578
535.96	33.836
536.30	33.503
536.64	33.484
536.98	34.439
537.32	33.048
537.66	33.067
538.01	33.311
538.35	33.226
538.69	33.759
539.03	32.749
539.37	32.460
539.71	31.627
540.05	32.745
540.39	33.289
540.73	32.924
541.07	33.095
541.42	33.007
541.76	34.194
542.10	33.182
542.44	33.311
542.78	33.597
543.12	31.734
543.46	32.459
543.80	33.051
544.14	32.221
544.48	33.079
544.82	33.162
545.16	33.116
545.50	32.455
545.84	32.325
546.18	33.266
546.52	33.035
546.86	32.371
547.20	32.569
547.54	33.534
547.88	33.865
548.22	32.316
548.56	32.704
548.90	32.394
549.24	32.054
549.58	32.742
549.92	33.104
550.26	32.599
550.60	32.780
550.94	33.803
551.28	32.114
551.62	32.207
551.96	32.070
552.30	33.447
552.64	33.469
552.98	32.746
553.32	31.760
553.66	33.129
554.00	31.984
554.34	32.160
554.68	31.974
555.02	31.030
555.36	31.246
555.69	30.514
556.03	32.638
556.37	31.855
556.71	31.173
557.05	30.952
557.39	31.211
557.73	31.193
558.07	32.125
558.41	31.548
558.75	31.521
559.08	31.693
559.42	31.746
559.76	30.956
560.10	31.834
560.44	31.307
560.78	32.269
561.12	31.926
561.45	31.160
561.79	31.971
562.13	31.992
562.47	31.899
562.81	31.799
563.15	30.301
563.48	31.764
563.82	31.768
564.16	30.608
564.50	31.510
564.84	30.657
565.17	30.180
565.51	30.927
565.85	30.647
566.19	29.931
566.52	30.399
566.86	31.043
567.20	31.427
567.54	30.765
567.88	30.201
568.21	30.847
568.55	30.081
568.89	29.134
569.23	29.679
569.56	30.000
569.90	29.962
570.24	29.673
570.57	29.480
570.91	29.024
571.25	29.401
571.59	29.249
571.92	28.658
572.26	28.683
572.60	28.288
572.93	28.786
573.27	29.074
573.61	28.671
573.95	28.372
574.28	28.945
574.62	28.499
574.96	28.459
575.29	28.080
575.63	28.430
575.97	28.170
576.30	28.253
576.64	28.127
576.98	28.172
577.31	27.888
577.65	28.404
577.98	27.905
578.32	27.601
578.66	28.218
578.99	27.825
579.33	27.814
579.67	27.390
580.00	27.787
580.34	28.239
580.67	28.268
581.01	27.817
581.35	27.818
581.68	27.934
582.02	27.742
582.35	27.776
582.69	27.951
583.02	27.516
583.36	27.507
583.70	27.897
584.03	28.083
584.37	28.248
584.70	27.638
585.04	28.033
585.37	27.563
585.71	28.078
586.04	27.688
586.38	28.109
586.72	28.114
587.05	27.710
587.39	27.678
587.72	28.292
588.06	27.801
588.39	28.450
588.73	28.073
589.06	28.763
589.40	28.485
589.73	28.898
590.07	28.078
590.40	28.133
590.73	29.157
591.07	29.060
591.40	27.836
591.74	29.351
592.07	29.014
592.41	29.062
592.74	28.277
593.08	28.681
593.41	28.535
593.75	27.608
594.08	28.361
594.41	27.678
594.75	28.651
595.08	29.062
595.42	28.616
595.75	27.707
596.09	27.826
596.42	28.330
596.75	28.113
597.09	28.658
597.42	27.656
597.75	28.116
598.09	28.043
598.42	27.749
598.76	28.172
599.09	27.898
599.42	27.984
599.76	28.221
600.09	28.124
600.42	27.611
600.76	27.179
601.09	27.978
601.42	27.968
601.76	27.287
602.09	27.154
602.42	28.304
602.76	27.892
603.09	27.773
603.42	28.544
603.76	27.210
604.09	27.646
604.42	28.251
604.76	28.300
605.09	28.222
605.42	27.619
605.75	27.649
606.09	27.735
606.42	27.830
606.75	27.706
607.09	27.710
607.42	27.899
607.75	27.342
608.08	27.052
608.42	28.104
608.75	27.773
609.08	27.382
609.41	27.844
609.75	27.870
610.08	28.888
610.41	27.188
610.74	28.288
611.07	28.706
611.41	28.557
611.74	28.406
612.07	28.675
612.40	27.754
612.73	28.105
613.07	28.448
613.40	28.120
613.73	27.216
614.06	28.333
614.39	27.006
614.72	29.316
615.06	28.414
615.39	27.813
615.72	27.505
616.05	27.432
616.38	28.349
616.71	28.682
617.05	29.682
617.38	28.984
617.71	28.769
618.04	28.425
618.37	28.090
618.70	29.745
619.03	29.211
619.36	28.988
619.69	29.366
620.03	30.426
620.36	29.211
620.69	29.452
621.02	28.982
621.35	28.034
621.68	29.128
622.01	28.251
622.34	29.123
622.67	27.833
623.00	28.687
623.33	27.806
623.66	28.663
623.99	28.866
624.32	28.317
624.65	28.814
624.99	29.533
625.32	28.530
625.65	28.926
625.98	28.978
626.31	29.549
626.64	29.878
626.97	29.260
627.30	29.260
627.63	29.122
627.96	30.025
628.29	29.046
628.62	29.460
628.95	30.660
629.28	29.653
629.61	30.614
629.94	29.714
630.26	29.838
630.59	28.694
630.92	30.843
631.25	29.812
631.58	29.129
631.91	30.730
632.24	29.219
632.57	31.270
632.90	29.386
633.23	30.089
633.56	30.621
633.89	31.597
634.22	30.193
634.55	32.663
634.88	29.940
635.20	32.139
635.53	30.843
635.86	31.683
636.19	31.176
636.52	31.027
636.85	30.470
637.18	30.300
637.51	30.615
637.83	28.853
638.16	30.051
638.49	31.234
638.82	32.111
639.15	31.500
639.48	31.172
639.81	32.172
640.13	31.250
640.46	32.752
640.79	31.308
641.12	29.711
641.45	29.888
641.77	33.137
642.10	33.333
642.43	29.730
642.76	32.508
643.09	32.669
643.41	29.742
643.74	32.407
644.07	31.250
644.40	33.282
644.73	33.071
645.05	34.231
645.38	33.017
645.71	31.884
646.04	32.724
646.36	32.387
646.69	34.281
647.02	32.653
647.35	32.990
647.67	33.982
648.00	31.870
648.33	30.528
648.66	31.818
648.98	32.684
649.31	31.839
649.64	33.333
649.96	32.340
650.29	32.543
650.62	32.201
650.94	32.901
651.27	34.966
651.60	30.948
651.92	32.109
652.25	29.967
652.58	32.243
652.90	32.543
653.23	30.663
653.56	32.283
653.88	32.013
654.21	32.227
654.54	32.013
654.86	30.530
655.19	29.189
655.52	24.567
655.84	23.340
656.17	30.526
656.49	40.501
656.82	40.290
657.15	29.741
657.47	21.648
657.80	16.227
658.13	16.695
658.45	24.373
658.78	24.160
659.10	24.419
659.43	25.494
659.75	26.798
660.08	28.101
660.41	31.471
660.73	33.037
661.06	31.847
661.38	34.000
661.71	33.846
662.03	33.728
662.36	31.014
662.68	34.538
663.01	32.929
663.33	32.484
663.66	34.034
663.98	34.773
664.31	33.193
664.63	33.603
664.96	31.187
665.28	35.451
665.61	31.384
665.93	30.382
666.26	33.469
666.58	34.519
666.91	35.307
667.23	36.854
667.56	31.317
667.88	35.470
668.21	34.115
668.53	34.273
668.86	34.632
669.18	36.247
669.50	34.130
669.83	36.166
670.15	33.778
670.48	36.166
670.80	33.836
671.13	34.183
671.45	31.064
671.77	34.623
672.10	33.641
672.42	33.216
672.75	30.846
673.07	31.690
673.39	33.635
673.72	32.812
674.04	32.941
674.37	32.621
674.69	32.515
675.01	33.264
675.34	35.524
675.66	35.158
675.98	35.031
676.31	34.244
676.63	32.909
676.95	32.495
677.28	35.047
677.60	32.747
677.92	33.544
678.25	34.702
678.57	35.857
678.89	34.669
679.22	30.452
679.54	34.160
679.86	34.679
680.18	30.948
680.51	32.624
680.83	32.918
681.15	33.019
681.48	33.081
681.80	33.656
682.12	32.759
682.44	31.335
682.77	34.827
683.09	34.549
683.41	33.925
683.73	33.996
684.06	37.397
684.38	31.311
684.70	34.496
685.02	33.771
685.34	31.685
685.67	30.594
685.99	31.271
686.31	31.399
686.63	30.389
686.96	31.071
687.28	32.130
687.60	30.254
687.92	33.638
688.24	32.129
688.56	31.928
688.89	33.610
689.21	36.026
689.53	35.908
689.85	35.920
690.17	30.021
690.49	33.546
690.82	35.280
691.14	31.473
691.46	30.802
691.78	32.329
692.10	34.711
692.42	31.936
692.74	29.668
693.06	34.681
693.39	34.497
693.71	34.934
694.03	33.053
694.35	33.766
694.67	33.638
694.99	36.585
695.31	36.029
695.63	33.014
695.95	34.230
696.27	36.041
696.59	33.938
696.91	38.601
697.23	33.568
697.56	33.689
697.88	32.515
698.20	32.500
698.52	35.269
698.84	33.630
699.16	33.641
699.48	34.442
699.80	34.783
700.12	37.143
700.44	38.196
700.76	37.845
701.08	41.092
701.40	38.268
701.72	37.901
702.04	43.466
702.36	33.711
702.68	35.127
703.00	35.180
703.32	34.574
703.64	36.193
703.96	37.326
704.28	36.628
704.60	37.243
704.91	40.356
705.23	36.950
705.55	39.203
705.87	44.518
706.19	38.869
706.51	35.826
706.83	37.576
707.15	37.535
707.47	36.616
707.79	35.627
708.11	33.105
708.43	30.000
708.74	35.204
709.06	36.364
709.38	36.483
709.70	36.919
710.02	35.312
710.34	35.758
710.66	36.716
710.98	37.500
711.29	39.535
711.61	39.528
711.93	39.423
712.25	41.158
712.57	40.074
712.89	41.869
713.20	36.778
713.52	37.171
713.84	37.658
714.16	36.890
714.48	38.218
714.80	42.249
715.11	37.464
715.43	38.576
715.75	36.522
716.07	39.297
716.39	36.364
716.70	38.206
717.02	39.209
717.34	42.049
717.66	42.164
717.97	44.223
718.29	43.333
718.61	42.336
718.93	39.706
719.24	42.561
719.56	37.627
719.88	41.356
720.20	39.865
720.51	42.509
720.83	43.494
721.15	38.060
721.46	40.780
721.78	41.935
722.10	41.887
722.42	42.481
722.73	39.700
723.05	45.902
723.37	45.344
723.68	45.560
724.00	45.528
724.32	46.774
724.63	41.870
724.95	41.423
725.27	44.939
725.58	42.578
725.90	43.066
726.22	43.019
726.53	40.972
726.85	42.662
727.16	38.434
727.48	41.844
727.80	36.742
728.11	36.232
728.43	39.231
728.74	43.728
729.06	41.241
729.38	44.485
729.69	41.281
730.01	38.567
730.32	37.847
730.64	36.789
730.96	35.974
731.27	37.417
731.59	38.838
731.90	37.901
732.22	38.199
732.53	38.080
732.85	37.500
733.16	38.585
733.48	40.532
733.80	39.935
734.11	38.854
734.43	38.166
734.74	37.143
735.06	33.811
735.37	39.017
735.69	34.395
736.00	42.157
736.32	38.318
736.63	35.783
736.95	40.575
737.26	36.054
737.58	36.129
737.89	40.134
738.21	41.297
738.52	38.571
738.83	39.623
739.15	38.077
739.46	43.431
739.78	38.542
740.09	41.538
740.41	41.290
740.72	35.192
741.04	42.593
741.35	39.167
741.66	49.778
741.98	45.755
742.29	46.411
742.61	42.672
742.92	46.606
743.23	42.735
743.55	40.800
743.86	42.544
744.18	48.230
744.49	48.804
744.80	46.009
745.12	50.455
745.43	48.018
745.74	47.748
746.06	49.083
746.37	44.843
746.68	46.154
747.00	44.907
747.31	47.619
747.62	39.381
747.94	37.885
748.25	37.447
748.56	48.458
748.88	42.574
749.19	52.000
749.50	46.977
749.82	44.309
750.13	41.633
750.44	39.781
750.75	42.456
751.07	43.408
751.38	37.631
751.69	41.516
752.01	43.233
752.32	40.072
752.63	43.262
752.94	41.393
753.26	48.400
753.57	47.154
753.88	44.531
754.19	41.786
754.51	42.361
754.82	34.657
755.13	41.887
755.44	40.977
755.75	41.971
756.07	38.298
756.38	39.781
756.69	37.248
757.00	38.024
757.31	39.763
757.63	39.474
757.94	35.925
758.25	34.559
758.56	33.333
758.87	36.022
759.18	37.879
759.50	35.423
759.81	43.302
760.12	37.500
760.43	40.115
760.74	36.957
761.05	37.571
761.36	36.096
761.67	42.614
761.99	35.404
762.30	42.014
762.61	39.313
762.92	44.922
763.23	41.176
763.54	44.400
763.85	41.797
764.16	41.923
764.47	42.205
764.78	36.749
765.10	39.873
765.41	40.413
765.72	41.317
766.03	40.439
766.34	36.667
766.65	44.681
766.96	48.291
767.27	48.223
767.58	45.833
767.89	55.263
768.20	48.276
768.51	49.239
768.82	51.376
769.13	39.837
769.44	44.130
769.75	48.498
770.06	39.450
770.37	43.891
770.68	47.685
770.99	44.444
771.30	38.525
771.61	47.534
771.92	43.443
772.23	52.521
772.54	45.128
772.85	46.597
773.16	46.277
773.47	50.543
773.78	47.208
774.09	51.786
774.39	53.801
774.70	53.704
775.01	60.870
775.32	59.477
775.63	59.868
775.94	58.273
776.25	66.142
776.56	61.940
776.87	68.852
777.18	51.563
777.48	67.939
777.79	58.333
778.10	60.741
778.41	64.286
778.72	60.584
779.03	63.087
779.34	57.047
779.65	52.703
779.95	55.828
780.26	58.170
780.57	61.379
780.88	67.188
781.19	58.647
781.50	62.162
781.80	54.717
782.11	55.367
782.42	55.696
782.73	49.693
783.04	58.108
783.34	54.930
783.65	67.123
783.96	66.418
784.27	58.741
784.57	51.799
784.88	62.037
785.19	65.873
785.50	67.925
785.81	62.687
786.11	68.033
786.42	65.116
786.73	63.717
787.04	63.208
787.34	63.393
787.65	74.000
787.96	76.577
788.26	65.289
788.57	66.949
788.88	67.769
789.19	60.417
789.49	63.636
789.80	57.252
790.11	69.524
790.41	75.248
790.72	72.289
791.03	85.870
791.33	83.721
791.64	77.320
791.95	76.238
792.25	78.889
792.56	98.701
792.87	96.154
793.17	94.937
793.48	88.506
793.79	85.057
794.09	80.682
794.40	68.908
794.70	72.794
795.01	61.481
795.32	60.432
795.62	59.055
795.93	68.103
796.23	74.336
796.54	91.765
796.85	86.486
797.15	102.817
797.46	93.939
797.76	90.361
798.07	91.139
798.37	96.923
798.68	115.152
798.99	84.507
799.29	71.429
799.60	72.727
799.90	97.260
800.21	105.970
800.51	103.448
800.82	110.526
801.12	114.754
801.43	116.667
801.73	93.243
802.04	106.349
802.34	83.951
802.65	98.437
802.95	96.610
803.26	121.875
803.56	91.429
803.87	89.231
804.17	101.471
804.48	116.667
804.78	101.724
805.09	83.824
805.39	121.154
805.70	123.214
806.00	98.361
806.30	101.515
806.61	104.878
806.91	88.608
807.22	77.632
807.52	77.612
807.83	101.408
808.13	109.375
808.43	98.333
808.74	72.368
809.04	95.652
809.35	102.985
809.65	81.579
809.95	117.742
810.26	110.169
810.56	100.000
810.86	159.091
811.17	152.381
811.47	100.000
811.77	124.074
812.08	121.818
812.38	136.000
812.69	175.000
812.99	152.273
813.29	116.327
813.59	104.762
813.90	138.776
814.20	116.364
814.50	107.692
814.81	117.647
815.11	128.571
815.41	113.115
815.72	138.095
816.02	116.364
816.32	126.190
816.62	160.000
816.93	156.098
817.23	116.667
817.53	156.818
817.84	160.606
818.14	123.913
818.44	137.778
818.74	188.235
819.04	127.500
819.35	168.571
819.65	164.706
819.95	189.286
820.25	255.000
820.56	166.667
820.86	122.727
821.16	148.837
821.46	164.103
821.76	136.000
822.07	165.714
822.37	162.500
822.67	190.909
822.97	113.725
823.27	210.714
823.57	167.568
823.88	162.500
824.18	210.000
824.48	147.619
824.78	220.000
825.08	229.167
825.38	151.351
825.69	141.463
825.99	237.500
826.29	189.655
826.59	165.789
826.89	171.053
827.19	167.647
827.49	190.323
827.79	152.273
828.09	136.364
828.39	129.787
828.70	132.653
829.00	203.704
829.30	180.645
829.60	145.000
829.90	273.333
830.20	203.571
830.50	208.696
830.80	282.609
831.10	190.000
831.40	170.000
831.70	208.696
832.00	250.000
832.30	233.333
832.60	337.500
832.90	203.333
833.20	400.000
833.50	196.774
833.80	189.655
834.10	221.875
834.40	219.231
834.70	338.889
835.00	285.714
835.30	174.286
835.60	261.538
835.90	217.241
836.20	300.000
836.50	206.897
836.80	220.000
837.10	191.667
837.40	228.571
837.70	341.176
838.00	222.222
838.30	280.952
838.60	333.333
838.90	226.923
839.19	285.000
839.49	407.143
839.79	295.000
840.09	310.000
840.39	276.190
840.69	239.130
840.99	261.111
841.29	410.000
841.59	391.667
841.88	350.000
842.18	217.241
842.48	257.143
842.78	183.333
843.08	260.870
843.38	184.375
843.68	800.000
843.97	253.846
844.27	210.345
844.57	276.190
844.87	381.250
845.17	200.000
845.47	1533.333
845.76	622.222
846.06	358.824
846.36	487.500
846.66	285.714
846.96	362.500
847.25	445.455
847.55	418.182
847.85	282.609
848.15	510.000
848.44	314.286
848.74	300.000
849.04	329.412
849.34	500.000
849.63	226.316
849.93	445.455
850.23	1000.000
850.53	421.429
850.82	1950.000
851.12	-4000.000
851.42	4000.000
851.71	265.000
852.01	-1066.667
852.31	258.333
852.61	1933.333
852.90	276.190
853.20	216.000
853.50	329.412
853.79	276.190
854.09	241.667
854.39	300.000
854.68	181.081
854.98	206.452
855.28	180.000
855.57	196.552
855.87	207.407
856.17	226.316
856.46	266.667
856.76	264.706
857.05	220.690
857.35	250.000
857.65	326.667
857.94	252.174
858.24	215.385
858.53	305.000
858.83	218.182
859.13	353.333
859.42	0.000
859.72	600.000
860.01	500.000
860.31	254.545
860.60	263.158
860.90	252.174
861.20	655.556
861.49	500.000
861.79	-5700.000
862.08	725.000
862.38	266.667
862.67	415.385
862.97	358.824
863.26	533.333
863.56	316.667
863.85	458.333
864.15	550.000
864.44	426.667
864.74	950.000
865.03	812.500
865.33	336.842
865.62	490.909
865.92	438.462
866.21	458.333
866.51	0.000
866.80	518.182
867.10	1220.000
867.39	484.615
867.69	490.909
867.98	321.053
868.27	427.273
868.57	310.526
868.86	-4800.000
869.16	337.500
869.45	2350.000
869.75	-3400.000
870.04	508.333
870.33	742.857
870.63	1025.000
870.92	2650.000
871.22	714.286
871.51	358.824
871.80	200.000
872.10	392.857
>>>>>End Processed Spectral Data<<<<<
