SpectraSuite Data File
++++++++++++++++++++++++++++++++++++
Date: Wed May 13 19:55:47 PDT 2015
User: schluterlab
Dark Spectrum Present: Yes
Reference Spectrum Present: Yes
Number of Sampled Component Spectra: 1
Spectrometers: USB2E3373
Integration Time (usec): 3000 (USB2E3373)
Spectra Averaged: 3 (USB2E3373)
Boxcar Smoothing: 0 (USB2E3373)
Correct for Electrical Dark: No (USB2E3373)
Strobe/Lamp Enabled: No (USB2E3373)
Correct for Detector Non-linearity: No (USB2E3373)
Correct for Stray Light: No (USB2E3373)
Number of Pixels in Processed Spectrum: 2048
>>>>>Begin Processed Spectral Data<<<<<
178.53	0.000
178.91	-1350.000
179.29	-1175.000
179.67	-222.222
180.04	-1050.000
180.42	2800.000
180.80	980.000
181.18	-1300.000
181.56	742.857
181.94	0.000
182.31	-728.571
182.69	1800.000
183.07	-612.500
183.45	-544.444
183.83	527.273
184.20	-390.000
184.58	2450.000
184.96	6500.000
185.34	-1120.000
185.72	-587.500
186.09	-2300.000
186.47	2850.000
186.85	2400.000
187.23	5000.000
187.61	-1633.333
187.98	1275.000
188.36	509.091
188.74	527.273
189.12	-800.000
189.49	510.000
189.87	-5700.000
190.25	-1250.000
190.63	400.000
191.00	446.154
191.38	800.000
191.76	-1000.000
192.14	1450.000
192.51	662.500
192.89	933.333
193.27	662.500
193.65	-1200.000
194.02	550.000
194.40	1180.000
194.78	640.000
195.15	591.667
195.53	610.000
195.91	-1900.000
196.29	337.500
196.66	331.579
197.04	-360.000
197.42	0.000
197.79	640.000
198.17	-4800.000
198.55	728.571
198.92	737.500
199.30	840.000
199.68	0.000
200.05	322.222
200.43	914.286
200.81	3900.000
201.18	1566.667
201.56	-1900.000
201.94	688.889
202.31	644.444
202.69	383.333
203.07	560.000
203.44	0.000
203.82	1350.000
204.19	828.571
204.57	478.571
204.95	625.000
205.32	1466.667
205.70	454.545
206.08	400.000
206.45	2750.000
206.83	418.750
207.20	966.667
207.58	960.000
207.96	288.889
208.33	750.000
208.71	-683.333
209.08	814.286
209.46	722.222
209.84	490.909
210.21	-1566.667
210.59	1400.000
210.96	-525.000
211.34	2450.000
211.71	540.000
212.09	700.000
212.46	0.000
212.84	1400.000
213.22	1500.000
213.59	-4200.000
213.97	866.667
214.34	885.714
214.72	509.091
215.09	840.000
215.47	-3100.000
215.84	-2500.000
216.22	1500.000
216.59	414.286
216.97	1250.000
217.34	409.091
217.72	-750.000
218.09	0.000
218.47	-4400.000
218.84	577.778
219.22	700.000
219.59	1866.667
219.97	-700.000
220.34	1160.000
220.72	-1633.333
221.09	428.571
221.47	1450.000
221.84	-933.333
222.22	0.000
222.59	1475.000
222.97	-2400.000
223.34	1020.000
223.72	376.923
224.09	1160.000
224.46	2300.000
224.84	-5400.000
225.21	-1100.000
225.59	-4900.000
225.96	620.000
226.34	285.000
226.71	3000.000
227.08	675.000
227.46	530.000
227.83	-1150.000
228.21	-2600.000
228.58	644.444
228.95	-2600.000
229.33	-1950.000
229.70	1766.667
230.08	785.714
230.45	-840.000
230.82	441.667
231.20	850.000
231.57	842.857
231.95	475.000
232.32	236.364
232.69	327.273
233.07	671.429
233.44	423.077
233.81	-1600.000
234.19	294.737
234.56	433.333
234.93	391.667
235.31	436.364
235.68	307.692
236.05	314.286
236.43	172.727
236.80	300.000
237.17	4800.000
237.55	242.857
237.92	203.571
238.29	257.143
238.67	164.516
239.04	217.241
239.41	166.667
239.79	119.565
240.16	126.190
240.53	138.636
240.91	105.882
241.28	110.000
241.65	114.000
242.02	101.449
242.40	83.871
242.77	96.667
243.14	74.194
243.51	70.787
243.89	72.941
244.26	52.222
244.63	55.914
245.00	58.511
245.38	50.495
245.75	51.402
246.12	49.541
246.49	57.664
246.87	53.600
247.24	50.769
247.61	45.000
247.98	44.444
248.36	45.270
248.73	41.401
249.10	38.217
249.47	35.028
249.84	31.016
250.22	35.829
250.59	39.053
250.96	36.869
251.33	30.332
251.70	33.168
252.08	33.333
252.45	26.906
252.82	26.957
253.19	33.617
253.56	30.980
253.94	30.705
254.31	28.125
254.68	28.462
255.05	27.306
255.42	26.829
255.79	29.779
256.16	31.047
256.54	21.555
256.91	28.470
257.28	23.022
257.65	22.442
258.02	25.776
258.39	25.552
258.76	22.074
259.14	25.298
259.51	24.316
259.88	21.429
260.25	23.867
260.62	24.855
260.99	21.739
261.36	26.126
261.73	21.203
262.10	23.547
262.47	23.099
262.85	22.006
263.22	15.670
263.59	24.217
263.96	20.055
264.33	21.932
264.70	23.421
265.07	21.483
265.44	21.717
265.81	19.951
266.18	18.342
266.55	21.951
266.92	19.165
267.29	19.444
267.66	19.954
268.03	18.636
268.40	21.495
268.77	18.616
269.14	18.468
269.51	19.865
269.88	17.716
270.25	18.284
270.62	19.101
270.99	21.505
271.36	20.601
271.73	19.159
272.10	17.391
272.47	19.570
272.84	20.130
273.21	19.706
273.58	17.686
273.95	17.610
274.32	17.355
274.69	17.559
275.06	18.307
275.43	18.723
275.80	17.435
276.17	17.312
276.54	17.879
276.91	17.589
277.28	15.820
277.65	18.182
278.02	16.356
278.39	17.578
278.76	16.364
279.13	19.057
279.50	17.505
279.87	14.940
280.23	18.363
280.60	16.054
280.97	16.451
281.34	17.345
281.71	17.636
282.08	17.466
282.45	16.364
282.82	16.874
283.19	15.508
283.56	17.368
283.92	16.413
284.29	15.168
284.66	16.334
285.03	14.828
285.40	16.373
285.77	14.983
286.14	16.062
286.51	16.667
286.87	14.359
287.24	15.798
287.61	15.891
287.98	16.234
288.35	15.531
288.72	13.551
289.08	16.119
289.45	14.992
289.82	15.447
290.19	14.757
290.56	13.323
290.93	14.955
291.29	13.497
291.66	14.749
292.03	15.843
292.40	13.363
292.77	15.089
293.13	13.284
293.50	15.452
293.87	14.667
294.24	13.778
294.60	12.518
294.97	13.808
295.34	13.963
295.71	13.920
296.08	13.675
296.44	11.967
296.81	13.342
297.18	14.363
297.55	10.818
297.91	11.873
298.28	13.788
298.65	13.446
299.02	12.780
299.38	12.616
299.75	11.995
300.12	10.600
300.48	12.500
300.85	11.961
301.22	13.121
301.59	10.859
301.95	12.217
302.32	12.067
302.69	12.306
303.05	12.121
303.42	10.494
303.79	12.571
304.15	9.790
304.52	11.472
304.89	11.382
305.25	11.833
305.62	11.891
305.99	12.397
306.35	11.521
306.72	11.996
307.09	12.209
307.45	12.500
307.82	11.161
308.19	11.921
308.55	12.621
308.92	12.460
309.29	11.932
309.65	11.665
310.02	11.099
310.38	11.398
310.75	12.144
311.12	12.999
311.48	12.853
311.85	13.732
312.22	13.319
312.58	12.578
312.95	13.833
313.31	11.845
313.68	12.266
314.05	15.187
314.41	13.166
314.78	13.696
315.14	13.307
315.51	12.461
315.87	15.050
316.24	15.789
316.61	13.938
316.97	14.286
317.34	14.775
317.70	15.488
318.07	15.977
318.43	16.634
318.80	16.120
319.16	17.043
319.53	15.197
319.89	18.095
320.26	18.500
320.62	18.651
320.99	17.576
321.35	18.485
321.72	19.610
322.08	19.546
322.45	19.602
322.81	20.640
323.18	21.869
323.54	21.521
323.91	21.698
324.27	22.084
324.64	20.969
325.00	21.371
325.37	23.476
325.73	24.506
326.10	22.242
326.46	23.387
326.83	24.935
327.19	23.997
327.56	24.564
327.92	25.109
328.29	26.531
328.65	25.967
329.01	26.083
329.38	27.105
329.74	25.300
330.11	28.087
330.47	27.640
330.84	27.390
331.20	27.140
331.56	27.982
331.93	27.037
332.29	28.838
332.66	29.115
333.02	27.971
333.38	29.449
333.75	28.342
334.11	28.559
334.48	29.015
334.84	28.585
335.20	29.182
335.57	29.012
335.93	27.411
336.29	28.480
336.66	29.847
337.02	28.688
337.38	29.722
337.75	28.520
338.11	29.902
338.47	28.913
338.84	30.797
339.20	30.183
339.56	31.204
339.93	30.364
340.29	28.986
340.65	30.125
341.02	31.065
341.38	29.804
341.74	30.965
342.11	29.083
342.47	30.573
342.83	30.394
343.20	31.515
343.56	30.076
343.92	31.228
344.28	30.952
344.65	31.642
345.01	31.313
345.37	30.789
345.73	32.149
346.10	31.628
346.46	31.695
346.82	30.890
347.19	30.576
347.55	31.117
347.91	32.524
348.27	32.703
348.63	32.358
349.00	31.634
349.36	32.759
349.72	32.879
350.08	31.929
350.45	33.279
350.81	32.819
351.17	32.172
351.53	32.596
351.89	32.756
352.26	34.412
352.62	32.799
352.98	33.549
353.34	33.854
353.70	31.833
354.07	33.710
354.43	32.698
354.79	32.824
355.15	32.562
355.51	34.612
355.87	34.367
356.24	33.876
356.60	33.119
356.96	33.467
357.32	33.197
357.68	35.118
358.04	34.679
358.40	34.600
358.77	33.881
359.13	32.597
359.49	35.373
359.85	33.333
360.21	34.370
360.57	35.253
360.93	35.846
361.29	35.676
361.66	34.830
362.02	34.776
362.38	34.905
362.74	37.054
363.10	35.307
363.46	35.437
363.82	35.828
364.18	34.949
364.54	36.256
364.90	35.552
365.26	35.882
365.62	37.692
365.98	36.450
366.35	34.957
366.71	37.599
367.07	36.635
367.43	37.083
367.79	37.116
368.15	38.147
368.51	36.192
368.87	37.973
369.23	37.966
369.59	36.495
369.95	37.059
370.31	37.963
370.67	37.754
371.03	39.625
371.39	38.120
371.75	38.529
372.11	38.122
372.47	39.076
372.83	38.689
373.19	38.295
373.55	38.137
373.91	39.323
374.27	38.282
374.63	39.200
374.99	39.689
375.35	37.753
375.71	39.205
376.07	39.026
376.42	39.477
376.78	39.894
377.14	40.095
377.50	40.596
377.86	38.231
378.22	40.898
378.58	39.411
378.94	39.598
379.30	40.013
379.66	41.180
380.02	40.295
380.38	40.194
380.74	41.236
381.09	40.709
381.45	41.057
381.81	40.418
382.17	41.911
382.53	40.818
382.89	42.346
383.25	40.775
383.61	42.565
383.97	40.838
384.32	40.549
384.68	41.140
385.04	41.180
385.40	41.424
385.76	42.936
386.12	42.163
386.48	43.235
386.83	43.554
387.19	43.785
387.55	43.661
387.91	43.168
388.27	42.735
388.62	43.331
388.98	42.015
389.34	43.367
389.70	43.041
390.06	44.233
390.42	44.812
390.77	44.211
391.13	44.990
391.49	45.368
391.85	43.730
392.20	43.659
392.56	44.823
392.92	43.614
393.28	44.734
393.64	44.904
393.99	43.372
394.35	44.045
394.71	43.350
395.07	42.866
395.42	44.685
395.78	44.847
396.14	44.941
396.50	44.549
396.85	45.518
397.21	45.191
397.57	45.629
397.92	45.974
398.28	44.226
398.64	44.205
399.00	44.320
399.35	44.670
399.71	44.502
400.07	45.476
400.42	44.663
400.78	45.416
401.14	45.854
401.49	45.313
401.85	44.949
402.21	44.611
402.57	44.479
402.92	45.902
403.28	45.721
403.63	46.535
403.99	45.414
404.35	44.970
404.70	44.964
405.06	44.904
405.42	45.041
405.77	43.771
406.13	44.752
406.49	44.175
406.84	44.418
407.20	44.799
407.55	44.863
407.91	45.400
408.27	46.139
408.62	45.936
408.98	45.159
409.34	44.526
409.69	45.290
410.05	45.291
410.40	44.587
410.76	44.982
411.11	45.597
411.47	44.153
411.83	44.960
412.18	44.465
412.54	45.330
412.89	44.819
413.25	44.864
413.60	45.028
413.96	46.023
414.31	44.593
414.67	46.324
415.03	45.033
415.38	45.168
415.74	45.273
416.09	45.656
416.45	44.378
416.80	44.679
417.16	44.906
417.51	46.118
417.87	43.288
418.22	44.921
418.58	44.158
418.93	45.332
419.29	45.258
419.64	44.584
420.00	44.573
420.35	43.826
420.71	44.830
421.06	43.795
421.42	44.678
421.77	44.619
422.12	43.010
422.48	43.929
422.83	44.613
423.19	44.033
423.54	45.502
423.90	44.522
424.25	43.663
424.61	44.286
424.96	44.840
425.31	43.023
425.67	43.596
426.02	43.371
426.38	43.712
426.73	43.008
427.09	43.587
427.44	43.473
427.79	44.163
428.15	44.107
428.50	43.944
428.85	43.743
429.21	43.181
429.56	42.924
429.92	43.181
430.27	43.098
430.62	43.676
430.98	43.072
431.33	42.835
431.68	43.979
432.04	41.267
432.39	43.061
432.74	42.490
433.10	43.067
433.45	43.382
433.80	42.905
434.16	42.521
434.51	42.526
434.86	42.645
435.22	43.357
435.57	43.161
435.92	42.422
436.28	44.009
436.63	43.212
436.98	42.187
437.34	43.470
437.69	42.299
438.04	42.608
438.39	40.896
438.75	42.650
439.10	41.173
439.45	42.208
439.81	42.236
440.16	42.010
440.51	42.414
440.86	41.865
441.22	42.269
441.57	41.614
441.92	42.528
442.27	41.066
442.63	40.969
442.98	42.535
443.33	41.087
443.68	40.681
444.03	41.728
444.39	39.922
444.74	41.180
445.09	42.264
445.44	40.569
445.79	39.782
446.15	40.656
446.50	40.226
446.85	40.802
447.20	39.827
447.55	40.983
447.91	40.927
448.26	40.401
448.61	39.853
448.96	40.808
449.31	40.101
449.66	40.687
450.02	38.997
450.37	39.342
450.72	38.973
451.07	39.244
451.42	38.967
451.77	39.930
452.12	39.203
452.47	39.801
452.83	39.569
453.18	38.936
453.53	39.332
453.88	38.689
454.23	38.673
454.58	38.825
454.93	39.542
455.28	39.401
455.63	38.653
455.98	39.583
456.34	39.133
456.69	38.948
457.04	39.009
457.39	37.697
457.74	37.609
458.09	38.470
458.44	38.084
458.79	36.497
459.14	37.754
459.49	37.128
459.84	36.676
460.19	36.948
460.54	36.227
460.89	37.301
461.24	36.794
461.59	38.350
461.94	36.005
462.29	37.864
462.64	37.205
462.99	36.239
463.34	37.733
463.69	35.835
464.04	36.522
464.39	35.652
464.74	36.720
465.09	35.344
465.44	35.402
465.79	36.074
466.14	34.483
466.49	35.651
466.84	34.559
467.19	34.520
467.54	35.562
467.89	35.114
468.24	34.671
468.59	34.554
468.94	34.392
469.29	35.668
469.64	35.944
469.99	35.521
470.34	34.016
470.68	35.201
471.03	33.878
471.38	34.260
471.73	34.444
472.08	34.671
472.43	33.731
472.78	34.299
473.13	33.954
473.48	34.894
473.83	33.720
474.17	32.607
474.52	34.057
474.87	32.925
475.22	32.676
475.57	32.939
475.92	32.236
476.27	32.187
476.61	32.819
476.96	32.655
477.31	31.920
477.66	31.619
478.01	31.364
478.36	32.099
478.70	31.153
479.05	31.842
479.40	32.088
479.75	32.334
480.10	31.759
480.45	30.747
480.79	30.483
481.14	30.969
481.49	30.850
481.84	30.864
482.19	30.986
482.53	31.055
482.88	30.433
483.23	30.374
483.58	29.891
483.92	30.787
484.27	30.022
484.62	29.655
484.97	28.577
485.31	29.589
485.66	27.753
486.01	26.916
486.36	26.474
486.70	26.482
487.05	26.951
487.40	27.937
487.75	27.437
488.09	28.450
488.44	28.019
488.79	28.969
489.13	28.266
489.48	27.814
489.83	28.312
490.17	27.707
490.52	28.388
490.87	28.991
491.22	27.831
491.56	27.745
491.91	28.339
492.26	26.826
492.60	26.682
492.95	27.502
493.30	27.290
493.64	27.485
493.99	26.323
494.34	27.243
494.68	27.885
495.03	27.491
495.37	27.129
495.72	27.290
496.07	27.471
496.41	26.770
496.76	26.517
497.11	25.349
497.45	26.083
497.80	26.392
498.14	26.087
498.49	25.805
498.84	26.510
499.18	26.286
499.53	26.306
499.87	26.048
500.22	25.389
500.56	27.039
500.91	25.096
501.26	24.751
501.60	25.724
501.95	24.748
502.29	25.492
502.64	25.512
502.98	24.778
503.33	24.954
503.67	24.872
504.02	24.930
504.36	24.661
504.71	25.208
505.06	24.819
505.40	24.064
505.75	23.963
506.09	24.538
506.44	24.716
506.78	25.231
507.13	24.886
507.47	25.152
507.82	24.823
508.16	24.924
508.51	24.860
508.85	24.528
509.19	24.541
509.54	24.031
509.88	24.317
510.23	23.753
510.57	24.871
510.92	24.806
511.26	23.741
511.61	23.807
511.95	23.330
512.30	24.284
512.64	23.589
512.98	24.062
513.33	23.876
513.67	23.106
514.02	23.160
514.36	24.194
514.70	23.630
515.05	23.871
515.39	23.163
515.74	23.705
516.08	24.148
516.42	23.418
516.77	23.746
517.11	23.307
517.46	23.476
517.80	22.764
518.14	22.293
518.49	23.629
518.83	23.693
519.17	23.383
519.52	23.316
519.86	23.446
520.20	22.832
520.55	23.040
520.89	23.601
521.23	23.100
521.58	23.049
521.92	23.209
522.26	22.026
522.61	22.243
522.95	23.880
523.29	22.946
523.64	23.780
523.98	23.105
524.32	22.497
524.66	22.670
525.01	21.998
525.35	22.119
525.69	21.921
526.04	22.305
526.38	23.185
526.72	22.147
527.06	22.787
527.41	21.101
527.75	22.701
528.09	22.222
528.43	22.498
528.78	22.004
529.12	22.121
529.46	22.290
529.80	22.277
530.15	22.368
530.49	21.415
530.83	22.975
531.17	22.193
531.51	22.374
531.86	22.387
532.20	21.904
532.54	21.973
532.88	21.951
533.22	21.799
533.57	20.741
533.91	21.553
534.25	21.507
534.59	21.049
534.93	21.059
535.27	21.304
535.62	22.039
535.96	21.469
536.30	20.598
536.64	21.507
536.98	22.031
537.32	21.922
537.66	21.600
538.01	21.791
538.35	21.138
538.69	22.399
539.03	21.183
539.37	20.575
539.71	20.415
540.05	21.176
540.39	20.332
540.73	21.345
541.07	21.220
541.42	20.678
541.76	21.484
542.10	21.734
542.44	20.596
542.78	21.542
543.12	19.834
543.46	20.721
543.80	20.039
544.14	19.705
544.48	21.016
544.82	20.398
545.16	20.950
545.50	20.951
545.84	21.102
546.18	20.404
546.52	20.716
546.86	20.756
547.20	21.241
547.54	19.840
547.88	20.599
548.22	20.922
548.56	19.686
548.90	19.590
549.24	19.933
549.58	20.055
549.92	20.330
550.26	20.952
550.60	19.710
550.94	20.493
551.28	19.093
551.62	19.626
551.96	20.140
552.30	19.795
552.64	19.878
552.98	20.610
553.32	20.094
553.66	20.723
554.00	20.522
554.34	18.565
554.68	20.243
555.02	19.887
555.36	19.972
555.69	18.809
556.03	19.650
556.37	19.509
556.71	19.441
557.05	19.468
557.39	20.154
557.73	19.972
558.07	20.015
558.41	19.899
558.75	19.838
559.08	20.358
559.42	19.048
559.76	19.485
560.10	19.629
560.44	18.379
560.78	18.629
561.12	18.997
561.45	19.361
561.79	19.380
562.13	19.115
562.47	19.331
562.81	18.898
563.15	18.127
563.48	18.435
563.82	18.787
564.16	17.397
564.50	17.839
564.84	18.647
565.17	18.855
565.51	18.914
565.85	18.845
566.19	18.347
566.52	18.239
566.86	17.842
567.20	18.514
567.54	17.352
567.88	17.165
568.21	17.937
568.55	17.341
568.89	16.926
569.23	16.399
569.56	16.721
569.90	17.396
570.24	16.111
570.57	15.879
570.91	15.869
571.25	16.245
571.59	15.994
571.92	15.438
572.26	15.916
572.60	16.577
572.93	15.952
573.27	16.327
573.61	16.108
573.95	15.788
574.28	15.704
574.62	15.355
574.96	15.556
575.29	15.228
575.63	15.117
575.97	15.465
576.30	15.799
576.64	15.441
576.98	15.192
577.31	15.042
577.65	14.832
577.98	15.259
578.32	14.913
578.66	15.094
578.99	15.134
579.33	14.936
579.67	15.276
580.00	14.912
580.34	15.140
580.67	15.103
581.01	14.886
581.35	14.809
581.68	14.692
582.02	14.431
582.35	14.720
582.69	14.933
583.02	14.982
583.36	15.126
583.70	15.210
584.03	15.204
584.37	15.204
584.70	14.734
585.04	15.044
585.37	14.818
585.71	15.061
586.04	14.907
586.38	15.230
586.72	15.521
587.05	14.887
587.39	14.908
587.72	15.177
588.06	14.941
588.39	15.391
588.73	14.931
589.06	15.425
589.40	14.815
589.73	15.136
590.07	15.587
590.40	14.615
590.73	15.652
591.07	15.832
591.40	15.732
591.74	15.931
592.07	15.750
592.41	15.750
592.74	15.169
593.08	15.090
593.41	14.964
593.75	14.834
594.08	14.918
594.41	15.200
594.75	15.083
595.08	14.889
595.42	14.851
595.75	14.815
596.09	15.546
596.42	16.110
596.75	15.281
597.09	16.277
597.42	15.261
597.75	15.222
598.09	15.261
598.42	15.077
598.76	14.998
599.09	14.405
599.42	15.211
599.76	15.117
600.09	14.536
600.42	15.084
600.76	14.536
601.09	14.827
601.42	14.992
601.76	14.877
602.09	15.731
602.42	15.287
602.76	15.961
603.09	14.673
603.42	15.307
603.76	14.977
604.09	14.153
604.42	14.961
604.76	15.310
605.09	15.072
605.42	15.263
605.75	14.735
606.09	14.437
606.42	14.753
606.75	15.015
607.09	15.362
607.42	14.591
607.75	14.768
608.08	14.850
608.42	15.240
608.75	14.833
609.08	15.079
609.41	15.088
609.75	15.007
610.08	15.127
610.41	14.758
610.74	13.907
611.07	15.810
611.41	14.917
611.74	15.234
612.07	15.424
612.40	14.953
612.73	15.158
613.07	15.948
613.40	15.903
613.73	13.896
614.06	14.839
614.39	15.994
614.72	15.158
615.06	15.231
615.39	14.703
615.72	14.826
616.05	14.992
616.38	14.842
616.71	15.321
617.05	15.724
617.38	15.514
617.71	14.895
618.04	16.106
618.37	15.139
618.70	16.801
619.03	16.382
619.36	15.682
619.69	15.775
620.03	16.209
620.36	16.243
620.69	16.644
621.02	16.077
621.35	16.288
621.68	15.498
622.01	15.789
622.34	16.263
622.67	16.502
623.00	15.554
623.33	15.940
623.66	16.369
623.99	16.642
624.32	16.405
624.65	15.819
624.99	15.085
625.32	15.351
625.65	16.003
625.98	16.218
626.31	16.252
626.64	15.918
626.97	17.041
627.30	16.209
627.63	17.884
627.96	15.643
628.29	17.673
628.62	18.115
628.95	19.151
629.28	17.883
629.61	17.874
629.94	16.000
630.26	17.159
630.59	16.683
630.92	16.571
631.25	16.091
631.58	17.117
631.91	17.444
632.24	17.300
632.57	17.943
632.90	16.886
633.23	17.897
633.56	18.870
633.89	17.441
634.22	17.140
634.55	18.343
634.88	18.802
635.20	18.041
635.53	18.434
635.86	18.069
636.19	18.588
636.52	18.454
636.85	17.640
637.18	16.935
637.51	18.794
637.83	15.166
638.16	18.031
638.49	18.262
638.82	19.216
639.15	18.875
639.48	18.703
639.81	20.241
640.13	19.010
640.46	19.732
640.79	20.079
641.12	17.331
641.45	18.436
641.77	19.440
642.10	18.421
642.43	18.168
642.76	19.505
643.09	20.245
643.41	19.120
643.74	21.142
644.07	19.512
644.40	21.626
644.73	21.260
645.05	21.870
645.38	19.589
645.71	18.357
646.04	19.269
646.36	22.037
646.69	21.237
647.02	20.408
647.35	19.072
647.67	21.239
648.00	19.837
648.33	18.152
648.66	21.061
648.98	18.291
649.31	18.535
649.64	17.339
649.96	18.778
650.29	18.641
650.62	19.256
650.94	20.583
651.27	20.777
651.60	20.799
651.92	19.489
652.25	21.173
652.58	19.159
652.90	19.905
653.23	18.490
653.56	18.898
653.88	20.285
654.21	20.063
654.54	20.132
654.86	20.872
655.19	17.973
655.52	12.074
655.84	10.032
656.17	12.669
656.49	17.514
656.82	17.671
657.15	13.730
657.47	10.192
657.80	7.838
658.13	7.965
658.45	12.082
658.78	11.926
659.10	12.711
659.43	13.138
659.75	13.756
660.08	15.380
660.41	16.760
660.73	20.330
661.06	19.108
661.38	21.455
661.71	19.231
662.03	24.458
662.36	21.272
662.68	21.084
663.01	22.828
663.33	21.019
663.66	20.588
663.98	23.110
664.31	21.429
664.63	20.445
664.96	21.932
665.28	21.721
665.61	22.027
665.93	19.920
666.26	21.501
666.58	22.385
666.91	22.833
667.23	22.921
667.56	19.654
667.88	23.718
668.21	23.667
668.53	22.777
668.86	20.779
669.18	23.241
669.50	21.522
669.83	22.004
670.15	21.556
670.48	22.440
670.80	19.397
671.13	22.718
671.45	21.277
671.77	24.847
672.10	21.072
672.42	18.021
672.75	19.071
673.07	18.838
673.39	19.892
673.72	20.117
674.04	20.196
674.37	19.806
674.69	20.654
675.01	19.247
675.34	22.587
675.66	25.053
675.98	22.607
676.31	20.798
676.63	22.930
676.95	21.803
677.28	19.393
677.60	18.901
677.92	23.840
678.25	22.382
678.57	20.717
678.89	20.240
679.22	18.271
679.54	19.084
679.86	21.651
680.18	20.751
680.51	19.858
680.83	20.641
681.15	20.000
681.48	19.660
681.80	20.116
682.12	20.115
682.44	18.762
682.77	22.607
683.09	20.815
683.41	21.286
683.73	21.413
684.06	22.107
684.38	21.331
684.70	20.543
685.02	20.826
685.34	20.513
685.67	18.531
685.99	18.729
686.31	18.430
686.63	17.845
686.96	21.250
687.28	17.690
687.60	19.384
687.92	21.572
688.24	18.061
688.56	21.486
688.89	21.162
689.21	24.454
689.53	21.921
689.85	21.729
690.17	18.427
690.49	22.293
690.82	21.262
691.14	20.089
691.46	19.831
691.78	20.080
692.10	21.488
692.42	22.355
692.74	19.502
693.06	21.277
693.39	20.329
693.71	20.087
694.03	22.737
694.35	20.563
694.67	20.595
694.99	26.098
695.31	21.814
695.63	24.402
695.95	23.227
696.27	19.797
696.59	21.244
696.91	24.611
697.23	18.545
697.56	19.190
697.88	18.200
698.20	19.167
698.52	21.075
698.84	21.381
699.16	20.276
699.48	22.090
699.80	20.773
700.12	25.195
700.44	24.403
700.76	23.757
701.08	24.425
701.40	22.626
701.72	26.822
702.04	29.830
702.36	24.363
702.68	25.212
703.00	24.100
703.32	22.340
703.64	24.665
703.96	24.791
704.28	27.907
704.60	22.287
704.91	26.113
705.23	26.393
705.55	30.897
705.87	31.561
706.19	27.208
706.51	25.234
706.83	27.576
707.15	24.370
707.47	23.232
707.79	21.622
708.11	21.689
708.43	20.714
708.74	18.622
709.06	24.675
709.38	22.572
709.70	24.419
710.02	25.816
710.34	23.939
710.66	27.164
710.98	24.148
711.29	28.198
711.61	26.549
711.93	23.397
712.25	27.653
712.57	29.044
712.89	26.298
713.20	28.571
713.52	25.987
713.84	25.949
714.16	29.268
714.48	24.713
714.80	25.532
715.11	21.902
715.43	23.739
715.75	24.928
716.07	25.559
716.39	25.705
716.70	26.910
717.02	26.978
717.34	26.148
717.66	29.478
717.97	32.271
718.29	29.259
718.61	27.737
718.93	31.618
719.24	24.221
719.56	24.407
719.88	26.441
720.20	31.081
720.51	30.662
720.83	29.368
721.15	28.731
721.46	25.177
721.78	32.258
722.10	30.943
722.42	32.707
722.73	29.588
723.05	26.639
723.37	27.126
723.68	31.660
724.00	23.984
724.32	28.629
724.63	33.740
724.95	28.033
725.27	28.745
725.58	28.906
725.90	30.657
726.22	29.057
726.53	26.736
726.85	30.717
727.16	29.537
727.48	29.078
727.80	32.197
728.11	24.638
728.43	28.077
728.74	25.090
729.06	33.942
729.38	34.926
729.69	32.028
730.01	28.328
730.32	27.431
730.64	28.094
730.96	23.762
731.27	25.828
731.59	28.440
731.90	22.157
732.22	22.981
732.53	25.697
732.85	25.962
733.16	25.723
733.48	29.900
733.80	23.377
734.11	28.981
734.43	27.811
734.74	23.714
735.06	24.069
735.37	31.214
735.69	23.567
736.00	30.392
736.32	27.103
736.63	24.601
736.95	26.518
737.26	22.449
737.58	25.161
737.89	26.087
738.21	27.986
738.52	26.429
738.83	23.774
739.15	27.308
739.46	31.022
739.78	28.819
740.09	28.308
740.41	27.419
740.72	29.268
741.04	25.185
741.35	25.833
741.66	33.778
741.98	28.302
742.29	34.928
742.61	40.948
742.92	35.294
743.23	31.624
743.55	34.800
743.86	30.263
744.18	34.071
744.49	30.622
744.80	33.333
745.12	32.727
745.43	29.515
745.74	36.486
746.06	36.697
746.37	33.184
746.68	33.032
747.00	36.111
747.31	32.857
747.62	33.628
747.94	30.837
748.25	32.340
748.56	37.004
748.88	33.168
749.19	36.000
749.50	33.023
749.82	28.049
750.13	28.163
750.44	24.453
750.75	28.421
751.07	29.904
751.38	25.784
751.69	31.047
752.01	25.188
752.32	28.881
752.63	30.142
752.94	27.869
753.26	33.200
753.57	23.984
753.88	32.812
754.19	29.643
754.51	30.208
754.82	23.466
755.13	31.321
755.44	28.571
755.75	28.102
756.07	27.305
756.38	27.372
756.69	27.181
757.00	24.850
757.31	24.332
757.63	25.146
757.94	21.984
758.25	22.794
758.56	22.469
758.87	23.118
759.18	25.152
759.50	27.273
759.81	21.495
760.12	24.375
760.43	24.642
760.74	22.554
761.05	23.729
761.36	21.925
761.67	23.295
761.99	24.224
762.30	26.042
762.61	31.679
762.92	32.031
763.23	33.193
763.54	29.200
763.85	25.000
764.16	33.846
764.47	31.939
764.78	26.855
765.10	25.633
765.41	25.369
765.72	24.850
766.03	26.646
766.34	26.667
766.65	29.787
766.96	31.197
767.27	32.995
767.58	36.458
767.89	41.053
768.20	42.529
768.51	32.487
768.82	38.073
769.13	25.203
769.44	27.935
769.75	32.618
770.06	27.982
770.37	29.412
770.68	33.796
770.99	31.111
771.30	31.148
771.61	32.735
771.92	29.508
772.23	35.714
772.54	31.795
772.85	35.602
773.16	35.638
773.47	42.935
773.78	45.178
774.09	35.714
774.39	45.029
774.70	46.296
775.01	39.855
775.32	50.327
775.63	51.974
775.94	39.568
776.25	55.118
776.56	49.254
776.87	45.082
777.18	51.563
777.48	52.672
777.79	55.303
778.10	46.667
778.41	50.000
778.72	38.686
779.03	44.295
779.34	48.993
779.65	40.541
779.95	42.945
780.26	43.137
780.57	41.379
780.88	53.125
781.19	46.617
781.50	51.351
781.80	43.396
782.11	35.028
782.42	35.443
782.73	39.877
783.04	45.946
783.34	47.183
783.65	52.055
783.96	51.493
784.27	41.259
784.57	48.921
784.88	38.889
785.19	50.000
785.50	57.547
785.81	55.970
786.11	54.918
786.42	48.062
786.73	49.558
787.04	62.264
787.34	54.464
787.65	60.000
787.96	42.342
788.26	48.760
788.57	55.085
788.88	56.198
789.19	45.139
789.49	47.727
789.80	54.198
790.11	65.714
790.41	54.455
790.72	56.627
791.03	63.043
791.33	67.442
791.64	62.887
791.95	66.337
792.25	76.667
792.56	77.922
792.87	87.179
793.17	82.278
793.48	71.264
793.79	70.115
794.09	65.909
794.40	50.420
794.70	58.088
795.01	41.481
795.32	51.799
795.62	48.031
795.93	56.034
796.23	61.062
796.54	71.765
796.85	72.973
797.15	87.324
797.46	75.758
797.76	72.289
798.07	63.291
798.37	75.385
798.68	72.727
798.99	67.606
799.29	76.623
799.60	62.500
799.90	82.192
800.21	82.090
800.51	87.931
800.82	89.474
801.12	90.164
801.43	83.333
801.73	75.676
802.04	109.524
802.34	81.481
802.65	106.250
802.95	105.085
803.26	95.312
803.56	77.143
803.87	86.154
804.17	82.353
804.48	107.407
804.78	87.931
805.09	79.412
805.39	92.308
805.70	101.786
806.00	93.443
806.30	72.727
806.61	68.293
806.91	70.886
807.22	75.000
807.52	70.149
807.83	87.324
808.13	87.500
808.43	100.000
808.74	75.000
809.04	85.507
809.35	97.015
809.65	69.737
809.95	104.839
810.26	105.085
810.56	101.587
810.86	122.727
811.17	128.571
811.47	98.333
811.77	92.593
812.08	112.727
812.38	106.000
812.69	127.778
812.99	125.000
813.29	116.327
813.59	95.238
813.90	114.286
814.20	92.727
814.50	84.615
814.81	102.941
815.11	126.531
815.41	103.279
815.72	130.952
816.02	109.091
816.32	116.667
816.62	142.500
816.93	143.902
817.23	152.381
817.53	125.000
817.84	151.515
818.14	123.913
818.44	115.556
818.74	161.765
819.04	147.500
819.35	165.714
819.65	176.471
819.95	185.714
820.25	210.000
820.56	148.718
820.86	129.545
821.16	116.279
821.46	125.641
821.76	152.000
822.07	151.429
822.37	170.000
822.67	151.515
822.97	115.686
823.27	207.143
823.57	145.946
823.88	157.500
824.18	186.667
824.48	145.238
824.78	216.000
825.08	175.000
825.38	156.757
825.69	131.707
825.99	216.667
826.29	172.414
826.59	152.632
826.89	155.263
827.19	170.588
827.49	187.097
827.79	154.545
828.09	129.545
828.39	110.638
828.70	144.898
829.00	170.370
829.30	148.387
829.60	147.500
829.90	246.667
830.20	192.857
830.50	160.870
830.80	234.783
831.10	210.000
831.40	173.333
831.70	204.348
832.00	234.615
832.30	188.889
832.60	300.000
832.90	180.000
833.20	385.714
833.50	170.968
833.80	186.207
834.10	200.000
834.40	238.462
834.70	311.111
835.00	300.000
835.30	162.857
835.60	369.231
835.90	227.586
836.20	385.714
836.50	220.690
836.80	192.000
837.10	172.222
837.40	214.286
837.70	300.000
838.00	200.000
838.30	257.143
838.60	233.333
838.90	215.385
839.19	280.000
839.49	421.429
839.79	295.000
840.09	250.000
840.39	276.190
840.69	226.087
840.99	266.667
841.29	410.000
841.59	383.333
841.88	337.500
842.18	158.621
842.48	300.000
842.78	183.333
843.08	239.130
843.38	187.500
843.68	866.667
843.97	196.154
844.27	200.000
844.57	300.000
844.87	281.250
845.17	248.148
845.47	1500.000
845.76	488.889
846.06	288.235
846.36	600.000
846.66	314.286
846.96	331.250
847.25	454.545
847.55	454.545
847.85	260.870
848.15	500.000
848.44	350.000
848.74	194.444
849.04	294.118
849.34	580.000
849.63	263.158
849.93	454.545
850.23	800.000
850.53	414.286
850.82	2500.000
851.12	-4100.000
851.42	4500.000
851.71	280.000
852.01	-1400.000
852.31	254.167
852.61	2000.000
852.90	238.095
853.20	208.000
853.50	341.176
853.79	280.952
854.09	275.000
854.39	325.000
854.68	154.054
854.98	177.419
855.28	180.000
855.57	227.586
855.87	200.000
856.17	221.053
856.46	213.333
856.76	276.471
857.05	227.586
857.35	254.167
857.65	333.333
857.94	213.043
858.24	250.000
858.53	280.000
858.83	281.818
859.13	346.667
859.42	0.000
859.72	500.000
860.01	554.545
860.31	236.364
860.60	242.105
860.90	239.130
861.20	600.000
861.49	483.333
861.79	-4600.000
862.08	687.500
862.38	271.429
862.67	369.231
862.97	317.647
863.26	644.444
863.56	305.556
863.85	416.667
864.15	575.000
864.44	386.667
864.74	883.333
865.03	637.500
865.33	305.263
865.62	390.909
865.92	415.385
866.21	375.000
866.51	0.000
866.80	472.727
867.10	1120.000
867.39	384.615
867.69	536.364
867.98	315.789
868.27	445.455
868.57	305.263
868.86	-4600.000
869.16	312.500
869.45	2150.000
869.75	-4000.000
870.04	433.333
870.33	642.857
870.63	1025.000
870.92	2450.000
871.22	714.286
871.51	358.824
871.80	228.571
872.10	378.571
>>>>>End Processed Spectral Data<<<<<
