SpectraSuite Data File
++++++++++++++++++++++++++++++++++++
Date: Wed May 13 19:34:12 PDT 2015
User: schluterlab
Dark Spectrum Present: Yes
Reference Spectrum Present: Yes
Number of Sampled Component Spectra: 1
Spectrometers: USB2E3373
Integration Time (usec): 3000 (USB2E3373)
Spectra Averaged: 3 (USB2E3373)
Boxcar Smoothing: 0 (USB2E3373)
Correct for Electrical Dark: No (USB2E3373)
Strobe/Lamp Enabled: No (USB2E3373)
Correct for Detector Non-linearity: No (USB2E3373)
Correct for Stray Light: No (USB2E3373)
Number of Pixels in Processed Spectrum: 2048
>>>>>Begin Processed Spectral Data<<<<<
178.53	0.000
178.91	-1500.000
179.29	-1700.000
179.67	-250.000
180.04	-1325.000
180.42	2850.000
180.80	1320.000
181.18	-1225.000
181.56	800.000
181.94	0.000
182.31	-671.429
182.69	1800.000
183.07	-550.000
183.45	-600.000
183.83	627.273
184.20	-430.000
184.58	2200.000
184.96	6300.000
185.34	-940.000
185.72	-725.000
186.09	-2500.000
186.47	3050.000
186.85	2800.000
187.23	5400.000
187.61	-1833.333
187.98	1375.000
188.36	563.636
188.74	481.818
189.12	-1000.000
189.49	580.000
189.87	-5000.000
190.25	-1475.000
190.63	378.571
191.00	407.692
191.38	950.000
191.76	-1150.000
192.14	1675.000
192.51	675.000
192.89	916.667
193.27	575.000
193.65	-1475.000
194.02	520.000
194.40	960.000
194.78	580.000
195.15	583.333
195.53	690.000
195.91	-2550.000
196.29	400.000
196.66	342.105
197.04	-480.000
197.42	0.000
197.79	680.000
198.17	-4900.000
198.55	857.143
198.92	800.000
199.30	960.000
199.68	0.000
200.05	355.556
200.43	800.000
200.81	5000.000
201.18	1666.667
201.56	-1933.333
201.94	611.111
202.31	600.000
202.69	475.000
203.07	580.000
203.44	0.000
203.82	1400.000
204.19	771.429
204.57	450.000
204.95	687.500
205.32	1766.667
205.70	500.000
206.08	392.857
206.45	3300.000
206.83	368.750
207.20	1033.333
207.58	780.000
207.96	350.000
208.33	762.500
208.71	-866.667
209.08	842.857
209.46	644.444
209.84	481.818
210.21	-1433.333
210.59	1325.000
210.96	-512.500
211.34	2850.000
211.71	720.000
212.09	733.333
212.46	0.000
212.84	2000.000
213.22	1550.000
213.59	-4400.000
213.97	916.667
214.34	871.429
214.72	636.364
215.09	1180.000
215.47	-2300.000
215.84	-2800.000
216.22	1866.667
216.59	414.286
216.97	1250.000
217.34	481.818
217.72	-900.000
218.09	0.000
218.47	-4700.000
218.84	644.444
219.22	742.857
219.59	1900.000
219.97	-628.571
220.34	1160.000
220.72	-1800.000
221.09	507.143
221.47	1575.000
221.84	-983.333
222.22	0.000
222.59	1550.000
222.97	-2700.000
223.34	1200.000
223.72	584.615
224.09	1160.000
224.46	2200.000
224.84	-6200.000
225.21	-1060.000
225.59	-4700.000
225.96	710.000
226.34	325.000
226.71	3450.000
227.08	775.000
227.46	650.000
227.83	-1250.000
228.21	-2600.000
228.58	611.111
228.95	-2550.000
229.33	-2200.000
229.70	1766.667
230.08	742.857
230.45	-860.000
230.82	500.000
231.20	916.667
231.57	800.000
231.95	491.667
232.32	272.727
232.69	436.364
233.07	642.857
233.44	353.846
233.81	-1833.333
234.19	315.789
234.56	516.667
234.93	433.333
235.31	481.818
235.68	361.538
236.05	385.714
236.43	190.909
236.80	231.579
237.17	4500.000
237.55	271.429
237.92	210.714
238.29	247.619
238.67	145.161
239.04	203.448
239.41	130.556
239.79	128.261
240.16	147.619
240.53	125.000
240.91	92.157
241.28	94.000
241.65	114.000
242.02	91.304
242.40	77.419
242.77	80.000
243.14	76.344
243.51	68.539
243.89	64.706
244.26	46.667
244.63	55.914
245.00	52.128
245.38	52.475
245.75	45.794
246.12	46.789
246.49	49.635
246.87	55.200
247.24	40.000
247.61	40.000
247.98	39.869
248.36	29.054
248.73	43.312
249.10	38.217
249.47	36.723
249.84	33.155
250.22	36.364
250.59	26.036
250.96	31.313
251.33	29.858
251.70	30.198
252.08	25.714
252.45	28.700
252.82	24.783
253.19	25.106
253.56	25.490
253.94	27.386
254.31	23.047
254.68	25.000
255.05	25.092
255.42	19.512
255.79	19.118
256.16	26.354
256.54	18.021
256.91	18.505
257.28	16.187
257.65	21.122
258.02	17.081
258.39	18.927
258.76	19.398
259.14	17.560
259.51	15.502
259.88	16.460
260.25	16.918
260.62	16.763
260.99	16.149
261.36	19.520
261.73	15.473
262.10	13.372
262.47	18.028
262.85	17.549
263.22	14.530
263.59	21.652
263.96	16.758
264.33	16.188
264.70	14.211
265.07	15.857
265.44	13.131
265.81	13.625
266.18	14.824
266.55	14.390
266.92	13.268
267.29	13.889
267.66	14.220
268.03	13.864
268.40	14.252
268.77	10.740
269.14	11.937
269.51	16.253
269.88	14.918
270.25	15.576
270.62	13.258
270.99	15.484
271.36	15.665
271.73	12.383
272.10	11.304
272.47	15.054
272.84	11.905
273.21	12.788
273.58	12.882
273.95	11.740
274.32	12.810
274.69	12.848
275.06	10.236
275.43	13.191
275.80	11.022
276.17	12.831
276.54	11.227
276.91	11.265
277.28	12.305
277.65	13.540
278.02	10.973
278.39	14.062
278.76	11.818
279.13	11.887
279.50	11.732
279.87	11.753
280.23	10.180
280.60	10.445
280.97	11.460
281.34	12.212
281.71	11.818
282.08	10.940
282.45	10.545
282.82	9.769
283.19	7.843
283.56	10.877
283.92	11.844
284.29	10.935
284.66	11.978
285.03	10.850
285.40	10.739
285.77	10.101
286.14	10.017
286.51	11.500
286.87	10.427
287.24	11.238
287.61	12.199
287.98	10.714
288.35	9.509
288.72	9.813
289.08	9.390
289.45	8.567
289.82	9.756
290.19	9.262
290.56	8.576
290.93	8.610
291.29	9.049
291.66	9.735
292.03	11.192
292.40	9.104
292.77	8.728
293.13	9.851
293.50	7.872
293.87	9.333
294.24	8.444
294.60	7.715
294.97	8.285
295.34	8.745
295.71	8.523
296.08	7.265
296.44	7.290
296.81	7.794
297.18	8.401
297.55	6.860
297.91	7.784
298.28	9.237
298.65	9.269
299.02	8.432
299.38	6.507
299.75	5.660
300.12	6.769
300.48	6.125
300.85	8.385
301.22	7.006
301.59	5.934
301.95	7.809
302.32	8.087
302.69	7.766
303.05	6.909
303.42	8.148
303.79	8.381
304.15	6.294
304.52	5.098
304.89	6.272
305.25	6.265
305.62	8.267
305.99	7.438
306.35	7.606
306.72	5.830
307.09	7.103
307.45	8.446
307.82	5.469
308.19	7.947
308.55	7.659
308.92	7.197
309.29	6.653
309.65	6.681
310.02	7.822
310.38	7.204
310.75	7.075
311.12	8.291
311.48	9.091
311.85	7.652
312.22	7.076
312.58	6.549
312.95	7.075
313.31	6.602
313.68	7.692
314.05	9.270
314.41	6.834
314.78	7.654
315.14	7.150
315.51	8.136
315.87	7.327
316.24	7.249
316.61	7.212
316.97	7.926
317.34	8.121
317.70	8.413
318.07	7.988
318.43	9.002
318.80	9.466
319.16	10.075
319.53	9.568
319.89	10.857
320.26	10.800
320.62	11.409
320.99	10.606
321.35	11.818
321.72	11.704
322.08	12.438
322.45	13.134
322.81	12.112
323.18	13.295
323.54	12.987
323.91	12.736
324.27	13.671
324.64	12.022
325.00	13.165
325.37	13.649
325.73	14.811
326.10	13.945
326.46	15.054
326.83	15.703
327.19	15.798
327.56	14.634
327.92	15.223
328.29	15.883
328.65	16.575
329.01	16.336
329.38	16.651
329.74	18.006
330.11	17.436
330.47	17.998
330.84	17.188
331.20	17.851
331.56	18.440
331.93	18.426
332.29	18.545
332.66	20.177
333.02	18.464
333.38	19.151
333.75	19.251
334.11	18.861
334.48	19.255
334.84	19.577
335.20	19.273
335.57	18.586
335.93	18.929
336.29	19.231
336.66	19.928
337.02	18.914
337.38	19.907
337.75	19.786
338.11	20.591
338.47	19.705
338.84	20.257
339.20	20.092
339.56	21.077
339.93	21.364
340.29	21.105
340.65	19.875
341.02	21.291
341.38	21.797
341.74	20.526
342.11	20.349
342.47	20.969
342.83	20.976
343.20	21.558
343.56	19.798
343.92	20.877
344.28	20.408
344.65	20.550
345.01	20.960
345.37	21.012
345.73	21.489
346.10	21.483
346.46	22.034
346.82	22.323
347.19	20.551
347.55	21.593
347.91	22.492
348.27	22.350
348.63	21.823
349.00	22.330
349.36	21.593
349.72	21.171
350.08	22.123
350.45	22.945
350.81	21.202
351.17	22.690
351.53	22.113
351.89	22.607
352.26	23.757
352.62	22.855
352.98	22.204
353.34	22.514
353.70	21.686
354.07	22.903
354.43	22.222
354.79	22.767
355.15	23.623
355.51	24.141
355.87	23.755
356.24	23.127
356.60	23.496
356.96	23.733
357.32	24.121
357.68	24.252
358.04	25.257
358.40	24.624
358.77	24.022
359.13	23.836
359.49	23.843
359.85	23.016
360.21	23.764
360.57	25.370
360.93	24.231
361.29	24.490
361.66	25.000
362.02	25.522
362.38	25.856
362.74	25.595
363.10	25.167
363.46	24.652
363.82	26.077
364.18	25.624
364.54	26.523
364.90	26.346
365.26	26.103
365.62	26.735
365.98	24.982
366.35	25.573
366.71	25.741
367.07	26.584
367.43	26.415
367.79	25.981
368.15	27.299
368.51	26.526
368.87	28.266
369.23	27.798
369.59	28.892
369.95	27.794
370.31	26.781
370.67	27.464
371.03	28.464
371.39	27.843
371.75	28.382
372.11	27.525
372.47	29.252
372.83	29.395
373.19	27.818
373.55	29.194
373.91	30.339
374.27	28.935
374.63	27.927
374.99	30.508
375.35	28.472
375.71	29.198
376.07	29.835
376.42	29.436
376.78	29.357
377.14	29.851
377.50	29.735
377.86	29.388
378.22	29.962
378.58	29.261
378.94	29.793
379.30	30.153
379.66	30.393
380.02	30.958
380.38	30.298
380.74	31.573
381.09	31.601
381.45	31.039
381.81	31.880
382.17	31.592
382.53	31.509
382.89	31.235
383.25	31.144
383.61	32.404
383.97	31.895
384.32	32.002
384.68	31.103
385.04	32.084
385.40	31.579
385.76	31.572
386.12	32.319
386.48	32.977
386.83	33.419
387.19	33.704
387.55	32.591
387.91	33.132
388.27	33.354
388.62	32.637
388.98	32.740
389.34	34.168
389.70	33.844
390.06	34.791
390.42	33.787
390.77	32.443
391.13	33.376
391.49	34.327
391.85	33.927
392.20	33.060
392.56	34.028
392.92	34.255
393.28	33.254
393.64	33.753
393.99	34.514
394.35	34.305
394.71	34.191
395.07	33.084
395.42	34.302
395.78	33.524
396.14	34.327
396.50	35.025
396.85	35.601
397.21	34.710
397.57	34.346
397.92	34.555
398.28	33.913
398.64	34.110
399.00	34.751
399.35	33.897
399.71	34.838
400.07	34.950
400.42	35.153
400.78	34.922
401.14	35.305
401.49	35.821
401.85	35.330
402.21	34.431
402.57	34.362
402.92	35.372
403.28	34.791
403.63	35.767
403.99	33.312
404.35	34.545
404.70	35.012
405.06	34.479
405.42	35.184
405.77	33.714
406.13	34.142
406.49	33.708
406.84	34.259
407.20	34.515
407.55	34.461
407.91	35.467
408.27	35.609
408.62	35.280
408.98	34.314
409.34	34.686
409.69	34.581
410.05	35.192
410.40	34.557
410.76	35.364
411.11	35.404
411.47	33.994
411.83	34.026
412.18	34.941
412.54	35.305
412.89	34.819
413.25	34.298
413.60	35.763
413.96	34.244
414.31	33.961
414.67	34.664
415.03	35.099
415.38	34.536
415.74	35.563
416.09	35.402
416.45	33.735
416.80	34.765
417.16	35.456
417.51	35.036
417.87	33.783
418.22	34.132
418.58	34.797
418.93	34.828
419.29	35.328
419.64	34.824
420.00	34.268
420.35	34.435
420.71	33.592
421.06	34.189
421.42	33.918
421.77	33.969
422.12	34.138
422.48	33.135
422.83	34.653
423.19	33.867
423.54	34.127
423.90	34.957
424.25	34.059
424.61	34.345
424.96	34.111
425.31	33.555
425.67	32.809
426.02	32.514
426.38	34.066
426.73	33.353
427.09	32.827
427.44	33.525
427.79	33.985
428.15	34.226
428.50	32.709
428.85	33.135
429.21	33.020
429.56	32.763
429.92	32.914
430.27	33.019
430.62	32.412
430.98	33.057
431.33	32.062
431.68	33.194
432.04	31.736
432.39	32.895
432.74	33.094
433.10	32.541
433.45	33.178
433.80	32.483
434.16	32.746
434.51	31.737
434.86	32.269
435.22	32.073
435.57	31.733
435.92	32.300
436.28	33.630
436.63	32.837
436.98	31.712
437.34	32.677
437.69	32.555
438.04	32.097
438.39	31.463
438.75	31.842
439.10	31.732
439.45	32.468
439.81	31.601
440.16	31.846
440.51	32.103
440.86	31.789
441.22	30.756
441.57	31.369
441.92	30.706
442.27	31.378
442.63	30.700
442.98	31.324
443.33	30.543
443.68	30.563
444.03	31.284
444.39	30.282
444.74	31.331
445.09	30.782
445.44	30.891
445.79	29.837
446.15	31.445
446.50	30.910
446.85	30.113
447.20	30.444
447.55	30.374
447.91	31.109
448.26	30.940
448.61	30.582
448.96	30.842
449.31	29.471
449.66	30.051
450.02	29.526
450.37	30.102
450.72	29.329
451.07	29.190
451.42	29.240
451.77	28.773
452.12	29.273
452.47	30.348
452.83	29.662
453.18	29.401
453.53	29.561
453.88	28.116
454.23	29.109
454.58	29.497
454.93	28.798
455.28	28.429
455.63	29.187
455.98	29.524
456.34	27.952
456.69	29.054
457.04	28.421
457.39	28.521
457.74	27.452
458.09	28.062
458.44	27.651
458.79	27.386
459.14	27.878
459.49	28.021
459.84	26.759
460.19	27.342
460.54	27.083
460.89	27.427
461.24	27.383
461.59	27.949
461.94	27.004
462.29	27.478
462.64	27.888
462.99	27.066
463.34	27.867
463.69	26.517
464.04	27.014
464.39	26.493
464.74	26.441
465.09	25.633
465.44	25.042
465.79	25.224
466.14	25.780
466.49	25.139
466.84	25.452
467.19	26.132
467.54	25.875
467.89	25.030
468.24	25.247
468.59	26.129
468.94	24.924
469.29	24.357
469.64	26.037
469.99	25.169
470.34	25.627
470.68	25.287
471.03	25.238
471.38	25.156
471.73	25.383
472.08	24.934
472.43	23.995
472.78	24.621
473.13	25.096
473.48	25.031
473.83	24.390
474.17	23.211
474.52	24.566
474.87	24.168
475.22	23.273
475.57	22.354
475.92	23.101
476.27	23.055
476.61	22.449
476.96	22.595
477.31	22.658
477.66	22.976
478.01	22.164
478.36	23.533
478.70	22.690
479.05	22.417
479.40	21.904
479.75	21.759
480.10	22.068
480.45	20.990
480.79	21.644
481.14	22.065
481.49	21.690
481.84	21.536
482.19	21.127
482.53	21.514
482.88	20.893
483.23	21.215
483.58	20.655
483.92	20.759
484.27	19.477
484.62	20.302
484.97	19.827
485.31	20.308
485.66	19.395
486.01	18.515
486.36	17.741
486.70	17.423
487.05	17.885
487.40	18.156
487.75	18.647
488.09	18.987
488.44	18.612
488.79	19.530
489.13	18.869
489.48	18.719
489.83	18.904
490.17	19.290
490.52	19.265
490.87	19.132
491.22	19.372
491.56	18.314
491.91	18.753
492.26	18.282
492.60	18.986
492.95	17.961
493.30	18.505
493.64	18.292
493.99	17.827
494.34	18.548
494.68	18.636
495.03	18.656
495.37	18.008
495.72	18.372
496.07	17.773
496.41	17.257
496.76	17.458
497.11	17.740
497.45	17.420
497.80	17.706
498.14	16.957
498.49	17.756
498.84	17.306
499.18	17.429
499.53	17.996
499.87	16.682
500.22	17.664
500.56	18.398
500.91	16.875
501.26	16.833
501.60	17.561
501.95	16.544
502.29	16.917
502.64	16.480
502.98	16.223
503.33	16.682
503.67	16.288
504.02	15.949
504.36	15.957
504.71	16.610
505.06	16.145
505.40	16.432
505.75	16.056
506.09	15.841
506.44	15.984
506.78	16.561
507.13	15.800
507.47	15.909
507.82	16.413
508.16	16.312
508.51	15.830
508.85	16.485
509.19	15.000
509.54	15.306
509.88	15.920
510.23	15.938
510.57	15.738
510.92	15.640
511.26	15.879
511.61	15.923
511.95	15.292
512.30	16.013
512.64	16.335
512.98	16.077
513.33	16.595
513.67	14.995
514.02	15.043
514.36	15.838
514.70	15.661
515.05	15.784
515.39	14.863
515.74	15.597
516.08	15.763
516.42	15.261
516.77	16.276
517.11	14.983
517.46	15.519
517.80	15.273
518.14	14.765
518.49	16.278
518.83	15.966
519.17	14.838
519.52	14.827
519.86	15.801
520.20	15.665
520.55	15.380
520.89	15.207
521.23	14.717
521.58	14.646
521.92	14.819
522.26	13.606
522.61	15.639
522.95	14.794
523.29	15.216
523.64	15.061
523.98	15.527
524.32	15.380
524.66	14.853
525.01	14.951
525.35	14.622
525.69	14.778
526.04	14.704
526.38	14.887
526.72	14.417
527.06	15.254
527.41	13.800
527.75	15.177
528.09	14.644
528.43	14.404
528.78	14.997
529.12	14.242
529.46	14.329
529.80	15.594
530.15	15.452
530.49	13.600
530.83	15.063
531.17	14.556
531.51	15.564
531.86	14.839
532.20	15.254
532.54	15.759
532.88	14.955
533.22	14.553
533.57	14.753
533.91	14.449
534.25	13.305
534.59	14.521
534.93	14.039
535.27	14.544
535.62	13.431
535.96	14.124
536.30	13.477
536.64	14.166
536.98	15.196
537.32	13.562
537.66	14.600
538.01	14.352
538.35	14.027
538.69	14.997
539.03	13.255
539.37	13.738
539.71	13.545
540.05	13.399
540.39	13.953
540.73	13.195
541.07	13.692
541.42	13.503
541.76	14.323
542.10	13.907
542.44	13.709
542.78	14.493
543.12	13.244
543.46	13.967
543.80	13.988
544.14	12.644
544.48	13.905
544.82	13.085
545.16	13.988
545.50	13.625
545.84	13.978
546.18	13.199
546.52	13.902
546.86	13.265
547.20	14.228
547.54	13.627
547.88	13.520
548.22	13.076
548.56	13.899
548.90	13.572
549.24	12.593
549.58	13.574
549.92	13.599
550.26	13.494
550.60	13.970
550.94	13.592
551.28	12.729
551.62	13.659
551.96	12.632
552.30	13.720
552.64	13.725
552.98	13.763
553.32	14.228
553.66	13.906
554.00	13.246
554.34	13.458
554.68	13.591
555.02	12.482
555.36	13.152
555.69	12.517
556.03	13.526
556.37	13.097
556.71	12.756
557.05	12.535
557.39	13.506
557.73	12.421
558.07	12.908
558.41	11.867
558.75	13.299
559.08	13.274
559.42	13.076
559.76	13.824
560.10	12.991
560.44	12.299
560.78	12.109
561.12	12.533
561.45	12.647
561.79	12.525
562.13	12.207
562.47	13.046
562.81	12.134
563.15	13.110
563.48	12.732
563.82	12.003
564.16	11.772
564.50	11.589
564.84	11.947
565.17	11.969
565.51	12.652
565.85	13.135
566.19	11.459
566.52	12.286
566.86	11.513
567.20	12.205
567.54	11.815
567.88	11.515
568.21	11.534
568.55	11.628
568.89	11.333
569.23	11.007
569.56	10.567
569.90	10.528
570.24	10.370
570.57	10.235
570.91	10.084
571.25	10.068
571.59	9.956
571.92	9.591
572.26	9.994
572.60	9.790
572.93	9.655
573.27	9.731
573.61	9.743
573.95	9.302
574.28	9.698
574.62	9.354
574.96	9.654
575.29	9.190
575.63	9.477
575.97	9.503
576.30	9.825
576.64	9.629
576.98	9.091
577.31	9.173
577.65	9.251
577.98	9.047
578.32	9.035
578.66	9.287
578.99	9.085
579.33	9.441
579.67	8.879
580.00	8.871
580.34	9.540
580.67	9.501
581.01	9.287
581.35	9.286
581.68	8.908
582.02	8.798
582.35	8.951
582.69	8.963
583.02	9.186
583.36	9.200
583.70	9.216
584.03	9.326
584.37	9.460
584.70	9.352
585.04	9.418
585.37	9.203
585.71	9.563
586.04	9.060
586.38	9.143
586.72	9.528
587.05	9.400
587.39	8.971
587.72	9.199
588.06	8.911
588.39	9.410
588.73	9.446
589.06	9.505
589.40	9.428
589.73	9.996
590.07	9.964
590.40	9.280
590.73	9.719
591.07	10.216
591.40	9.869
591.74	10.433
592.07	10.122
592.41	10.211
592.74	9.738
593.08	9.660
593.41	9.396
593.75	9.369
594.08	9.789
594.41	9.226
594.75	9.649
595.08	9.986
595.42	9.807
595.75	9.544
596.09	10.064
596.42	9.862
596.75	9.835
597.09	10.519
597.42	9.823
597.75	9.746
598.09	10.391
598.42	9.407
598.76	9.404
599.09	9.578
599.42	9.461
599.76	9.114
600.09	9.290
600.42	9.021
600.76	9.714
601.09	9.253
601.42	9.475
601.76	9.791
602.09	9.407
602.42	9.713
602.76	10.278
603.09	9.795
603.42	9.449
603.76	9.489
604.09	9.422
604.42	9.336
604.76	10.291
605.09	10.004
605.42	9.748
605.75	9.396
606.09	9.435
606.42	9.358
606.75	9.788
607.09	9.711
607.42	10.056
607.75	9.241
608.08	9.900
608.42	9.637
608.75	9.874
609.08	9.667
609.41	9.662
609.75	9.671
610.08	10.462
610.41	9.730
610.74	9.650
611.07	10.227
611.41	10.157
611.74	10.407
612.07	10.093
612.40	10.336
612.73	10.053
613.07	11.153
613.40	10.216
613.73	9.072
614.06	9.892
614.39	10.802
614.72	10.368
615.06	10.084
615.39	10.191
615.72	9.765
616.05	10.633
616.38	10.450
616.71	10.570
617.05	10.895
617.38	11.124
617.71	10.871
618.04	10.697
618.37	10.704
618.70	10.641
619.03	11.316
619.36	10.591
619.69	11.268
620.03	10.440
620.36	10.963
620.69	12.055
621.02	11.209
621.35	11.746
621.68	11.994
622.01	11.300
622.34	11.422
622.67	11.331
623.00	10.932
623.33	11.079
623.66	11.151
623.99	11.782
624.32	10.842
624.65	11.158
624.99	10.340
625.32	11.151
625.65	11.495
625.98	11.376
626.31	11.664
626.64	11.918
626.97	11.139
627.30	11.222
627.63	11.403
627.96	12.532
628.29	12.073
628.62	12.626
628.95	13.208
629.28	13.504
629.61	12.832
629.94	12.381
630.26	11.725
630.59	11.916
630.92	11.207
631.25	11.747
631.58	13.213
631.91	12.677
632.24	12.869
632.57	13.012
632.90	13.158
633.23	12.752
633.56	13.559
633.89	14.609
634.22	12.599
634.55	14.556
634.88	13.054
635.20	13.978
635.53	14.337
635.86	13.738
636.19	13.529
636.52	13.956
636.85	13.058
637.18	13.018
637.51	13.239
637.83	12.330
638.16	14.194
638.49	14.987
638.82	15.297
639.15	14.500
639.48	13.591
639.81	14.343
640.13	14.974
640.46	15.034
640.79	14.795
641.12	15.268
641.45	12.709
641.77	15.169
642.10	14.620
642.43	15.616
642.76	16.563
643.09	14.724
643.41	14.112
643.74	16.049
644.07	15.854
644.40	16.564
644.73	16.220
645.05	15.214
645.38	13.428
645.71	15.459
646.04	15.947
646.36	17.028
646.69	16.722
647.02	16.497
647.35	16.838
647.67	15.398
648.00	17.073
648.33	15.512
648.66	14.242
648.98	16.342
649.31	13.901
649.64	14.948
649.96	15.350
650.29	15.640
650.62	15.210
650.94	17.990
651.27	16.723
651.60	17.637
651.92	17.252
652.25	14.821
652.58	14.642
652.90	15.166
653.23	15.254
653.56	14.488
653.88	16.640
654.21	15.798
654.54	16.007
654.86	14.486
655.19	12.973
655.52	8.308
655.84	5.996
656.17	7.634
656.49	10.335
656.82	10.499
657.15	8.124
657.47	6.051
657.80	4.869
658.13	4.990
658.45	7.827
658.78	7.863
659.10	8.853
659.43	9.360
659.75	9.379
660.08	10.443
660.41	13.315
660.73	14.740
661.06	15.127
661.38	18.000
661.71	19.423
662.03	18.540
662.36	16.501
662.68	17.871
663.01	17.778
663.33	15.287
663.66	17.227
663.98	17.279
664.31	19.748
664.63	17.409
664.96	14.889
665.28	16.803
665.61	15.400
665.93	15.493
666.26	17.241
666.58	16.527
666.91	19.239
667.23	17.978
667.56	18.790
667.88	20.513
668.21	17.271
668.53	17.137
668.86	17.749
669.18	22.175
669.50	18.913
669.83	17.647
670.15	17.778
670.48	17.865
670.80	16.379
671.13	18.684
671.45	17.872
671.77	16.497
672.10	17.190
672.42	15.901
672.75	17.081
673.07	16.901
673.39	13.924
673.72	16.016
674.04	16.078
674.37	17.864
674.69	18.814
675.01	16.527
675.34	19.918
675.66	18.947
675.98	19.145
676.31	19.748
676.63	17.834
676.95	17.820
677.28	17.757
677.60	18.022
677.92	18.776
678.25	16.838
678.57	17.331
678.89	16.232
679.22	16.699
679.54	17.366
679.86	18.349
680.18	14.848
680.51	16.667
680.83	17.438
681.15	17.547
681.48	19.282
681.80	17.602
682.12	15.326
682.44	15.087
682.77	17.719
683.09	18.026
683.41	18.182
683.73	17.660
684.06	20.455
684.38	16.634
684.70	16.667
685.02	16.698
685.34	16.300
685.67	15.035
685.99	15.808
686.31	14.676
686.63	14.134
686.96	15.536
687.28	15.884
687.60	15.399
687.92	17.002
688.24	16.540
688.56	16.064
688.89	20.124
689.21	19.214
689.53	17.328
689.85	20.621
690.17	18.012
690.49	19.321
690.82	17.757
691.14	18.080
691.46	16.456
691.78	17.470
692.10	19.215
692.42	18.762
692.74	15.145
693.06	19.362
693.39	19.097
693.71	18.122
694.03	17.474
694.35	19.048
694.67	18.993
694.99	18.780
695.31	20.343
695.63	19.378
695.95	17.359
696.27	15.482
696.59	17.617
696.91	19.689
697.23	17.371
697.56	21.322
697.88	14.519
698.20	17.917
698.52	16.989
698.84	19.822
699.16	17.281
699.48	18.765
699.80	20.773
700.12	22.078
700.44	19.363
700.76	22.099
701.08	22.989
701.40	20.112
701.72	20.991
702.04	23.011
702.36	17.280
702.68	21.530
703.00	19.114
703.32	21.011
703.64	21.448
703.96	17.827
704.28	23.547
704.60	23.167
704.91	23.739
705.23	20.821
705.55	24.917
705.87	28.571
706.19	25.088
706.51	24.611
706.83	23.939
707.15	24.090
707.47	16.919
707.79	20.393
708.11	19.406
708.43	20.238
708.74	15.561
709.06	22.338
709.38	19.948
709.70	22.965
710.02	20.475
710.34	20.303
710.66	22.388
710.98	22.443
711.29	22.674
711.61	24.484
711.93	18.269
712.25	24.759
712.57	25.735
712.89	24.221
713.20	23.100
713.52	22.039
713.84	22.785
714.16	22.866
714.48	21.264
714.80	22.492
715.11	22.767
715.43	21.365
715.75	20.290
716.07	23.642
716.39	23.197
716.70	22.924
717.02	26.978
717.34	22.615
717.66	29.851
717.97	29.880
718.29	25.556
718.61	23.358
718.93	25.368
719.24	25.952
719.56	23.729
719.88	25.763
720.20	26.014
720.51	25.087
720.83	26.022
721.15	25.746
721.46	24.468
721.78	25.448
722.10	25.283
722.42	26.316
722.73	25.843
723.05	29.098
723.37	26.316
723.68	28.185
724.00	26.829
724.32	29.032
724.63	28.455
724.95	28.870
725.27	28.745
725.58	25.781
725.90	25.547
726.22	24.906
726.53	23.611
726.85	22.867
727.16	22.420
727.48	25.887
727.80	23.106
728.11	27.899
728.43	24.615
728.74	24.014
729.06	23.358
729.38	27.941
729.69	27.046
730.01	22.867
730.32	22.569
730.64	24.080
730.96	20.462
731.27	25.497
731.59	23.242
731.90	22.157
732.22	23.913
732.53	17.957
732.85	22.115
733.16	24.116
733.48	24.917
733.80	23.701
734.11	23.248
734.43	23.373
734.74	19.429
735.06	18.911
735.37	22.832
735.69	22.293
736.00	27.451
736.32	26.480
736.63	19.489
736.95	24.920
737.26	18.707
737.58	21.935
737.89	22.742
738.21	24.573
738.52	26.429
738.83	22.264
739.15	23.846
739.46	27.372
739.78	26.736
740.09	22.462
740.41	24.194
740.72	22.648
741.04	25.556
741.35	21.250
741.66	32.000
741.98	30.189
742.29	32.536
742.61	32.328
742.92	28.959
743.23	28.632
743.55	33.600
743.86	25.877
744.18	34.956
744.49	30.622
744.80	32.864
745.12	35.455
745.43	32.159
745.74	36.036
746.06	33.945
746.37	31.390
746.68	25.339
747.00	31.481
747.31	27.143
747.62	26.991
747.94	27.753
748.25	24.681
748.56	33.040
748.88	25.743
749.19	32.500
749.50	29.767
749.82	25.610
750.13	26.531
750.44	23.723
750.75	25.965
751.07	26.688
751.38	22.300
751.69	27.437
752.01	26.316
752.32	27.076
752.63	24.823
752.94	27.459
753.26	31.600
753.57	23.577
753.88	26.953
754.19	22.857
754.51	28.819
754.82	23.466
755.13	26.038
755.44	23.684
755.75	22.993
756.07	26.950
756.38	24.453
756.69	21.141
757.00	22.455
757.31	20.178
757.63	21.637
757.94	20.643
758.25	18.873
758.56	19.012
758.87	20.161
759.18	22.121
759.50	19.749
759.81	23.988
760.12	19.375
760.43	25.215
760.74	19.022
761.05	24.576
761.36	20.053
761.67	23.580
761.99	21.429
762.30	25.694
762.61	30.153
762.92	31.250
763.23	31.513
763.54	26.800
763.85	22.266
764.16	31.154
764.47	23.954
764.78	23.322
765.10	18.671
765.41	24.484
765.72	23.054
766.03	22.884
766.34	25.000
766.65	26.809
766.96	30.769
767.27	35.025
767.58	35.417
767.89	40.526
768.20	36.782
768.51	31.472
768.82	34.404
769.13	28.862
769.44	30.769
769.75	30.901
770.06	25.229
770.37	30.317
770.68	29.167
770.99	30.222
771.30	28.279
771.61	38.565
771.92	29.508
772.23	33.613
772.54	33.846
772.85	37.173
773.16	40.426
773.47	35.870
773.78	36.548
774.09	36.905
774.39	39.766
774.70	33.951
775.01	52.899
775.32	47.712
775.63	41.447
775.94	38.129
776.25	49.606
776.56	50.746
776.87	56.557
777.18	52.344
777.48	47.328
777.79	47.727
778.10	48.148
778.41	50.893
778.72	45.985
779.03	44.295
779.34	44.295
779.65	34.459
779.95	41.104
780.26	47.712
780.57	42.759
780.88	57.813
781.19	51.128
781.50	48.649
781.80	42.767
782.11	32.203
782.42	41.772
782.73	38.650
783.04	44.595
783.34	46.479
783.65	51.370
783.96	50.000
784.27	41.259
784.57	41.727
784.88	39.815
785.19	52.381
785.50	55.660
785.81	59.701
786.11	52.459
786.42	51.163
786.73	56.637
787.04	54.717
787.34	44.643
787.65	70.000
787.96	55.856
788.26	52.066
788.57	56.780
788.88	61.983
789.19	54.861
789.49	51.515
789.80	52.672
790.11	63.810
790.41	68.317
790.72	73.494
791.03	63.043
791.33	74.419
791.64	57.732
791.95	64.356
792.25	70.000
792.56	74.026
792.87	91.026
793.17	102.532
793.48	68.966
793.79	67.816
794.09	69.318
794.40	59.664
794.70	53.676
795.01	47.407
795.32	43.885
795.62	55.906
795.93	55.172
796.23	65.487
796.54	55.294
796.85	74.324
797.15	97.183
797.46	93.939
797.76	74.699
798.07	78.481
798.37	78.462
798.68	92.424
798.99	73.239
799.29	81.818
799.60	72.727
799.90	75.342
800.21	101.493
800.51	91.379
800.82	101.754
801.12	81.967
801.43	92.424
801.73	78.378
802.04	93.651
802.34	91.358
802.65	78.125
802.95	103.390
803.26	103.125
803.56	74.286
803.87	96.923
804.17	75.000
804.48	118.519
804.78	84.483
805.09	101.471
805.39	109.615
805.70	100.000
806.00	108.197
806.30	89.394
806.61	79.268
806.91	68.354
807.22	82.895
807.52	73.134
807.83	81.690
808.13	98.437
808.43	93.333
808.74	67.105
809.04	81.159
809.35	88.060
809.65	89.474
809.95	100.000
810.26	106.780
810.56	115.873
810.86	129.545
811.17	140.476
811.47	101.667
811.77	118.519
812.08	121.818
812.38	110.000
812.69	166.667
812.99	150.000
813.29	106.122
813.59	116.667
813.90	130.612
814.20	98.182
814.50	100.000
814.81	102.941
815.11	116.327
815.41	103.279
815.72	121.429
816.02	107.273
816.32	133.333
816.62	130.000
816.93	124.390
817.23	147.619
817.53	136.364
817.84	193.939
818.14	132.609
818.44	126.667
818.74	170.588
819.04	112.500
819.35	151.429
819.65	197.059
819.95	185.714
820.25	255.000
820.56	166.667
820.86	143.182
821.16	137.209
821.46	133.333
821.76	136.000
822.07	160.000
822.37	142.500
822.67	157.576
822.97	115.686
823.27	196.429
823.57	140.541
823.88	140.000
824.18	200.000
824.48	142.857
824.78	228.000
825.08	183.333
825.38	143.243
825.69	124.390
825.99	241.667
826.29	189.655
826.59	152.632
826.89	147.368
827.19	164.706
827.49	180.645
827.79	159.091
828.09	129.545
828.39	140.426
828.70	124.490
829.00	192.593
829.30	138.710
829.60	122.500
829.90	306.667
830.20	203.571
830.50	200.000
830.80	217.391
831.10	176.667
831.40	180.000
831.70	243.478
832.00	257.692
832.30	218.519
832.60	312.500
832.90	216.667
833.20	492.857
833.50	206.452
833.80	203.448
834.10	206.250
834.40	257.692
834.70	283.333
835.00	328.571
835.30	168.571
835.60	392.308
835.90	196.552
836.20	307.143
836.50	237.931
836.80	240.000
837.10	169.444
837.40	328.571
837.70	376.471
838.00	211.111
838.30	219.048
838.60	276.190
838.90	207.692
839.19	305.000
839.49	450.000
839.79	355.000
840.09	290.000
840.39	304.762
840.69	291.304
840.99	311.111
841.29	460.000
841.59	375.000
841.88	362.500
842.18	168.966
842.48	228.571
842.78	183.333
843.08	273.913
843.38	184.375
843.68	883.333
843.97	207.692
844.27	182.759
844.57	290.476
844.87	406.250
845.17	188.889
845.47	1766.667
845.76	433.333
846.06	300.000
846.36	575.000
846.66	357.143
846.96	331.250
847.25	409.091
847.55	363.636
847.85	273.913
848.15	380.000
848.44	442.857
848.74	244.444
849.04	370.588
849.34	530.000
849.63	210.526
849.93	509.091
850.23	1000.000
850.53	421.429
850.82	2850.000
851.12	-4600.000
851.42	5400.000
851.71	265.000
852.01	-1366.667
852.31	258.333
852.61	1966.667
852.90	271.429
853.20	256.000
853.50	288.235
853.79	285.714
854.09	208.333
854.39	312.500
854.68	159.459
854.98	187.097
855.28	200.000
855.57	262.069
855.87	222.222
856.17	242.105
856.46	273.333
856.76	329.412
857.05	186.207
857.35	245.833
857.65	326.667
857.94	256.522
858.24	223.077
858.53	310.000
858.83	231.818
859.13	406.667
859.42	0.000
859.72	655.556
860.01	490.909
860.31	272.727
860.60	257.895
860.90	239.130
861.20	511.111
861.49	533.333
861.79	-5300.000
862.08	675.000
862.38	323.810
862.67	361.538
862.97	347.059
863.26	588.889
863.56	316.667
863.85	383.333
864.15	612.500
864.44	393.333
864.74	916.667
865.03	850.000
865.33	305.263
865.62	481.818
865.92	423.077
866.21	416.667
866.51	0.000
866.80	536.364
867.10	900.000
867.39	446.154
867.69	527.273
867.98	326.316
868.27	509.091
868.57	342.105
868.86	-4700.000
869.16	356.250
869.45	2400.000
869.75	-5500.000
870.04	458.333
870.33	800.000
870.63	1225.000
870.92	2150.000
871.22	685.714
871.51	388.235
871.80	247.619
872.10	450.000
>>>>>End Processed Spectral Data<<<<<
