SpectraSuite Data File
++++++++++++++++++++++++++++++++++++
Date: Wed May 13 19:43:19 PDT 2015
User: schluterlab
Dark Spectrum Present: Yes
Reference Spectrum Present: Yes
Number of Sampled Component Spectra: 1
Spectrometers: USB2E3373
Integration Time (usec): 3000 (USB2E3373)
Spectra Averaged: 3 (USB2E3373)
Boxcar Smoothing: 0 (USB2E3373)
Correct for Electrical Dark: No (USB2E3373)
Strobe/Lamp Enabled: No (USB2E3373)
Correct for Detector Non-linearity: No (USB2E3373)
Correct for Stray Light: No (USB2E3373)
Number of Pixels in Processed Spectrum: 2048
>>>>>Begin Processed Spectral Data<<<<<
178.53	0.000
178.91	-1125.000
179.29	-1350.000
179.67	-222.222
180.04	-1375.000
180.42	2550.000
180.80	1020.000
181.18	-925.000
181.56	657.143
181.94	0.000
182.31	-585.714
182.69	1900.000
183.07	-537.500
183.45	-633.333
183.83	500.000
184.20	-430.000
184.58	2400.000
184.96	5200.000
185.34	-900.000
185.72	-650.000
186.09	-2350.000
186.47	3000.000
186.85	2650.000
187.23	4300.000
187.61	-1366.667
187.98	1425.000
188.36	545.455
188.74	418.182
189.12	-860.000
189.49	520.000
189.87	-4000.000
190.25	-1150.000
190.63	514.286
191.00	469.231
191.38	833.333
191.76	-1050.000
192.14	1400.000
192.51	675.000
192.89	983.333
193.27	562.500
193.65	-1525.000
194.02	510.000
194.40	940.000
194.78	510.000
195.15	458.333
195.53	720.000
195.91	-2600.000
196.29	387.500
196.66	331.579
197.04	-420.000
197.42	0.000
197.79	530.000
198.17	-5100.000
198.55	671.429
198.92	600.000
199.30	1120.000
199.68	0.000
200.05	361.111
200.43	714.286
200.81	3700.000
201.18	1366.667
201.56	-1633.333
201.94	500.000
202.31	622.222
202.69	458.333
203.07	590.000
203.44	0.000
203.82	1150.000
204.19	885.714
204.57	500.000
204.95	687.500
205.32	1633.333
205.70	545.455
206.08	350.000
206.45	2500.000
206.83	362.500
207.20	916.667
207.58	840.000
207.96	311.111
208.33	800.000
208.71	-883.333
209.08	871.429
209.46	566.667
209.84	536.364
210.21	-1400.000
210.59	1500.000
210.96	-500.000
211.34	2450.000
211.71	600.000
212.09	783.333
212.46	0.000
212.84	1533.333
213.22	1075.000
213.59	-3600.000
213.97	916.667
214.34	771.429
214.72	636.364
215.09	980.000
215.47	-2350.000
215.84	-2550.000
216.22	1600.000
216.59	414.286
216.97	1225.000
217.34	445.455
217.72	-700.000
218.09	0.000
218.47	-4900.000
218.84	588.889
219.22	742.857
219.59	1533.333
219.97	-628.571
220.34	960.000
220.72	-1800.000
221.09	357.143
221.47	1500.000
221.84	-1050.000
222.22	0.000
222.59	1175.000
222.97	-2700.000
223.34	1140.000
223.72	446.154
224.09	1280.000
224.46	2400.000
224.84	-5000.000
225.21	-960.000
225.59	-5900.000
225.96	670.000
226.34	330.000
226.71	2300.000
227.08	600.000
227.46	520.000
227.83	-1150.000
228.21	-2650.000
228.58	677.778
228.95	-2700.000
229.33	-2100.000
229.70	1400.000
230.08	828.571
230.45	-980.000
230.82	433.333
231.20	783.333
231.57	657.143
231.95	491.667
232.32	295.455
232.69	509.091
233.07	728.571
233.44	376.923
233.81	-1700.000
234.19	263.158
234.56	500.000
234.93	433.333
235.31	500.000
235.68	376.923
236.05	342.857
236.43	187.879
236.80	268.421
237.17	4900.000
237.55	200.000
237.92	207.143
238.29	295.238
238.67	170.968
239.04	258.621
239.41	155.556
239.79	121.739
240.16	161.905
240.53	122.727
240.91	101.961
241.28	124.000
241.65	128.000
242.02	92.754
242.40	101.613
242.77	91.667
243.14	81.720
243.51	97.753
243.89	91.765
244.26	78.889
244.63	69.892
245.00	85.106
245.38	68.317
245.75	66.355
246.12	68.807
246.49	66.423
246.87	66.400
247.24	70.000
247.61	62.143
247.98	60.784
248.36	58.108
248.73	55.414
249.10	63.057
249.47	54.802
249.84	50.267
250.22	52.941
250.59	55.030
250.96	54.040
251.33	55.924
251.70	53.465
252.08	50.000
252.45	48.879
252.82	48.261
253.19	54.043
253.56	42.353
253.94	50.207
254.31	45.703
254.68	44.231
255.05	42.435
255.42	46.748
255.79	44.118
256.16	43.682
256.54	42.049
256.91	42.705
257.28	40.647
257.65	40.924
258.02	43.168
258.39	42.271
258.76	45.485
259.14	39.881
259.51	41.337
259.88	39.130
260.25	42.900
260.62	39.884
260.99	40.683
261.36	39.339
261.73	38.109
262.10	38.372
262.47	39.437
262.85	40.111
263.22	37.322
263.59	41.311
263.96	36.264
264.33	35.509
264.70	39.737
265.07	38.107
265.44	37.879
265.81	34.307
266.18	38.442
266.55	37.805
266.92	38.821
267.29	36.111
267.66	36.239
268.03	38.636
268.40	35.981
268.77	34.606
269.14	36.036
269.51	37.246
269.88	36.830
270.25	36.795
270.62	35.281
270.99	39.355
271.36	35.622
271.73	34.813
272.10	33.696
272.47	37.204
272.84	35.931
273.21	36.059
273.58	35.808
273.95	32.285
274.32	32.645
274.69	36.617
275.06	32.283
275.43	37.234
275.80	30.461
276.17	34.420
276.54	34.719
276.91	34.387
277.28	34.180
277.65	32.882
278.02	31.263
278.39	35.352
278.76	31.091
279.13	32.453
279.50	34.823
279.87	32.271
280.23	32.934
280.60	33.849
280.97	32.902
281.34	30.796
281.71	32.182
282.08	34.933
282.45	32.182
282.82	32.682
283.19	31.551
283.56	30.702
283.92	33.164
284.29	30.159
284.66	31.397
285.03	32.007
285.40	31.338
285.77	29.630
286.14	30.052
286.51	30.167
286.87	30.940
287.24	30.782
287.61	30.016
287.98	31.169
288.35	28.526
288.72	28.505
289.08	29.108
289.45	29.654
289.82	31.057
290.19	28.100
290.56	29.250
290.93	27.644
291.29	27.914
291.66	28.171
292.03	28.779
292.40	29.956
292.77	28.698
293.13	29.254
293.50	27.405
293.87	28.000
294.24	26.815
294.60	26.929
294.97	24.855
295.34	27.927
295.71	26.562
296.08	25.214
296.44	26.272
296.81	25.231
297.18	25.745
297.55	24.142
297.91	24.011
298.28	26.640
298.65	27.285
299.02	26.746
299.38	23.904
299.75	24.394
300.12	22.350
300.48	23.375
300.85	24.291
301.22	24.076
301.59	23.485
301.95	24.559
302.32	24.262
302.69	23.297
303.05	23.515
303.42	24.568
303.79	23.556
304.15	23.310
304.52	22.480
304.89	23.693
305.25	23.318
305.62	24.462
305.99	23.967
306.35	23.937
306.72	22.646
307.09	23.751
307.45	23.198
307.82	22.098
308.19	24.062
308.55	23.948
308.92	22.127
309.29	22.492
309.65	23.754
310.02	22.939
310.38	23.118
310.75	23.126
311.12	23.644
311.48	23.615
311.85	23.899
312.22	24.246
312.58	24.948
312.95	25.871
313.31	23.689
313.68	24.116
314.05	25.345
314.41	23.819
314.78	26.183
315.14	25.223
315.51	25.232
315.87	26.832
316.24	25.720
316.61	24.366
316.97	26.223
317.34	25.832
317.70	27.629
318.07	28.104
318.43	27.299
318.80	28.772
319.16	28.060
319.53	28.236
319.89	29.810
320.26	29.700
320.62	28.770
320.99	30.909
321.35	30.909
321.72	31.930
322.08	32.280
322.45	32.239
322.81	32.171
323.18	33.237
323.54	33.766
323.91	33.019
324.27	33.174
324.64	33.458
325.00	33.904
325.37	35.123
325.73	36.176
326.10	35.569
326.46	37.186
326.83	37.964
327.19	36.977
327.56	37.195
327.92	38.408
328.29	38.776
328.65	39.871
329.01	37.996
329.38	39.870
329.74	40.074
330.11	39.491
330.47	40.220
330.84	41.085
331.20	40.346
331.56	40.183
331.93	41.296
332.29	40.195
332.66	41.150
333.02	40.859
333.38	40.108
333.75	41.800
334.11	40.391
334.48	41.083
334.84	40.625
335.20	41.000
335.57	40.707
335.93	41.071
336.29	40.659
336.66	41.208
337.02	40.271
337.38	41.296
337.75	40.731
338.11	39.391
338.47	40.884
338.84	40.880
339.20	40.367
339.56	41.423
339.93	39.545
340.29	42.029
340.65	40.107
341.02	40.925
341.38	42.438
341.74	40.439
342.11	40.262
342.47	40.881
342.83	41.182
343.20	41.818
343.56	39.174
343.92	40.965
344.28	40.306
344.65	42.304
345.01	40.404
345.37	39.880
345.73	40.186
346.10	40.665
346.46	40.254
346.82	39.456
347.19	39.014
347.55	38.752
347.91	39.725
348.27	41.002
348.63	39.799
349.00	40.049
349.36	40.722
349.72	40.978
350.08	40.276
350.45	40.521
350.81	40.536
351.17	41.329
351.53	39.640
351.89	39.026
352.26	39.700
352.62	40.577
352.98	40.194
353.34	40.838
353.70	40.180
354.07	39.597
354.43	39.444
354.79	40.708
355.15	41.022
355.51	40.368
355.87	40.490
356.24	40.472
356.60	39.936
356.96	40.225
357.32	41.047
357.68	39.528
358.04	41.330
358.40	39.826
358.77	41.393
359.13	40.805
359.49	40.392
359.85	39.524
360.21	41.148
360.57	40.467
360.93	41.231
361.29	41.421
361.66	40.712
362.02	41.716
362.38	41.369
362.74	40.699
363.10	41.081
363.46	41.526
363.82	41.270
364.18	41.263
364.54	43.016
364.90	41.643
365.26	40.882
365.62	43.901
365.98	41.125
366.35	40.903
366.71	42.010
367.07	42.316
367.43	42.888
367.79	42.541
368.15	43.966
368.51	43.605
368.87	43.398
369.23	43.087
369.59	43.519
369.95	42.721
370.31	43.020
370.67	42.174
371.03	44.644
371.39	44.096
371.75	43.456
372.11	43.670
372.47	43.915
372.83	44.308
373.19	42.847
373.55	45.011
373.91	45.066
374.27	44.055
374.63	44.364
374.99	45.904
375.35	43.545
375.71	42.975
376.07	44.513
376.42	45.117
376.78	45.063
377.14	45.387
377.50	45.695
377.86	44.215
378.22	46.523
378.58	45.238
378.94	45.380
379.30	46.120
379.66	45.876
380.02	47.420
380.38	45.294
380.74	46.158
381.09	47.372
381.45	47.757
381.81	46.990
382.17	47.516
382.53	47.358
382.89	47.593
383.25	47.717
383.61	49.009
383.97	48.155
384.32	47.598
384.68	47.831
385.04	48.310
385.40	48.235
385.76	48.894
386.12	48.575
386.48	49.780
386.83	51.058
387.19	51.082
387.55	50.711
387.91	49.758
388.27	50.337
388.62	50.338
388.98	50.737
389.34	52.065
389.70	51.073
390.06	51.458
390.42	51.362
390.77	51.718
391.13	51.946
391.49	52.475
391.85	51.369
392.20	51.483
392.56	53.725
392.92	52.678
393.28	51.775
393.64	52.518
393.99	52.169
394.35	52.543
394.71	52.321
395.07	53.022
395.42	53.461
395.78	54.071
396.14	53.321
396.50	54.010
396.85	54.355
397.21	53.083
397.57	54.495
397.92	54.447
398.28	54.821
398.64	54.898
399.00	54.337
399.35	54.146
399.71	54.803
400.07	56.298
400.42	55.276
400.78	56.031
401.14	56.402
401.49	57.075
401.85	56.745
402.21	56.048
402.57	57.002
402.92	57.755
403.28	57.277
403.63	57.364
403.99	59.108
404.35	58.121
404.70	56.235
405.06	56.960
405.42	58.453
405.77	57.657
406.13	57.506
406.49	58.782
406.84	58.535
407.20	59.279
407.55	60.179
407.91	60.333
408.27	61.008
408.62	58.880
408.98	59.681
409.34	59.963
409.69	61.161
410.05	61.152
410.40	61.284
410.76	62.007
411.11	60.615
411.47	61.150
411.83	61.576
412.18	61.101
412.54	61.644
412.89	60.602
413.25	60.626
413.60	63.064
413.96	60.291
414.31	61.118
414.67	62.484
415.03	63.046
415.38	63.209
415.74	63.023
416.09	64.533
416.45	63.922
416.80	64.243
417.16	64.343
417.51	64.366
417.87	64.355
418.22	64.416
418.58	64.622
418.93	64.373
419.29	64.418
419.64	66.058
420.00	64.695
420.35	66.029
420.71	64.614
421.06	65.155
421.42	65.263
421.77	64.910
422.12	65.020
422.48	65.084
422.83	67.094
423.19	65.083
423.54	66.802
423.90	66.377
424.25	65.941
424.61	65.952
424.96	66.531
425.31	66.777
425.67	65.056
426.02	66.343
426.38	68.254
426.73	66.881
427.09	66.748
427.44	66.245
427.79	67.108
428.15	67.798
428.50	66.764
428.85	68.474
429.21	67.642
429.56	67.444
429.92	66.633
430.27	66.981
430.62	67.588
430.98	66.788
431.33	66.340
431.68	67.330
432.04	66.400
432.39	68.418
432.74	69.060
433.10	68.647
433.45	68.805
433.80	68.182
434.16	69.071
434.51	68.105
434.86	68.244
435.22	69.150
435.57	69.301
435.92	68.929
436.28	70.878
436.63	69.095
436.98	69.548
437.34	69.350
437.69	69.953
438.04	69.309
438.39	69.731
438.75	69.553
439.10	69.609
439.45	68.713
439.81	69.305
440.16	69.565
440.51	69.947
440.86	69.658
441.22	70.412
441.57	69.692
441.92	68.782
442.27	70.183
442.63	70.195
442.98	70.817
443.33	69.457
443.68	69.592
444.03	70.278
444.39	68.841
444.74	69.048
445.09	69.326
445.44	68.562
445.79	68.976
446.15	68.131
446.50	68.659
446.85	69.630
447.20	69.403
447.55	70.296
447.91	69.333
448.26	69.839
448.61	69.531
448.96	69.048
449.31	70.472
449.66	69.443
450.02	69.081
450.37	69.274
450.72	69.769
451.07	69.653
451.42	68.875
451.77	69.759
452.12	69.053
452.47	69.216
452.83	69.814
453.18	68.399
453.53	70.996
453.88	69.876
454.23	69.456
454.58	70.866
454.93	70.884
455.28	69.950
455.63	69.903
455.98	71.250
456.34	70.163
456.69	70.695
457.04	69.721
457.39	70.134
457.74	68.950
458.09	69.638
458.44	68.358
458.79	67.625
459.14	69.695
459.49	69.060
459.84	67.424
460.19	68.297
460.54	66.204
460.89	68.075
461.24	70.674
461.59	68.042
461.94	67.078
462.29	70.030
462.64	70.389
462.99	69.031
463.34	69.000
463.69	69.418
464.04	68.928
464.39	67.536
464.74	67.677
465.09	67.551
465.44	68.476
465.79	66.611
466.14	67.816
466.49	66.741
466.84	68.710
467.19	67.049
467.54	68.250
467.89	67.047
468.24	66.085
468.59	68.254
468.94	66.891
469.29	68.573
469.64	69.277
469.99	70.162
470.34	69.881
470.68	69.756
471.03	69.116
471.38	70.535
471.73	69.154
472.08	70.197
472.43	68.781
472.78	68.729
473.13	67.972
473.48	69.101
473.83	69.756
474.17	67.953
474.52	69.169
474.87	69.644
475.22	66.512
475.57	67.114
475.92	68.986
476.27	67.587
476.61	69.002
476.96	68.829
477.31	67.138
477.66	67.888
478.01	66.231
478.36	69.011
478.70	67.809
479.05	67.891
479.40	68.782
479.75	67.412
480.10	67.197
480.45	66.778
480.79	67.941
481.14	67.515
481.49	67.774
481.84	66.850
482.19	68.741
482.53	68.119
482.88	67.892
483.23	67.523
483.58	66.470
483.92	68.041
484.27	64.967
484.62	67.328
484.97	67.127
485.31	66.301
485.66	65.143
486.01	62.786
486.36	61.344
486.70	61.292
487.05	62.427
487.40	63.943
487.75	64.348
488.09	64.756
488.44	65.610
488.79	67.848
489.13	67.380
489.48	66.843
489.83	66.767
490.17	68.479
490.52	68.113
490.87	67.797
491.22	68.622
491.56	67.472
491.91	68.125
492.26	67.616
492.60	67.281
492.95	67.119
493.30	67.430
493.64	69.109
493.99	67.317
494.34	67.854
494.68	67.674
495.03	68.327
495.37	67.334
495.72	69.591
496.07	68.770
496.41	66.593
496.76	66.799
497.11	67.807
497.45	68.840
497.80	67.946
498.14	67.681
498.49	68.878
498.84	67.258
499.18	68.381
499.53	68.091
499.87	68.360
500.22	67.452
500.56	69.951
500.91	68.558
501.26	68.184
501.60	69.530
501.95	67.599
502.29	68.885
502.64	68.250
502.98	67.602
503.33	67.824
503.67	68.306
504.02	68.382
504.36	67.337
504.71	69.712
505.06	68.627
505.40	68.206
505.75	67.261
506.09	67.881
506.44	68.772
506.78	68.242
507.13	69.006
507.47	67.828
507.82	68.541
508.16	69.149
508.51	69.863
508.85	68.818
509.19	70.357
509.54	67.908
509.88	69.243
510.23	69.460
510.57	70.382
510.92	70.223
511.26	69.836
511.61	70.176
511.95	68.319
512.30	69.989
512.64	70.661
512.98	69.132
513.33	70.182
513.67	68.997
514.02	69.426
514.36	70.672
514.70	70.504
515.05	70.162
515.39	70.780
515.74	70.946
516.08	70.430
516.42	70.644
516.77	70.792
517.11	70.533
517.46	69.865
517.80	72.125
518.14	71.280
518.49	73.454
518.83	71.534
519.17	70.612
519.52	70.968
519.86	71.249
520.20	72.659
520.55	73.070
520.89	73.662
521.23	72.979
521.58	71.969
521.92	72.198
522.26	71.568
522.61	72.399
522.95	72.130
523.29	71.516
523.64	73.293
523.98	72.766
524.32	71.834
524.66	72.099
525.01	71.569
525.35	72.739
525.69	70.690
526.04	71.963
526.38	73.154
526.72	70.061
527.06	74.074
527.41	70.792
527.75	73.698
528.09	74.181
528.43	72.530
528.78	72.833
529.12	72.061
529.46	72.811
529.80	72.463
530.15	72.648
530.49	71.138
530.83	73.608
531.17	76.175
531.51	75.940
531.86	73.161
532.20	73.533
532.54	72.518
532.88	73.877
533.22	71.955
533.57	71.543
533.91	70.620
534.25	71.871
534.59	72.727
534.93	71.029
535.27	71.334
535.62	72.527
535.96	73.258
536.30	71.583
536.64	72.505
536.98	73.524
537.32	72.416
537.66	73.600
538.01	73.009
538.35	72.980
538.69	73.070
539.03	71.345
539.37	72.652
539.71	71.873
540.05	72.288
540.39	72.691
540.73	72.316
541.07	73.524
541.42	73.255
541.76	72.000
542.10	71.281
542.44	72.649
542.78	72.991
543.12	69.738
543.46	71.934
543.80	72.609
544.14	71.309
544.48	72.127
544.82	72.033
545.16	70.852
545.50	71.594
545.84	71.438
546.18	73.064
546.52	72.333
546.86	72.715
547.20	71.746
547.54	69.739
547.88	71.492
548.22	69.427
548.56	70.440
548.90	70.807
549.24	71.650
549.58	71.487
549.92	72.047
550.26	72.159
550.60	71.093
550.94	71.197
551.28	71.470
551.62	72.322
551.96	72.772
552.30	71.741
552.64	72.279
552.98	71.525
553.32	70.600
553.66	71.370
554.00	71.380
554.34	71.291
554.68	71.745
555.02	72.003
555.36	72.443
555.69	69.553
556.03	70.592
556.37	71.214
556.71	69.986
557.05	71.919
557.39	71.099
557.73	72.265
558.07	73.024
558.41	71.852
558.75	72.153
559.08	71.887
559.42	73.696
559.76	71.324
560.10	71.021
560.44	68.903
560.78	69.794
561.12	70.251
561.45	69.035
561.79	68.556
562.13	69.953
562.47	68.784
562.81	70.711
563.15	69.498
563.48	69.164
563.82	70.581
564.16	68.672
564.50	68.229
564.84	68.963
565.17	69.627
565.51	68.882
565.85	68.401
566.19	68.190
566.52	69.538
566.86	67.330
567.20	68.396
567.54	67.580
567.88	67.409
568.21	67.566
568.55	65.319
568.89	66.732
569.23	65.062
569.56	63.927
569.90	63.132
570.24	63.509
570.57	62.904
570.91	60.827
571.25	61.334
571.59	61.532
571.92	60.772
572.26	61.554
572.60	60.811
572.93	60.840
573.27	60.988
573.61	61.083
573.95	60.646
574.28	59.824
574.62	59.767
574.96	59.331
575.29	59.166
575.63	59.527
575.97	59.568
576.30	59.772
576.64	59.666
576.98	59.042
577.31	58.965
577.65	59.978
577.98	58.866
578.32	58.042
578.66	58.218
578.99	59.324
579.33	59.283
579.67	58.185
580.00	58.691
580.34	59.018
580.67	58.402
581.01	59.208
581.35	59.133
581.68	58.415
582.02	57.793
582.35	57.848
582.69	58.025
583.02	58.506
583.36	59.004
583.70	59.316
584.03	59.613
584.37	60.132
584.70	60.266
585.04	58.439
585.37	58.364
585.71	58.647
586.04	58.734
586.38	59.535
586.72	59.569
587.05	59.413
587.39	58.470
587.72	59.263
588.06	59.152
588.39	58.875
588.73	59.812
589.06	60.237
589.40	59.630
589.73	60.507
590.07	59.075
590.40	59.956
590.73	61.475
591.07	61.376
591.40	60.776
591.74	62.597
592.07	60.777
592.41	60.066
592.74	59.513
593.08	58.961
593.41	58.557
593.75	57.714
594.08	59.403
594.41	59.915
594.75	59.445
595.08	59.377
595.42	59.650
595.75	59.687
596.09	60.308
596.42	61.139
596.75	60.321
597.09	61.472
597.42	59.401
597.75	58.818
598.09	60.043
598.42	59.450
598.76	58.127
599.09	58.533
599.42	56.623
599.76	59.261
600.09	57.705
600.42	56.830
600.76	57.321
601.09	57.632
601.42	58.524
601.76	58.292
602.09	59.486
602.42	58.997
602.76	59.331
603.09	57.868
603.42	59.508
603.76	58.841
604.09	58.240
604.42	59.356
604.76	60.059
605.09	59.021
605.42	58.316
605.75	58.609
606.09	59.496
606.42	58.562
606.75	57.528
607.09	57.514
607.42	58.579
607.75	57.131
608.08	57.838
608.42	59.211
608.75	58.431
609.08	58.279
609.41	57.496
609.75	58.409
610.08	58.671
610.41	57.728
610.74	59.461
611.07	59.980
611.41	59.028
611.74	58.773
612.07	59.627
612.40	60.283
612.73	58.368
613.07	59.375
613.40	58.926
613.73	57.682
614.06	58.333
614.39	58.679
614.72	58.316
615.06	57.458
615.39	58.439
615.72	57.464
616.05	57.469
616.38	59.422
616.71	58.729
617.05	60.071
617.38	59.411
617.71	59.580
618.04	60.998
618.37	58.131
618.70	60.485
619.03	60.263
619.36	60.081
619.69	61.268
620.03	60.577
620.36	60.294
620.69	61.096
621.02	60.546
621.35	62.569
621.68	60.358
622.01	60.991
622.34	60.287
622.67	60.380
623.00	60.382
623.33	59.543
623.66	60.257
623.99	59.573
624.32	59.272
624.65	58.969
624.99	59.773
625.32	59.450
625.65	62.585
625.98	61.337
626.31	59.953
626.64	61.714
626.97	61.264
627.30	62.344
627.63	61.608
627.96	62.489
628.29	62.117
628.62	63.769
628.95	63.679
629.28	61.953
629.61	61.595
629.94	64.952
630.26	61.582
630.59	61.868
630.92	61.877
631.25	61.599
631.58	61.762
631.91	62.880
632.24	63.713
632.57	61.280
632.90	64.693
633.23	64.206
633.56	64.859
633.89	62.854
634.22	63.791
634.55	64.734
634.88	63.234
635.20	65.591
635.53	64.337
635.86	64.480
636.19	62.000
636.52	62.860
636.85	60.939
637.18	62.558
637.51	61.820
637.83	62.269
638.16	64.834
638.49	64.358
638.82	64.728
639.15	66.125
639.48	64.713
639.81	65.416
640.13	63.281
640.46	63.087
640.79	62.483
641.12	61.898
641.45	64.246
641.77	66.863
642.10	66.082
642.43	65.315
642.76	66.873
643.09	64.417
643.41	66.313
643.74	67.284
644.07	65.549
644.40	66.104
644.73	66.142
645.05	67.670
645.38	66.825
645.71	66.345
646.04	69.435
646.36	70.618
646.69	67.726
647.02	67.177
647.35	66.495
647.67	68.850
648.00	65.691
648.33	64.026
648.66	63.939
648.98	64.618
649.31	64.425
649.64	63.229
649.96	64.829
650.29	65.245
650.62	63.754
650.94	64.182
651.27	67.230
651.60	67.055
651.92	63.738
652.25	62.541
652.58	64.486
652.90	63.665
653.23	61.017
653.56	61.417
653.88	62.758
654.21	63.349
654.54	64.026
654.86	64.174
655.19	58.378
655.52	44.830
655.84	40.580
656.17	52.696
656.49	70.403
656.82	72.102
657.15	54.384
657.47	40.470
657.80	30.766
658.13	32.259
658.45	48.005
658.78	47.946
659.10	49.921
659.43	52.008
659.75	54.221
660.08	59.177
660.41	63.128
660.73	65.947
661.06	64.490
661.38	68.182
661.71	68.077
662.03	66.469
662.36	62.227
662.68	65.863
663.01	66.667
663.33	65.393
663.66	64.286
663.98	66.091
664.31	66.597
664.63	61.943
664.96	61.368
665.28	64.549
665.61	62.183
665.93	63.581
666.26	65.112
666.58	63.389
666.91	67.019
667.23	66.742
667.56	65.227
667.88	68.376
668.21	63.326
668.53	65.510
668.86	64.935
669.18	64.819
669.50	62.391
669.83	66.449
670.15	66.889
670.48	65.359
670.80	64.871
671.13	63.694
671.45	65.106
671.77	63.951
672.10	59.889
672.42	60.424
672.75	57.711
673.07	61.268
673.39	60.759
673.72	65.234
674.04	62.941
674.37	62.718
674.69	61.963
675.01	58.787
675.34	65.914
675.66	63.789
675.98	61.914
676.31	63.866
676.63	62.420
676.95	62.264
677.28	67.056
677.60	61.758
677.92	65.401
678.25	61.602
678.57	60.558
678.89	62.325
679.22	60.511
679.54	59.351
679.86	59.450
680.18	57.603
680.51	59.929
680.83	55.516
681.15	61.698
681.48	62.004
681.80	61.509
682.12	58.046
682.44	57.253
682.77	62.729
683.09	62.661
683.41	59.645
683.73	61.148
684.06	61.157
684.38	59.491
684.70	60.465
685.02	58.349
685.34	57.875
685.67	54.196
685.99	57.560
686.31	56.655
686.63	58.481
686.96	55.000
687.28	54.693
687.60	56.159
687.92	54.845
688.24	55.894
688.56	59.438
688.89	56.432
689.21	62.882
689.53	58.873
689.85	60.976
690.17	58.178
690.49	57.962
690.82	60.047
691.14	61.384
691.46	56.329
691.78	55.622
692.10	60.124
692.42	57.285
692.74	58.506
693.06	55.957
693.39	56.263
693.71	57.860
694.03	58.947
694.35	56.277
694.67	57.437
694.99	57.561
695.31	58.824
695.63	60.048
695.95	61.125
696.27	58.883
696.59	58.031
696.91	60.363
697.23	57.277
697.56	56.930
697.88	53.579
698.20	55.833
698.52	56.774
698.84	56.570
699.16	59.908
699.48	57.245
699.80	57.488
700.12	63.896
700.44	59.151
700.76	60.221
701.08	62.069
701.40	62.291
701.72	62.391
702.04	64.489
702.36	58.924
702.68	57.507
703.00	61.496
703.32	59.840
703.64	62.466
703.96	57.660
704.28	60.174
704.60	62.757
704.91	63.205
705.23	58.944
705.55	62.791
705.87	67.110
706.19	67.138
706.51	61.371
706.83	63.939
707.15	62.185
707.47	57.828
707.79	60.688
708.11	57.763
708.43	52.857
708.74	54.592
709.06	59.221
709.38	59.580
709.70	59.593
710.02	58.160
710.34	58.485
710.66	60.000
710.98	60.795
711.29	57.849
711.61	60.177
711.93	57.051
712.25	64.630
712.57	68.015
712.89	64.014
713.20	55.319
713.52	60.526
713.84	56.013
714.16	57.012
714.48	59.483
714.80	65.957
715.11	55.043
715.43	62.018
715.75	57.391
716.07	60.703
716.39	60.188
716.70	59.468
717.02	62.590
717.34	61.837
717.66	63.060
717.97	69.721
718.29	61.852
718.61	60.949
718.93	59.926
719.24	59.170
719.56	59.661
719.88	59.322
720.20	59.122
720.51	62.718
720.83	63.197
721.15	60.821
721.46	63.475
721.78	63.799
722.10	60.755
722.42	62.782
722.73	58.801
723.05	64.344
723.37	66.397
723.68	60.618
724.00	63.008
724.32	68.145
724.63	58.537
724.95	61.088
725.27	63.563
725.58	62.891
725.90	64.599
726.22	61.509
726.53	61.806
726.85	61.092
727.16	61.210
727.48	60.993
727.80	62.121
728.11	61.232
728.43	62.692
728.74	54.480
729.06	61.679
729.38	61.765
729.69	59.786
730.01	58.703
730.32	53.819
730.64	54.515
730.96	53.795
731.27	59.603
731.59	56.269
731.90	57.434
732.22	56.211
732.53	54.489
732.85	56.090
733.16	56.592
733.48	57.475
733.80	53.896
734.11	56.369
734.43	54.734
734.74	53.714
735.06	55.587
735.37	52.601
735.69	53.503
736.00	59.477
736.32	53.271
736.63	57.188
736.95	53.674
737.26	51.020
737.58	52.903
737.89	53.177
738.21	56.655
738.52	56.786
738.83	55.849
739.15	62.692
739.46	61.314
739.78	57.639
740.09	53.231
740.41	54.516
740.72	54.355
741.04	62.963
741.35	65.833
741.66	65.778
741.98	60.849
742.29	67.943
742.61	62.500
742.92	62.443
743.23	63.248
743.55	56.000
743.86	64.912
744.18	64.602
744.49	66.507
744.80	67.136
745.12	65.455
745.43	61.233
745.74	64.414
746.06	67.890
746.37	62.332
746.68	61.538
747.00	65.741
747.31	63.333
747.62	55.752
747.94	58.590
748.25	55.745
748.56	64.758
748.88	61.881
749.19	69.000
749.50	63.721
749.82	57.317
750.13	61.224
750.44	58.759
750.75	56.491
751.07	56.592
751.38	58.537
751.69	57.040
752.01	58.647
752.32	55.235
752.63	55.319
752.94	62.295
753.26	56.000
753.57	57.317
753.88	57.031
754.19	50.714
754.51	54.861
754.82	54.152
755.13	60.000
755.44	56.767
755.75	56.204
756.07	53.546
756.38	51.825
756.69	51.678
757.00	48.503
757.31	51.039
757.63	53.801
757.94	47.989
758.25	43.873
758.56	44.938
758.87	46.774
759.18	52.424
759.50	47.649
759.81	47.975
760.12	49.687
760.43	53.582
760.74	48.370
761.05	52.542
761.36	46.791
761.67	49.148
761.99	52.795
762.30	55.208
762.61	53.817
762.92	54.297
763.23	58.403
763.54	57.600
763.85	51.563
764.16	55.000
764.47	57.795
764.78	51.590
765.10	45.886
765.41	49.558
765.72	52.695
766.03	49.216
766.34	50.333
766.65	60.851
766.96	56.838
767.27	62.944
767.58	65.104
767.89	66.316
768.20	66.092
768.51	60.406
768.82	59.633
769.13	55.691
769.44	49.798
769.75	57.940
770.06	57.339
770.37	61.991
770.68	63.426
770.99	56.000
771.30	49.180
771.61	55.157
771.92	57.377
772.23	60.504
772.54	59.487
772.85	64.398
773.16	69.681
773.47	58.696
773.78	64.467
774.09	60.714
774.39	56.140
774.70	69.136
775.01	76.087
775.32	67.320
775.63	71.053
775.94	74.101
776.25	75.591
776.56	75.373
776.87	72.131
777.18	76.562
777.48	75.573
777.79	68.939
778.10	67.407
778.41	82.143
778.72	67.883
779.03	73.826
779.34	69.799
779.65	64.189
779.95	61.350
780.26	73.856
780.57	76.552
780.88	78.125
781.19	67.669
781.50	70.946
781.80	63.522
782.11	62.147
782.42	58.861
782.73	63.804
783.04	68.919
783.34	76.056
783.65	69.178
783.96	79.104
784.27	68.531
784.57	68.345
784.88	63.889
785.19	73.810
785.50	72.642
785.81	74.627
786.11	79.508
786.42	79.845
786.73	81.416
787.04	85.849
787.34	83.929
787.65	89.000
787.96	75.676
788.26	67.769
788.57	75.424
788.88	79.339
789.19	69.444
789.49	69.697
789.80	75.573
790.11	86.667
790.41	83.168
790.72	92.771
791.03	98.913
791.33	89.535
791.64	79.381
791.95	95.050
792.25	85.556
792.56	84.416
792.87	112.821
793.17	106.329
793.48	98.851
793.79	95.402
794.09	90.909
794.40	74.790
794.70	75.735
795.01	71.852
795.32	70.504
795.62	69.291
795.93	79.310
796.23	77.876
796.54	85.882
796.85	95.946
797.15	115.493
797.46	93.939
797.76	97.590
798.07	103.797
798.37	95.385
798.68	89.394
798.99	102.817
799.29	98.701
799.60	88.636
799.90	100.000
800.21	117.910
800.51	122.414
800.82	131.579
801.12	114.754
801.43	103.030
801.73	106.757
802.04	123.810
802.34	103.704
802.65	106.250
802.95	118.644
803.26	134.375
803.56	91.429
803.87	118.462
804.17	119.118
804.48	142.593
804.78	118.966
805.09	108.824
805.39	134.615
805.70	135.714
806.00	101.639
806.30	96.970
806.61	92.683
806.91	94.937
807.22	89.474
807.52	105.970
807.83	108.451
808.13	120.313
808.43	115.000
808.74	85.526
809.04	110.145
809.35	107.463
809.65	102.632
809.95	135.484
810.26	110.169
810.56	120.635
810.86	156.818
811.17	166.667
811.47	121.667
811.77	140.741
812.08	127.273
812.38	156.000
812.69	172.222
812.99	163.636
813.29	144.898
813.59	121.429
813.90	153.061
814.20	114.545
814.50	100.000
814.81	123.529
815.11	134.694
815.41	100.000
815.72	150.000
816.02	136.364
816.32	147.619
816.62	175.000
816.93	143.902
817.23	171.429
817.53	154.545
817.84	181.818
818.14	128.261
818.44	157.778
818.74	167.647
819.04	147.500
819.35	188.571
819.65	211.765
819.95	189.286
820.25	245.000
820.56	158.974
820.86	140.909
821.16	148.837
821.46	120.513
821.76	164.000
822.07	188.571
822.37	175.000
822.67	163.636
822.97	125.490
823.27	178.571
823.57	167.568
823.88	185.000
824.18	200.000
824.48	164.286
824.78	272.000
825.08	208.333
825.38	172.973
825.69	158.537
825.99	229.167
826.29	175.862
826.59	186.842
826.89	173.684
827.19	217.647
827.49	206.452
827.79	168.182
828.09	138.636
828.39	127.660
828.70	132.653
829.00	170.370
829.30	154.839
829.60	167.500
829.90	340.000
830.20	225.000
830.50	213.043
830.80	239.130
831.10	226.667
831.40	200.000
831.70	191.304
832.00	307.692
832.30	222.222
832.60	306.250
832.90	220.000
833.20	442.857
833.50	225.806
833.80	227.586
834.10	225.000
834.40	238.462
834.70	377.778
835.00	323.810
835.30	182.857
835.60	346.154
835.90	189.655
836.20	371.429
836.50	196.552
836.80	220.000
837.10	186.111
837.40	261.905
837.70	311.765
838.00	207.407
838.30	238.095
838.60	295.238
838.90	265.385
839.19	325.000
839.49	392.857
839.79	345.000
840.09	260.000
840.39	314.286
840.69	265.217
840.99	283.333
841.29	470.000
841.59	266.667
841.88	331.250
842.18	172.414
842.48	295.238
842.78	180.000
843.08	234.783
843.38	200.000
843.68	966.667
843.97	276.923
844.27	200.000
844.57	280.952
844.87	368.750
845.17	200.000
845.47	1400.000
845.76	444.444
846.06	317.647
846.36	550.000
846.66	414.286
846.96	331.250
847.25	418.182
847.55	390.909
847.85	247.826
848.15	520.000
848.44	428.571
848.74	288.889
849.04	311.765
849.34	510.000
849.63	305.263
849.93	500.000
850.23	960.000
850.53	435.714
850.82	2300.000
851.12	-5000.000
851.42	5600.000
851.71	225.000
852.01	-1400.000
852.31	204.167
852.61	2066.667
852.90	280.952
853.20	240.000
853.50	300.000
853.79	285.714
854.09	216.667
854.39	418.750
854.68	170.270
854.98	170.968
855.28	186.667
855.57	203.448
855.87	222.222
856.17	273.684
856.46	240.000
856.76	317.647
857.05	168.966
857.35	237.500
857.65	380.000
857.94	256.522
858.24	200.000
858.53	320.000
858.83	236.364
859.13	380.000
859.42	0.000
859.72	622.222
860.01	463.636
860.31	272.727
860.60	278.947
860.90	234.783
861.20	611.111
861.49	575.000
861.79	-5600.000
862.08	662.500
862.38	300.000
862.67	361.538
862.97	364.706
863.26	544.444
863.56	333.333
863.85	425.000
864.15	587.500
864.44	326.667
864.74	816.667
865.03	625.000
865.33	315.789
865.62	436.364
865.92	476.923
866.21	375.000
866.51	0.000
866.80	481.818
867.10	1280.000
867.39	484.615
867.69	372.727
867.98	305.263
868.27	527.273
868.57	300.000
868.86	-4200.000
869.16	356.250
869.45	2500.000
869.75	-4100.000
870.04	466.667
870.33	671.429
870.63	975.000
870.92	2700.000
871.22	800.000
871.51	364.706
871.80	261.905
872.10	392.857
>>>>>End Processed Spectral Data<<<<<
