SpectraSuite Data File
++++++++++++++++++++++++++++++++++++
Date: Wed May 13 19:38:43 PDT 2015
User: schluterlab
Dark Spectrum Present: Yes
Reference Spectrum Present: Yes
Number of Sampled Component Spectra: 1
Spectrometers: USB2E3373
Integration Time (usec): 3000 (USB2E3373)
Spectra Averaged: 3 (USB2E3373)
Boxcar Smoothing: 0 (USB2E3373)
Correct for Electrical Dark: No (USB2E3373)
Strobe/Lamp Enabled: No (USB2E3373)
Correct for Detector Non-linearity: No (USB2E3373)
Correct for Stray Light: No (USB2E3373)
Number of Pixels in Processed Spectrum: 2048
>>>>>Begin Processed Spectral Data<<<<<
178.53	0.000
178.91	-1075.000
179.29	-1375.000
179.67	-294.444
180.04	-1475.000
180.42	2950.000
180.80	1280.000
181.18	-1200.000
181.56	900.000
181.94	0.000
182.31	-628.571
182.69	1733.333
183.07	-587.500
183.45	-488.889
183.83	563.636
184.20	-520.000
184.58	2400.000
184.96	5400.000
185.34	-1040.000
185.72	-650.000
186.09	-2450.000
186.47	2850.000
186.85	2300.000
187.23	5100.000
187.61	-1866.667
187.98	1350.000
188.36	618.182
188.74	500.000
189.12	-940.000
189.49	630.000
189.87	-6000.000
190.25	-1050.000
190.63	428.571
191.00	469.231
191.38	950.000
191.76	-1275.000
192.14	1650.000
192.51	712.500
192.89	966.667
193.27	662.500
193.65	-1425.000
194.02	540.000
194.40	1100.000
194.78	630.000
195.15	525.000
195.53	620.000
195.91	-2050.000
196.29	350.000
196.66	336.842
197.04	-450.000
197.42	0.000
197.79	590.000
198.17	-5100.000
198.55	628.571
198.92	750.000
199.30	1020.000
199.68	0.000
200.05	344.444
200.43	828.571
200.81	4900.000
201.18	1900.000
201.56	-1666.667
201.94	577.778
202.31	711.111
202.69	450.000
203.07	610.000
203.44	0.000
203.82	1375.000
204.19	942.857
204.57	435.714
204.95	700.000
205.32	1933.333
205.70	609.091
206.08	364.286
206.45	2600.000
206.83	381.250
207.20	900.000
207.58	960.000
207.96	344.444
208.33	800.000
208.71	-850.000
209.08	785.714
209.46	666.667
209.84	536.364
210.21	-1766.667
210.59	1325.000
210.96	-637.500
211.34	3050.000
211.71	710.000
212.09	766.667
212.46	0.000
212.84	1700.000
213.22	1525.000
213.59	-4600.000
213.97	900.000
214.34	814.286
214.72	572.727
215.09	1220.000
215.47	-2750.000
215.84	-2450.000
216.22	1766.667
216.59	428.571
216.97	1475.000
217.34	554.545
217.72	-816.667
218.09	0.000
218.47	-5100.000
218.84	622.222
219.22	928.571
219.59	1833.333
219.97	-728.571
220.34	1100.000
220.72	-1900.000
221.09	364.286
221.47	1500.000
221.84	-950.000
222.22	0.000
222.59	1425.000
222.97	-2800.000
223.34	1180.000
223.72	430.769
224.09	1140.000
224.46	2900.000
224.84	-6100.000
225.21	-1040.000
225.59	-6300.000
225.96	580.000
226.34	285.000
226.71	3600.000
227.08	687.500
227.46	610.000
227.83	-1050.000
228.21	-2450.000
228.58	600.000
228.95	-2600.000
229.33	-2700.000
229.70	1833.333
230.08	842.857
230.45	-900.000
230.82	466.667
231.20	866.667
231.57	728.571
231.95	558.333
232.32	286.364
232.69	481.818
233.07	728.571
233.44	407.692
233.81	-1800.000
234.19	310.526
234.56	508.333
234.93	425.000
235.31	527.273
235.68	307.692
236.05	342.857
236.43	169.697
236.80	257.895
237.17	4700.000
237.55	238.095
237.92	167.857
238.29	285.714
238.67	187.097
239.04	206.897
239.41	138.889
239.79	123.913
240.16	123.810
240.53	134.091
240.91	90.196
241.28	102.000
241.65	86.000
242.02	94.203
242.40	85.484
242.77	78.333
243.14	72.043
243.51	75.281
243.89	65.882
244.26	64.444
244.63	54.839
245.00	47.872
245.38	56.436
245.75	59.813
246.12	55.046
246.49	56.934
246.87	56.800
247.24	48.462
247.61	53.571
247.98	44.444
248.36	41.216
248.73	47.771
249.10	42.675
249.47	37.288
249.84	34.225
250.22	33.155
250.59	34.911
250.96	35.354
251.33	35.071
251.70	36.139
252.08	34.762
252.45	31.390
252.82	23.043
253.19	29.787
253.56	30.980
253.94	32.365
254.31	30.078
254.68	31.923
255.05	26.937
255.42	26.829
255.79	26.103
256.16	28.159
256.54	21.201
256.91	25.623
257.28	25.540
257.65	24.752
258.02	26.708
258.39	22.082
258.76	22.074
259.14	22.024
259.51	21.884
259.88	18.944
260.25	19.637
260.62	19.653
260.99	23.292
261.36	26.126
261.73	22.063
262.10	21.221
262.47	22.254
262.85	20.334
263.22	16.239
263.59	21.368
263.96	19.780
264.33	18.277
264.70	20.789
265.07	18.926
265.44	19.192
265.81	15.815
266.18	18.844
266.55	16.585
266.92	16.708
267.29	15.509
267.66	19.037
268.03	17.500
268.40	16.822
268.77	15.274
269.14	14.640
269.51	17.607
269.88	15.851
270.25	17.607
270.62	16.854
270.99	18.495
271.36	17.811
271.73	14.720
272.10	15.652
272.47	16.774
272.84	17.100
273.21	15.723
273.58	13.974
273.95	12.998
274.32	13.223
274.69	14.989
275.06	15.354
275.43	15.532
275.80	15.631
276.17	14.664
276.54	14.761
276.91	14.032
277.28	15.039
277.65	17.602
278.02	13.872
278.39	15.820
278.76	12.545
279.13	13.962
279.50	15.084
279.87	16.135
280.23	13.174
280.60	13.926
280.97	12.384
281.34	15.221
281.71	14.364
282.08	14.395
282.45	12.364
282.82	12.433
283.19	12.299
283.56	12.807
283.92	13.367
284.29	12.698
284.66	13.612
285.03	13.201
285.40	11.796
285.77	12.626
286.14	11.917
286.51	13.333
286.87	13.504
287.24	14.007
287.61	12.199
287.98	11.688
288.35	11.727
288.72	12.461
289.08	12.676
289.45	12.026
289.82	13.659
290.19	10.989
290.56	11.792
290.93	11.480
291.29	13.497
291.66	11.504
292.03	13.808
292.40	13.510
292.77	11.686
293.13	11.045
293.50	11.079
293.87	12.148
294.24	12.148
294.60	10.335
294.97	10.901
295.34	13.117
295.71	12.500
296.08	10.969
296.44	11.692
296.81	10.172
297.18	13.144
297.55	9.103
297.91	9.103
298.28	12.450
298.65	11.097
299.02	11.858
299.38	10.491
299.75	9.030
300.12	9.834
300.48	10.375
300.85	11.097
301.22	9.682
301.59	8.838
301.95	10.202
302.32	10.911
302.69	9.677
303.05	10.061
303.42	10.494
303.79	11.665
304.15	9.557
304.52	9.965
304.89	9.408
305.25	9.513
305.62	10.079
305.99	9.681
306.35	9.620
306.72	10.090
307.09	10.544
307.45	11.149
307.82	9.263
308.19	11.258
308.55	10.572
308.92	10.849
309.29	10.771
309.65	9.014
310.02	10.677
310.38	10.430
310.75	9.820
311.12	11.361
311.48	11.599
311.85	10.587
312.22	10.614
312.58	10.395
312.95	12.144
313.31	9.709
313.68	12.266
314.05	12.130
314.41	10.553
314.78	11.078
315.14	11.619
315.51	11.946
315.87	11.287
316.24	11.122
316.61	11.209
316.97	10.959
317.34	10.959
317.70	11.759
318.07	12.223
318.43	13.014
318.80	12.559
319.16	12.335
319.53	12.664
319.89	13.810
320.26	14.500
320.62	13.591
320.99	13.333
321.35	14.141
321.72	14.374
322.08	15.795
322.45	15.423
322.81	14.244
323.18	15.414
323.54	14.100
323.91	14.057
324.27	14.723
324.64	14.073
325.00	14.518
325.37	15.105
325.73	15.889
326.10	15.181
326.46	14.606
326.83	15.617
327.19	16.140
327.56	16.028
327.92	16.273
328.29	16.149
328.65	16.390
329.01	16.245
329.38	16.374
329.74	15.882
330.11	17.248
330.47	17.080
330.84	17.555
331.20	16.576
331.56	17.982
331.93	16.389
332.29	16.859
332.66	17.345
333.02	16.728
333.38	16.170
333.75	17.380
334.11	16.904
334.48	16.238
334.84	16.636
335.20	17.000
335.57	17.226
335.93	14.732
336.29	16.941
336.66	17.042
337.02	15.475
337.38	18.241
337.75	15.775
338.11	15.756
338.47	16.667
338.84	17.049
339.20	15.138
339.56	16.880
339.93	15.818
340.29	17.029
340.65	16.132
341.02	17.627
341.38	16.815
341.74	16.930
342.11	15.895
342.47	16.476
342.83	16.866
343.20	17.749
343.56	16.765
343.92	15.965
344.28	16.412
344.65	16.853
345.01	15.741
345.37	14.666
345.73	16.836
346.10	16.709
346.46	16.525
346.82	16.227
347.19	15.455
347.55	15.599
347.91	16.586
348.27	16.680
348.63	16.388
349.00	16.748
349.36	16.092
349.72	16.279
350.08	17.342
350.45	15.867
350.81	15.516
351.17	17.099
351.53	16.790
351.89	15.594
352.26	16.575
352.62	16.279
352.98	17.099
353.34	16.763
353.70	16.203
354.07	16.694
354.43	16.349
354.79	16.010
355.15	16.760
355.51	16.787
355.87	17.388
356.24	16.042
356.60	15.878
356.96	15.688
357.32	16.435
357.68	16.772
358.04	16.152
358.40	16.627
358.77	15.258
359.13	15.627
359.49	15.765
359.85	15.794
360.21	16.108
360.57	15.720
360.93	17.154
361.29	16.327
361.66	15.635
362.02	16.194
362.38	17.262
362.74	15.923
363.10	15.766
363.46	16.434
363.82	15.873
364.18	16.006
364.54	17.385
364.90	17.422
365.26	16.029
365.62	16.581
365.98	16.435
366.35	15.759
366.71	16.775
367.07	16.023
367.43	16.909
367.79	16.774
368.15	17.529
368.51	16.279
368.87	16.631
369.23	16.971
369.59	16.799
369.95	16.471
370.31	17.308
370.67	17.029
371.03	16.854
371.39	16.545
371.75	18.015
372.11	17.212
372.47	16.496
372.83	18.084
373.19	16.257
373.55	17.664
373.91	17.599
374.27	17.251
374.63	17.455
374.99	18.150
375.35	16.609
375.71	17.341
376.07	17.147
376.42	16.988
376.78	17.628
377.14	17.368
377.50	17.682
377.86	16.689
378.22	17.004
378.58	16.228
378.94	16.719
379.30	17.303
379.66	17.893
380.02	17.568
380.38	17.608
380.74	17.647
381.09	17.237
381.45	17.394
381.81	17.506
382.17	18.089
382.53	17.484
382.89	18.519
383.25	17.824
383.61	18.154
383.97	17.886
384.32	17.717
384.68	17.100
385.04	18.009
385.40	17.523
385.76	18.428
386.12	18.005
386.48	18.250
386.83	18.538
387.19	19.728
387.55	18.615
387.91	17.956
388.27	17.842
388.62	18.746
388.98	17.752
389.34	19.024
389.70	18.026
390.06	18.314
390.42	18.288
390.77	19.084
391.13	19.145
391.49	20.051
391.85	18.778
392.20	17.413
392.56	19.381
392.92	19.129
393.28	17.278
393.64	18.885
393.99	19.853
394.35	18.424
394.71	18.444
395.07	18.380
395.42	19.098
395.78	18.830
396.14	18.994
396.50	19.737
396.85	19.644
397.21	19.359
397.57	18.785
397.92	18.690
398.28	17.825
398.64	18.817
399.00	18.523
399.35	17.879
399.71	17.998
400.07	19.397
400.42	19.141
400.78	19.964
401.14	19.878
401.49	19.522
401.85	18.512
402.21	19.102
402.57	18.199
402.92	19.294
403.28	20.425
403.63	19.431
403.99	18.217
404.35	19.394
404.70	18.165
405.06	19.220
405.42	18.590
405.77	19.371
406.13	18.736
406.49	19.515
406.84	18.606
407.20	19.031
407.55	18.890
407.91	19.867
408.27	18.698
408.62	19.386
408.98	18.627
409.34	18.881
409.69	19.419
410.05	19.021
410.40	19.572
410.76	18.280
411.11	18.999
411.47	18.914
411.83	18.815
412.18	18.615
412.54	19.116
412.89	19.759
413.25	18.831
413.60	19.333
413.96	18.519
414.31	18.591
414.67	18.885
415.03	18.940
415.38	19.394
415.74	19.678
416.09	19.203
416.45	18.742
416.80	19.167
417.16	19.973
417.51	19.774
417.87	19.204
418.22	19.243
418.58	20.207
418.93	19.349
419.29	20.178
419.64	20.214
420.00	20.549
420.35	19.884
420.71	19.845
421.06	18.496
421.42	19.825
421.77	19.675
422.12	18.473
422.48	18.942
422.83	19.744
423.19	19.448
423.54	19.733
423.90	19.826
424.25	19.319
424.61	18.929
424.96	19.534
425.31	19.934
425.67	18.989
426.02	18.800
426.38	19.780
426.73	19.427
427.09	19.453
427.44	19.436
427.79	20.069
428.15	20.238
428.50	19.602
428.85	19.905
429.21	19.382
429.56	19.285
429.92	20.131
430.27	19.067
430.62	18.945
430.98	19.305
431.33	18.969
431.68	19.686
432.04	18.690
432.39	19.360
432.74	19.749
433.10	20.091
433.45	19.767
433.80	19.512
434.16	19.818
434.51	19.632
434.86	19.840
435.22	20.289
435.57	20.669
435.92	19.719
436.28	20.225
436.63	20.475
436.98	19.519
437.34	20.036
437.69	20.478
438.04	19.899
438.39	19.940
438.75	20.860
439.10	19.553
439.45	20.661
439.81	21.390
440.16	19.932
440.51	20.504
440.86	20.903
441.22	19.410
441.57	19.851
441.92	20.624
442.27	20.237
442.63	20.274
442.98	20.225
443.33	20.543
443.68	19.979
444.03	20.254
444.39	19.815
444.74	19.968
445.09	19.838
445.44	20.722
445.79	20.336
446.15	19.905
446.50	19.763
446.85	20.658
447.20	19.939
447.55	20.882
447.91	20.463
448.26	20.256
448.61	20.407
448.96	21.041
449.31	20.191
449.66	20.653
450.02	19.889
450.37	20.125
450.72	20.248
451.07	19.805
451.42	19.818
451.77	21.433
452.12	20.381
452.47	19.900
452.83	20.280
453.18	20.049
453.53	20.470
453.88	20.083
454.23	20.801
454.58	21.320
454.93	20.661
455.28	21.072
455.63	20.813
455.98	21.488
456.34	21.168
456.69	20.664
457.04	21.300
457.39	20.047
457.74	20.604
458.09	21.334
458.44	21.266
458.79	20.390
459.14	20.824
459.49	20.724
459.84	20.055
460.19	20.684
460.54	20.081
460.89	20.735
461.24	20.522
461.59	21.150
461.94	20.284
462.29	21.246
462.64	20.932
462.99	19.909
463.34	21.267
463.69	20.450
464.04	21.333
464.39	21.101
464.74	20.856
465.09	20.446
465.44	20.609
465.79	20.078
466.14	20.580
466.49	19.911
466.84	20.841
467.19	20.459
467.54	21.750
467.89	20.528
468.24	20.652
468.59	21.429
468.94	20.220
469.29	20.437
469.64	21.218
469.99	21.651
470.34	21.004
470.68	21.911
471.03	21.088
471.38	22.446
471.73	21.652
472.08	21.974
472.43	21.231
472.78	20.869
473.13	21.309
473.48	21.099
473.83	20.793
474.17	21.157
474.52	21.402
474.87	21.308
475.22	21.242
475.57	21.333
475.92	21.986
476.27	21.082
476.61	20.960
476.96	20.506
477.31	20.879
477.66	20.678
478.01	20.335
478.36	21.787
478.70	20.717
479.05	20.607
479.40	21.290
479.75	20.742
480.10	20.924
480.45	20.895
480.79	20.784
481.14	20.939
481.49	21.073
481.84	20.165
482.19	20.900
482.53	20.734
482.88	21.126
483.23	20.748
483.58	20.883
483.92	20.759
484.27	19.477
484.62	20.043
484.97	20.497
485.31	19.418
485.66	18.363
486.01	17.926
486.36	17.805
486.70	17.387
487.05	18.268
487.40	18.514
487.75	18.894
488.09	18.775
488.44	19.246
488.79	19.964
489.13	19.672
489.48	20.188
489.83	19.983
490.17	20.561
490.52	20.416
490.87	20.624
491.22	20.555
491.56	19.271
491.91	20.056
492.26	20.073
492.60	20.369
492.95	19.411
493.30	20.047
493.64	20.112
493.99	20.334
494.34	19.889
494.68	20.696
495.03	21.100
495.37	20.149
495.72	20.273
496.07	20.325
496.41	19.735
496.76	19.393
497.11	20.486
497.45	20.680
497.80	19.962
498.14	19.807
498.49	20.732
498.84	20.757
499.18	20.333
499.53	20.180
499.87	20.596
500.22	19.689
500.56	21.359
500.91	20.577
501.26	20.768
501.60	21.168
501.95	19.798
502.29	20.291
502.64	20.298
502.98	20.898
503.33	19.835
503.67	20.510
504.02	20.299
504.36	20.590
504.71	20.762
505.06	20.771
505.40	21.099
505.75	20.733
506.09	19.776
506.44	21.066
506.78	21.286
507.13	21.302
507.47	21.970
507.82	21.479
508.16	21.783
508.51	21.613
508.85	21.301
509.19	21.837
509.54	21.888
509.88	21.329
510.23	21.748
510.57	22.704
510.92	21.906
511.26	21.994
511.61	21.784
511.95	21.973
512.30	22.110
512.64	22.730
512.98	22.186
513.33	22.537
513.67	21.558
514.02	22.024
514.36	24.249
514.70	23.298
515.05	23.369
515.39	23.724
515.74	22.917
516.08	23.756
516.42	23.196
516.77	23.244
517.11	23.696
517.46	24.097
517.80	23.926
518.14	23.625
518.49	24.679
518.83	24.545
519.17	23.730
519.52	24.788
519.86	24.358
520.20	24.566
520.55	24.417
520.89	25.122
521.23	25.392
521.58	25.210
521.92	25.352
522.26	25.381
522.61	25.171
522.95	25.169
523.29	24.224
523.64	25.427
523.98	25.447
524.32	26.236
524.66	25.917
525.01	25.551
525.35	25.341
525.69	25.246
526.04	25.732
526.38	25.625
526.72	25.460
527.06	26.742
527.41	24.196
527.75	26.174
528.09	25.947
528.43	26.450
528.78	26.245
529.12	25.273
529.46	25.781
529.80	26.238
530.15	25.047
530.49	24.862
530.83	25.949
531.17	26.175
531.51	26.913
531.86	26.258
532.20	26.923
532.54	26.393
532.88	26.059
533.22	25.734
533.57	27.037
533.91	24.985
534.25	26.428
534.59	25.808
534.93	24.569
535.27	26.373
535.62	26.129
535.96	26.993
536.30	26.446
536.64	26.143
536.98	27.206
537.32	25.477
537.66	25.933
538.01	25.938
538.35	26.632
538.69	26.994
539.03	25.666
539.37	25.751
539.71	24.174
540.05	25.752
540.39	25.116
540.73	25.744
541.07	26.022
541.42	25.701
541.76	27.161
542.10	26.585
542.44	25.960
542.78	27.141
543.12	26.168
543.46	26.885
543.80	26.090
544.14	24.968
544.48	26.095
544.82	24.824
545.16	25.830
545.50	25.129
545.84	26.008
546.18	25.455
546.52	26.841
546.86	26.048
547.20	26.837
547.54	26.186
547.88	25.702
548.22	25.467
548.56	26.101
548.90	25.224
549.24	25.657
549.58	26.057
549.92	25.893
550.26	27.060
550.60	25.242
550.94	26.620
551.28	25.896
551.62	26.528
551.96	26.316
552.30	26.485
552.64	26.369
552.98	25.831
553.32	26.298
553.66	26.858
554.00	26.218
554.34	26.432
554.68	27.182
555.02	25.811
555.36	25.818
555.69	25.237
556.03	25.101
556.37	25.716
556.71	25.580
557.05	26.611
557.39	26.102
557.73	26.535
558.07	25.961
558.41	25.253
558.75	26.304
559.08	26.174
559.42	27.211
559.76	26.985
560.10	25.482
560.44	25.996
560.78	24.884
561.12	24.934
561.45	25.033
561.79	25.049
562.13	25.218
562.47	25.546
562.81	25.523
563.15	24.883
563.48	25.464
563.82	25.245
564.16	25.311
564.50	25.000
564.84	24.779
565.17	24.003
565.51	25.112
565.85	25.000
566.19	23.795
566.52	24.826
566.86	23.689
567.20	25.118
567.54	24.486
567.88	23.737
568.21	23.704
568.55	23.407
568.89	22.957
569.23	22.415
569.56	22.470
569.90	22.264
570.24	21.780
570.57	21.625
570.91	21.396
571.25	21.309
571.59	21.296
571.92	21.227
572.26	20.971
572.60	21.622
572.93	21.109
573.27	21.177
573.61	20.603
573.95	20.801
574.28	20.704
574.62	20.238
574.96	20.430
575.29	20.272
575.63	20.528
575.97	20.776
576.30	20.659
576.64	19.914
576.98	19.932
577.31	20.263
577.65	20.087
577.98	19.803
578.32	19.758
578.66	20.000
578.99	19.699
579.33	19.995
579.67	19.995
580.00	19.875
580.34	20.171
580.67	20.421
581.01	20.621
581.35	19.984
581.68	19.732
582.02	19.101
582.35	19.186
582.69	19.576
583.02	19.774
583.36	19.806
583.70	20.205
584.03	20.350
584.37	20.422
584.70	20.533
585.04	19.961
585.37	19.991
585.71	20.042
586.04	20.053
586.38	19.775
586.72	20.160
587.05	19.832
587.39	20.053
587.72	20.407
588.06	20.171
588.39	20.027
588.73	20.622
589.06	21.003
589.40	20.303
589.73	20.627
590.07	20.961
590.40	20.424
590.73	21.311
591.07	21.734
591.40	22.185
591.74	21.948
592.07	21.422
592.41	21.248
592.74	20.524
593.08	20.320
593.41	20.215
593.75	20.362
594.08	20.416
594.41	20.573
594.75	20.702
595.08	20.293
595.42	20.595
595.75	20.620
596.09	21.217
596.42	21.493
596.75	20.895
597.09	21.558
597.42	20.826
597.75	21.173
598.09	21.174
598.42	20.619
598.76	20.268
599.09	19.916
599.42	19.942
599.76	20.315
600.09	20.291
600.42	20.197
600.76	20.000
601.09	20.036
601.42	21.081
601.76	20.455
602.09	20.395
602.42	20.740
602.76	20.798
603.09	20.338
603.42	20.422
603.76	20.122
604.09	19.814
604.42	20.628
604.76	21.341
605.09	20.402
605.42	20.607
605.75	20.116
606.09	19.642
606.42	20.433
606.75	20.158
607.09	20.092
607.42	19.812
607.75	19.705
608.08	19.844
608.42	20.529
608.75	20.198
609.08	20.722
609.41	21.228
609.75	20.486
610.08	21.725
610.41	20.158
610.74	20.246
611.07	20.998
611.41	20.805
611.74	21.518
612.07	20.756
612.40	20.986
612.73	20.632
613.07	20.744
613.40	21.538
613.73	20.346
614.06	21.344
614.39	20.766
614.72	20.737
615.06	21.429
615.39	20.648
615.72	19.990
616.05	20.362
616.38	20.678
616.71	22.090
617.05	21.260
617.38	20.686
617.71	21.141
618.04	21.214
618.37	21.407
618.70	21.033
619.03	22.763
619.36	22.403
619.69	21.972
620.03	22.802
620.36	21.992
620.69	21.575
621.02	22.788
621.35	22.318
621.68	22.741
622.01	22.059
622.34	23.525
622.67	23.346
623.00	21.203
623.33	21.730
623.66	21.515
623.99	22.533
624.32	22.397
624.65	21.963
624.99	21.530
625.32	21.506
625.65	21.337
625.98	21.906
626.31	22.473
626.64	23.102
626.97	22.610
627.30	22.776
627.63	23.790
627.96	22.456
628.29	23.010
628.62	23.788
628.95	24.811
629.28	24.270
629.61	23.831
629.94	24.381
630.26	23.832
630.59	24.214
630.92	22.605
631.25	22.804
631.58	23.724
631.91	22.819
632.24	24.578
632.57	24.449
632.90	25.329
633.23	25.168
633.56	24.633
633.89	26.727
634.22	25.199
634.55	25.089
634.88	25.269
635.20	25.090
635.53	26.867
635.86	25.371
636.19	24.235
636.52	23.760
636.85	24.513
637.18	24.885
637.51	25.414
637.83	22.441
638.16	24.680
638.49	25.441
638.82	27.560
639.15	24.500
639.48	25.436
639.81	25.469
640.13	25.781
640.46	26.174
640.79	26.948
641.12	25.309
641.45	25.419
641.77	25.479
642.10	26.754
642.43	26.126
642.76	27.090
643.09	27.301
643.41	25.493
643.74	27.315
644.07	26.677
644.40	26.840
644.73	27.874
645.05	28.843
645.38	26.540
645.71	26.570
646.04	27.076
646.36	29.549
646.69	29.264
647.02	28.571
647.35	29.038
647.67	28.673
648.00	28.130
648.33	27.393
648.66	27.273
648.98	26.687
649.31	24.514
649.64	27.205
649.96	26.230
650.29	26.856
650.62	27.184
650.94	27.553
651.27	28.041
651.60	28.120
651.92	26.038
652.25	25.081
652.58	26.168
652.90	25.908
653.23	25.732
653.56	27.087
653.88	25.198
654.21	26.540
654.54	26.238
654.86	25.701
655.19	23.649
655.52	16.497
655.84	13.346
656.17	16.906
656.49	23.148
656.82	23.867
657.15	18.148
657.47	13.637
657.80	10.535
658.13	11.037
658.45	16.489
658.78	16.824
659.10	17.495
659.43	17.971
659.75	19.250
660.08	20.633
660.41	23.743
660.73	25.540
661.06	25.000
661.38	28.909
661.71	29.615
662.03	30.769
662.36	26.640
662.68	27.912
663.01	28.485
663.33	28.662
663.66	30.042
663.98	29.590
664.31	30.042
664.63	27.328
664.96	26.559
665.28	28.893
665.61	28.850
665.93	28.974
666.26	28.803
666.58	30.753
666.91	29.387
667.23	30.562
667.56	28.078
667.88	29.701
668.21	28.998
668.53	27.549
668.86	26.407
669.18	28.785
669.50	30.000
669.83	30.719
670.15	30.667
670.48	28.540
670.80	27.802
671.13	32.696
671.45	29.149
671.77	30.957
672.10	28.281
672.42	25.265
672.75	24.378
673.07	27.113
673.39	25.316
673.72	26.172
674.04	26.275
674.37	26.990
674.69	26.789
675.01	28.033
675.34	30.595
675.66	29.263
675.98	27.291
676.31	28.361
676.63	28.662
676.95	29.140
677.28	26.869
677.60	29.451
677.92	31.435
678.25	28.953
678.57	29.681
678.89	27.655
679.22	27.112
679.54	27.481
679.86	26.606
680.18	25.581
680.51	25.532
680.83	26.690
681.15	27.925
681.48	26.843
681.80	26.112
682.12	27.586
682.44	26.692
682.77	27.699
683.09	30.258
683.41	31.264
683.73	28.256
684.06	28.099
684.38	27.593
684.70	24.225
685.02	26.079
685.34	25.275
685.67	23.776
685.99	23.024
686.31	25.597
686.63	23.675
686.96	23.036
687.28	27.076
687.60	24.094
687.92	25.777
688.24	25.475
688.56	28.916
688.89	27.593
689.21	30.131
689.53	27.975
689.85	29.933
690.17	24.845
690.49	28.662
690.82	27.570
691.14	26.562
691.46	27.426
691.78	26.908
692.10	28.099
692.42	26.547
692.74	24.274
693.06	28.936
693.39	27.105
693.71	28.603
694.03	28.211
694.35	28.571
694.67	26.316
694.99	27.805
695.31	28.186
695.63	27.751
695.95	28.117
696.27	30.711
696.59	28.497
696.91	29.793
697.23	26.995
697.56	27.719
697.88	24.744
698.20	26.875
698.52	28.387
698.84	25.390
699.16	27.880
699.48	27.791
699.80	29.227
700.12	31.688
700.44	30.504
700.76	30.663
701.08	34.770
701.40	32.123
701.72	33.528
702.04	34.375
702.36	28.045
702.68	28.612
703.00	29.086
703.32	25.000
703.64	26.810
703.96	29.805
704.28	31.395
704.60	30.792
704.91	35.015
705.23	34.018
705.55	32.890
705.87	33.223
706.19	31.802
706.51	31.776
706.83	30.303
707.15	32.213
707.47	26.768
707.79	27.764
708.11	29.224
708.43	26.190
708.74	25.510
709.06	30.390
709.38	29.396
709.70	30.233
710.02	28.190
710.34	30.303
710.66	35.224
710.98	32.386
711.29	32.849
711.61	34.808
711.93	31.731
712.25	33.441
712.57	31.618
712.89	32.872
713.20	28.267
713.52	33.553
713.84	32.595
714.16	32.317
714.48	30.747
714.80	32.523
715.11	30.836
715.43	29.377
715.75	32.754
716.07	29.073
716.39	34.169
716.70	35.216
717.02	32.734
717.34	34.629
717.66	39.925
717.97	39.442
718.29	34.815
718.61	33.212
718.93	35.294
719.24	31.834
719.56	31.864
719.88	30.847
720.20	37.838
720.51	33.449
720.83	36.059
721.15	32.836
721.46	32.979
721.78	37.634
722.10	39.623
722.42	36.090
722.73	32.210
723.05	38.934
723.37	32.794
723.68	35.521
724.00	35.366
724.32	33.468
724.63	37.398
724.95	33.473
725.27	44.534
725.58	35.156
725.90	35.036
726.22	33.962
726.53	33.333
726.85	31.058
727.16	32.384
727.48	29.787
727.80	33.712
728.11	32.971
728.43	33.077
728.74	31.183
729.06	35.766
729.38	36.397
729.69	35.943
730.01	33.106
730.32	35.417
730.64	32.776
730.96	31.023
731.27	30.464
731.59	27.523
731.90	32.653
732.22	28.261
732.53	28.483
732.85	30.449
733.16	29.582
733.48	29.900
733.80	29.221
734.11	28.981
734.43	30.473
734.74	28.286
735.06	30.372
735.37	32.081
735.69	28.662
736.00	31.373
736.32	32.087
736.63	32.268
736.95	31.949
737.26	26.871
737.58	26.774
737.89	33.110
738.21	31.058
738.52	33.214
738.83	30.189
739.15	31.538
739.46	31.387
739.78	29.514
740.09	29.538
740.41	31.613
740.72	30.662
741.04	30.741
741.35	32.917
741.66	41.333
741.98	29.717
742.29	38.278
742.61	39.655
742.92	34.389
743.23	35.043
743.55	31.600
743.86	30.263
744.18	40.265
744.49	40.670
744.80	41.315
745.12	38.636
745.43	38.326
745.74	43.243
746.06	38.073
746.37	36.771
746.68	35.294
747.00	38.426
747.31	38.571
747.62	36.726
747.94	34.802
748.25	35.319
748.56	35.683
748.88	35.644
749.19	45.000
749.50	38.605
749.82	32.114
750.13	33.061
750.44	35.401
750.75	31.930
751.07	32.154
751.38	33.101
751.69	35.740
752.01	28.947
752.32	32.130
752.63	30.496
752.94	34.016
753.26	36.400
753.57	28.862
753.88	32.031
754.19	28.571
754.51	32.986
754.82	31.047
755.13	32.075
755.44	31.955
755.75	32.117
756.07	28.014
756.38	30.292
756.69	30.537
757.00	28.443
757.31	28.190
757.63	25.146
757.94	26.810
758.25	24.510
758.56	22.963
758.87	26.613
759.18	30.303
759.50	29.467
759.81	28.972
760.12	26.875
760.43	27.507
760.74	25.000
761.05	31.073
761.36	27.273
761.67	28.125
761.99	26.708
762.30	34.375
762.61	32.443
762.92	34.375
763.23	36.134
763.54	30.400
763.85	30.078
764.16	34.231
764.47	37.262
764.78	28.622
765.10	28.481
765.41	26.254
765.72	30.240
766.03	29.781
766.34	30.333
766.65	34.894
766.96	36.752
767.27	40.609
767.58	44.271
767.89	43.684
768.20	39.080
768.51	40.102
768.82	37.156
769.13	31.301
769.44	31.174
769.75	34.335
770.06	31.193
770.37	40.724
770.68	32.870
770.99	39.556
771.30	29.918
771.61	34.529
771.92	38.525
772.23	39.076
772.54	37.436
772.85	40.838
773.16	36.702
773.47	42.391
773.78	42.640
774.09	36.905
774.39	46.784
774.70	44.444
775.01	53.623
775.32	56.209
775.63	48.684
775.94	43.165
776.25	57.480
776.56	55.224
776.87	53.279
777.18	53.906
777.48	51.908
777.79	56.061
778.10	60.000
778.41	58.036
778.72	45.985
779.03	50.336
779.34	42.953
779.65	43.919
779.95	47.239
780.26	46.405
780.57	56.552
780.88	62.500
781.19	49.624
781.50	55.405
781.80	39.623
782.11	38.418
782.42	43.671
782.73	35.583
783.04	47.973
783.34	48.592
783.65	56.849
783.96	49.254
784.27	46.154
784.57	47.482
784.88	42.593
785.19	55.556
785.50	53.774
785.81	58.209
786.11	52.459
786.42	52.713
786.73	56.637
787.04	60.377
787.34	58.929
787.65	63.000
787.96	50.450
788.26	52.066
788.57	61.864
788.88	61.157
789.19	52.778
789.49	59.091
789.80	55.725
790.11	73.333
790.41	69.307
790.72	67.470
791.03	67.391
791.33	69.767
791.64	68.041
791.95	66.337
792.25	73.333
792.56	79.221
792.87	83.333
793.17	83.544
793.48	78.161
793.79	67.816
794.09	77.273
794.40	57.143
794.70	53.676
795.01	49.630
795.32	57.554
795.62	56.693
795.93	62.931
796.23	58.407
796.54	62.353
796.85	75.676
797.15	94.366
797.46	86.364
797.76	92.771
798.07	81.013
798.37	95.385
798.68	92.424
798.99	74.648
799.29	63.636
799.60	63.636
799.90	97.260
800.21	100.000
800.51	100.000
800.82	82.456
801.12	98.361
801.43	87.879
801.73	68.919
802.04	115.873
802.34	88.889
802.65	82.813
802.95	106.780
803.26	109.375
803.56	80.000
803.87	90.769
804.17	98.529
804.48	122.222
804.78	89.655
805.09	95.588
805.39	90.385
805.70	108.929
806.00	103.279
806.30	72.727
806.61	78.049
806.91	78.481
807.22	73.684
807.52	70.149
807.83	78.873
808.13	82.813
808.43	83.333
808.74	76.316
809.04	89.855
809.35	97.015
809.65	84.211
809.95	116.129
810.26	84.746
810.56	90.476
810.86	134.091
811.17	140.476
811.47	113.333
811.77	101.852
812.08	112.727
812.38	116.000
812.69	158.333
812.99	125.000
813.29	128.571
813.59	97.619
813.90	124.490
814.20	101.818
814.50	81.538
814.81	94.118
815.11	126.531
815.41	101.639
815.72	161.905
816.02	138.182
816.32	119.048
816.62	137.500
816.93	129.268
817.23	135.714
817.53	140.909
817.84	187.879
818.14	150.000
818.44	131.111
818.74	173.529
819.04	152.500
819.35	162.857
819.65	176.471
819.95	175.000
820.25	245.000
820.56	158.974
820.86	140.909
821.16	146.512
821.46	153.846
821.76	138.000
822.07	165.714
822.37	142.500
822.67	200.000
822.97	107.843
823.27	214.286
823.57	151.351
823.88	160.000
824.18	190.000
824.48	140.476
824.78	228.000
825.08	220.833
825.38	151.351
825.69	148.780
825.99	233.333
826.29	168.966
826.59	150.000
826.89	157.895
827.19	147.059
827.49	177.419
827.79	122.727
828.09	138.636
828.39	106.383
828.70	134.694
829.00	174.074
829.30	193.548
829.60	150.000
829.90	360.000
830.20	160.714
830.50	191.304
830.80	230.435
831.10	186.667
831.40	210.000
831.70	239.130
832.00	226.923
832.30	203.704
832.60	343.750
832.90	203.333
833.20	414.286
833.50	196.774
833.80	220.690
834.10	228.125
834.40	219.231
834.70	327.778
835.00	338.095
835.30	174.286
835.60	300.000
835.90	203.448
836.20	307.143
836.50	224.138
836.80	176.000
837.10	163.889
837.40	242.857
837.70	329.412
838.00	203.704
838.30	276.190
838.60	319.048
838.90	219.231
839.19	265.000
839.49	421.429
839.79	325.000
840.09	275.000
840.39	228.571
840.69	252.174
840.99	333.333
841.29	470.000
841.59	325.000
841.88	368.750
842.18	182.759
842.48	247.619
842.78	203.333
843.08	226.087
843.38	212.500
843.68	916.667
843.97	246.154
844.27	193.103
844.57	309.524
844.87	412.500
845.17	240.741
845.47	1566.667
845.76	544.444
846.06	335.294
846.36	575.000
846.66	421.429
846.96	356.250
847.25	436.364
847.55	336.364
847.85	256.522
848.15	490.000
848.44	414.286
848.74	277.778
849.04	341.176
849.34	600.000
849.63	247.368
849.93	554.545
850.23	1080.000
850.53	414.286
850.82	2750.000
851.12	-3900.000
851.42	5100.000
851.71	300.000
852.01	-1166.667
852.31	225.000
852.61	1533.333
852.90	328.571
853.20	220.000
853.50	347.059
853.79	285.714
854.09	237.500
854.39	312.500
854.68	170.270
854.98	209.677
855.28	193.333
855.57	200.000
855.87	255.556
856.17	257.895
856.46	293.333
856.76	329.412
857.05	196.552
857.35	225.000
857.65	326.667
857.94	313.043
858.24	234.615
858.53	300.000
858.83	254.545
859.13	366.667
859.42	0.000
859.72	622.222
860.01	427.273
860.31	245.455
860.60	247.368
860.90	230.435
861.20	555.556
861.49	508.333
861.79	-4900.000
862.08	800.000
862.38	276.190
862.67	407.692
862.97	370.588
863.26	644.444
863.56	272.222
863.85	450.000
864.15	700.000
864.44	420.000
864.74	1000.000
865.03	625.000
865.33	300.000
865.62	427.273
865.92	453.846
866.21	491.667
866.51	0.000
866.80	427.273
867.10	1040.000
867.39	453.846
867.69	454.545
867.98	300.000
868.27	463.636
868.57	321.053
868.86	-5100.000
869.16	293.750
869.45	2300.000
869.75	-4000.000
870.04	441.667
870.33	700.000
870.63	1400.000
870.92	2350.000
871.22	771.429
871.51	405.882
871.80	238.095
872.10	421.429
>>>>>End Processed Spectral Data<<<<<
