SpectraSuite Data File
++++++++++++++++++++++++++++++++++++
Date: Wed May 13 19:25:06 PDT 2015
User: schluterlab
Dark Spectrum Present: Yes
Reference Spectrum Present: Yes
Number of Sampled Component Spectra: 1
Spectrometers: USB2E3373
Integration Time (usec): 3000 (USB2E3373)
Spectra Averaged: 3 (USB2E3373)
Boxcar Smoothing: 0 (USB2E3373)
Correct for Electrical Dark: No (USB2E3373)
Strobe/Lamp Enabled: No (USB2E3373)
Correct for Detector Non-linearity: No (USB2E3373)
Correct for Stray Light: No (USB2E3373)
Number of Pixels in Processed Spectrum: 2048
>>>>>Begin Processed Spectral Data<<<<<
178.53	0.000
178.91	-1450.000
179.29	-1500.000
179.67	-255.556
180.04	-1250.000
180.42	2700.000
180.80	940.000
181.18	-1100.000
181.56	757.143
181.94	0.000
182.31	-700.000
182.69	1933.333
183.07	-662.500
183.45	-500.000
183.83	518.182
184.20	-460.000
184.58	2550.000
184.96	4800.000
185.34	-1080.000
185.72	-600.000
186.09	-2350.000
186.47	2800.000
186.85	2800.000
187.23	5300.000
187.61	-2000.000
187.98	1325.000
188.36	536.364
188.74	572.727
189.12	-980.000
189.49	520.000
189.87	-5100.000
190.25	-1125.000
190.63	478.571
191.00	515.385
191.38	800.000
191.76	-1450.000
192.14	1425.000
192.51	575.000
192.89	850.000
193.27	675.000
193.65	-1225.000
194.02	540.000
194.40	1020.000
194.78	670.000
195.15	491.667
195.53	630.000
195.91	-2450.000
196.29	350.000
196.66	342.105
197.04	-380.000
197.42	0.000
197.79	640.000
198.17	-3900.000
198.55	728.571
198.92	787.500
199.30	940.000
199.68	0.000
200.05	316.667
200.43	800.000
200.81	5200.000
201.18	1733.333
201.56	-1500.000
201.94	711.111
202.31	666.667
202.69	500.000
203.07	670.000
203.44	0.000
203.82	1225.000
204.19	814.286
204.57	450.000
204.95	775.000
205.32	1933.333
205.70	500.000
206.08	407.143
206.45	2700.000
206.83	368.750
207.20	1150.000
207.58	860.000
207.96	305.556
208.33	812.500
208.71	-850.000
209.08	828.571
209.46	477.778
209.84	472.727
210.21	-1500.000
210.59	1400.000
210.96	-562.500
211.34	3050.000
211.71	690.000
212.09	983.333
212.46	0.000
212.84	1766.667
213.22	1500.000
213.59	-5500.000
213.97	1083.333
214.34	957.143
214.72	672.727
215.09	980.000
215.47	-2900.000
215.84	-2500.000
216.22	1800.000
216.59	428.571
216.97	1325.000
217.34	481.818
217.72	-833.333
218.09	0.000
218.47	-5800.000
218.84	655.556
219.22	842.857
219.59	1700.000
219.97	-728.571
220.34	1020.000
220.72	-1666.667
221.09	414.286
221.47	1825.000
221.84	-1083.333
222.22	0.000
222.59	1425.000
222.97	-2850.000
223.34	1180.000
223.72	415.385
224.09	1280.000
224.46	2350.000
224.84	-5100.000
225.21	-1000.000
225.59	-5700.000
225.96	710.000
226.34	300.000
226.71	2250.000
227.08	675.000
227.46	580.000
227.83	-1275.000
228.21	-2450.000
228.58	633.333
228.95	-2400.000
229.33	-2150.000
229.70	1766.667
230.08	842.857
230.45	-1000.000
230.82	458.333
231.20	950.000
231.57	857.143
231.95	400.000
232.32	290.909
232.69	409.091
233.07	785.714
233.44	415.385
233.81	-1800.000
234.19	342.105
234.56	466.667
234.93	433.333
235.31	481.818
235.68	315.385
236.05	350.000
236.43	200.000
236.80	294.737
237.17	4600.000
237.55	247.619
237.92	221.429
238.29	257.143
238.67	177.419
239.04	210.345
239.41	161.111
239.79	145.652
240.16	166.667
240.53	115.909
240.91	100.000
241.28	144.000
241.65	108.000
242.02	108.696
242.40	104.839
242.77	106.667
243.14	77.419
243.51	80.899
243.89	81.176
244.26	67.778
244.63	67.742
245.00	58.511
245.38	69.307
245.75	57.009
246.12	55.046
246.49	56.934
246.87	64.800
247.24	66.923
247.61	57.143
247.98	52.288
248.36	45.946
248.73	46.497
249.10	56.688
249.47	45.763
249.84	50.267
250.22	49.198
250.59	47.929
250.96	41.919
251.33	44.076
251.70	49.505
252.08	41.905
252.45	43.049
252.82	37.826
253.19	38.298
253.56	38.039
253.94	41.909
254.31	32.812
254.68	36.538
255.05	37.269
255.42	39.024
255.79	39.706
256.16	38.267
256.54	37.102
256.91	33.808
257.28	30.935
257.65	34.653
258.02	35.404
258.39	35.962
258.76	34.114
259.14	34.524
259.51	30.699
259.88	33.851
260.25	30.211
260.62	33.815
260.99	33.230
261.36	34.535
261.73	32.665
262.10	31.686
262.47	30.986
262.85	33.148
263.22	30.484
263.59	34.758
263.96	29.670
264.33	33.943
264.70	33.421
265.07	32.481
265.44	31.061
265.81	28.467
266.18	32.412
266.55	29.512
266.92	30.713
267.29	30.324
267.66	30.275
268.03	27.955
268.40	28.738
268.77	28.162
269.14	26.802
269.51	30.474
269.88	29.604
270.25	26.411
270.62	28.539
270.99	29.892
271.36	30.258
271.73	28.738
272.10	29.565
272.47	29.462
272.84	28.139
273.21	29.140
273.58	27.948
273.95	23.899
274.32	25.207
274.69	27.195
275.06	26.378
275.43	29.149
275.80	26.854
276.17	28.717
276.54	25.988
276.91	27.668
277.28	25.977
277.65	26.886
278.02	27.122
278.39	27.930
278.76	27.818
279.13	26.226
279.50	25.140
279.87	27.092
280.23	27.146
280.60	25.725
280.97	25.878
281.34	25.841
281.71	26.909
282.08	26.488
282.45	23.636
282.82	25.222
283.19	24.599
283.56	23.860
283.92	26.058
284.29	25.397
284.66	25.408
285.03	23.689
285.40	26.585
285.77	24.242
286.14	24.870
286.51	24.500
286.87	25.641
287.24	24.919
287.61	25.843
287.98	24.351
288.35	23.613
288.72	22.741
289.08	24.570
289.45	23.558
289.82	22.927
290.19	21.821
290.56	20.827
290.93	23.565
291.29	21.933
291.66	24.041
292.03	24.564
292.40	23.348
292.77	21.302
293.13	19.851
293.50	22.012
293.87	21.185
294.24	20.000
294.60	21.252
294.97	22.093
295.34	21.580
295.71	19.744
296.08	20.370
296.44	19.807
296.81	20.211
297.18	21.274
297.55	19.261
297.91	18.338
298.28	20.750
298.65	19.843
299.02	20.949
299.38	19.920
299.75	17.251
300.12	18.519
300.48	19.000
300.85	18.249
301.22	19.108
301.59	17.172
301.95	18.892
302.32	16.945
302.69	18.996
303.05	19.152
303.42	17.778
303.79	17.780
304.15	17.483
304.52	17.381
304.89	17.886
305.25	17.517
305.62	18.120
305.99	18.890
306.35	17.673
306.72	16.928
307.09	17.536
307.45	19.032
307.82	17.411
308.19	18.102
308.55	17.260
308.92	16.971
309.29	17.107
309.65	17.285
310.02	16.702
310.38	17.849
310.75	17.001
311.12	17.195
311.48	17.241
311.85	17.086
312.22	17.378
312.58	16.424
312.95	17.212
313.31	15.049
313.68	16.736
314.05	18.836
314.41	16.985
314.78	16.213
315.14	16.485
315.51	15.757
315.87	17.228
316.24	15.492
316.61	14.912
316.97	16.634
317.34	15.753
317.70	17.017
318.07	15.399
318.43	15.753
318.80	16.870
319.16	16.008
319.53	15.947
319.89	17.238
320.26	16.400
320.62	17.063
320.99	16.667
321.35	16.465
321.72	18.789
322.08	16.486
322.45	17.313
322.81	16.570
323.18	17.245
323.54	16.419
323.91	16.132
324.27	16.444
324.64	15.377
325.00	15.600
325.37	16.924
325.73	16.517
326.10	16.417
326.46	15.681
326.83	17.343
327.19	14.432
327.56	14.373
327.92	15.748
328.29	16.238
328.65	16.114
329.01	15.162
329.38	15.356
329.74	15.512
330.11	15.740
330.47	16.162
330.84	15.441
331.20	15.574
331.56	15.505
331.93	14.907
332.29	15.262
332.66	16.195
333.02	16.088
333.38	16.441
333.75	16.667
334.11	16.192
334.48	15.705
334.84	15.533
335.20	15.909
335.57	15.413
335.93	14.375
336.29	15.659
336.66	15.780
337.02	15.294
337.38	16.019
337.75	15.062
338.11	14.861
338.47	14.457
338.84	15.949
339.20	14.862
339.56	16.515
339.93	14.545
340.29	14.674
340.65	15.152
341.02	15.096
341.38	15.214
341.74	15.000
342.11	15.197
342.47	14.978
342.83	15.068
343.20	15.498
343.56	14.575
343.92	14.825
344.28	14.881
344.65	15.219
345.01	15.067
345.37	13.465
345.73	14.890
346.10	15.004
346.46	14.746
346.82	15.486
347.19	14.035
347.55	14.450
347.91	14.159
348.27	15.283
348.63	14.967
349.00	13.673
349.36	13.629
349.72	14.034
350.08	13.614
350.45	14.402
350.81	13.810
351.17	14.749
351.53	12.940
351.89	14.604
352.26	14.444
352.62	15.156
352.98	13.857
353.34	14.955
353.70	13.912
354.07	13.952
354.43	13.651
354.79	13.757
355.15	13.248
355.51	14.229
355.87	14.612
356.24	14.088
356.60	14.034
356.96	14.722
357.32	13.900
357.68	15.118
358.04	13.381
358.40	14.410
358.77	14.319
359.13	12.628
359.49	13.961
359.85	12.460
360.21	12.440
360.57	14.630
360.93	15.231
361.29	13.757
361.66	12.307
362.02	14.403
362.38	13.916
362.74	13.318
363.10	12.953
363.46	12.693
363.82	13.001
364.18	13.363
364.54	14.042
364.90	14.589
365.26	13.529
365.62	13.587
365.98	12.929
366.35	13.754
366.71	13.594
367.07	12.819
367.43	13.643
367.79	13.704
368.15	14.440
368.51	13.445
368.87	12.919
369.23	12.948
369.59	13.541
369.95	12.721
370.31	14.316
370.67	13.696
371.03	14.307
371.39	13.338
371.75	13.750
372.11	12.162
372.47	14.150
372.83	14.337
373.19	13.078
373.55	13.452
373.91	13.991
374.27	12.302
374.63	12.291
374.99	13.489
375.35	12.631
375.71	12.817
376.07	13.237
376.42	12.861
376.78	13.850
377.14	12.483
377.50	12.252
377.86	12.500
378.22	13.338
378.58	11.779
378.94	12.822
379.30	12.150
379.66	12.817
380.02	13.145
380.38	11.900
380.74	12.785
381.09	12.958
381.45	13.337
381.81	13.636
382.17	13.439
382.53	12.579
382.89	13.272
383.25	12.633
383.61	13.197
383.97	13.571
384.32	12.102
384.68	12.268
385.04	12.354
385.40	12.260
385.76	12.101
386.12	12.953
386.48	12.587
386.83	13.149
387.19	13.544
387.55	13.173
387.91	12.334
388.27	12.998
388.62	12.969
388.98	12.654
389.34	12.891
389.70	12.753
390.06	13.181
390.42	13.035
390.77	12.913
391.13	13.274
391.49	12.754
391.85	13.049
392.20	12.114
392.56	13.194
392.92	12.301
393.28	11.716
393.64	12.770
393.99	12.645
394.35	12.159
394.71	11.982
395.07	12.399
395.42	11.928
395.78	12.277
396.14	12.725
396.50	13.471
396.85	13.287
397.21	12.145
397.57	12.709
397.92	13.221
398.28	11.715
398.64	12.366
399.00	12.759
399.35	11.732
399.71	12.153
400.07	11.886
400.42	12.822
400.78	12.425
401.14	12.073
401.49	12.060
401.85	12.281
402.21	12.635
402.57	11.906
402.92	12.484
403.28	12.929
403.63	12.252
403.99	12.166
404.35	12.727
404.70	12.050
405.06	12.871
405.42	12.477
405.77	12.057
406.13	12.246
406.49	13.069
406.84	13.172
407.20	11.879
407.55	13.019
407.91	13.000
408.27	11.934
408.62	11.981
408.98	12.377
409.34	12.362
409.69	12.774
410.05	12.206
410.40	12.416
410.76	12.664
411.11	12.545
411.47	11.885
411.83	12.156
412.18	11.998
412.54	12.578
412.89	13.434
413.25	12.102
413.60	12.971
413.96	12.083
414.31	11.908
414.67	13.308
415.03	12.649
415.38	12.500
415.74	12.347
416.09	12.476
416.45	12.383
416.80	11.963
417.16	13.070
417.51	12.873
417.87	11.753
418.22	13.186
418.58	12.653
418.93	12.162
419.29	13.240
419.64	13.098
420.00	13.110
420.35	12.580
420.71	12.791
421.06	12.470
421.42	12.690
421.77	12.892
422.12	11.510
422.48	12.412
422.83	12.638
423.19	12.597
423.54	12.130
423.90	12.812
424.25	12.954
424.61	12.738
424.96	12.420
425.31	12.680
425.67	12.472
426.02	12.743
426.38	13.187
426.73	12.288
427.09	12.948
427.44	11.328
427.79	13.399
428.15	12.381
428.50	12.756
428.85	14.064
429.21	12.866
429.56	12.234
429.92	12.179
430.27	12.314
430.62	11.828
430.98	12.247
431.33	12.010
431.68	12.356
432.04	12.620
432.39	12.336
432.74	12.986
433.10	12.564
433.45	12.420
433.80	12.251
434.16	12.286
434.51	12.421
434.86	12.999
435.22	11.895
435.57	11.854
435.92	12.815
436.28	13.405
436.63	13.245
436.98	12.879
437.34	13.357
437.69	12.894
438.04	12.423
438.39	12.478
438.75	12.899
439.10	13.408
439.45	13.105
439.81	11.964
440.16	11.858
440.51	12.712
440.86	12.565
441.22	12.792
441.57	12.686
441.92	12.590
442.27	12.433
442.63	12.480
442.98	12.732
443.33	12.337
443.68	12.803
444.03	12.299
444.39	11.636
444.74	12.229
445.09	12.291
445.44	12.849
445.79	12.766
446.15	12.864
446.50	12.278
446.85	12.179
447.20	12.800
447.55	12.284
447.91	12.852
448.26	12.743
448.61	12.663
448.96	13.234
449.31	13.273
449.66	13.112
450.02	12.646
450.37	12.528
450.72	12.916
451.07	13.406
451.42	13.252
451.77	13.506
452.12	12.471
452.47	13.371
452.83	12.471
453.18	12.714
453.53	13.173
453.88	12.581
454.23	12.791
454.58	13.204
454.93	13.541
455.28	13.716
455.63	13.289
455.98	13.452
456.34	13.065
456.69	13.525
457.04	13.437
457.39	13.150
457.74	12.768
458.09	13.629
458.44	13.341
458.79	12.961
459.14	13.205
459.49	13.252
459.84	12.909
460.19	12.080
460.54	12.442
460.89	12.397
461.24	13.236
461.59	14.120
461.94	13.132
462.29	13.591
462.64	13.529
462.99	13.338
463.34	13.533
463.69	13.759
464.04	13.623
464.39	13.565
464.74	13.131
465.09	13.329
465.44	12.964
465.79	12.192
466.14	13.027
466.49	12.570
466.84	13.835
467.19	13.760
467.54	13.188
467.89	13.565
468.24	13.613
468.59	13.858
468.94	13.195
469.29	14.332
469.64	14.056
469.99	14.344
470.34	12.682
470.68	14.224
471.03	14.218
471.38	13.899
471.73	13.857
472.08	14.474
472.43	13.379
472.78	14.154
473.13	13.992
473.48	14.357
473.83	13.963
474.17	13.690
474.52	14.516
474.87	14.711
475.22	12.943
475.57	13.380
475.92	13.808
476.27	13.585
476.61	13.072
476.96	13.139
477.31	13.396
477.66	13.293
478.01	13.225
478.36	13.696
478.70	13.032
479.05	13.206
479.40	13.818
479.75	13.015
480.10	12.873
480.45	13.422
480.79	12.852
481.14	12.916
481.49	12.957
481.84	12.574
482.19	13.176
482.53	13.624
482.88	13.262
483.23	12.477
483.58	12.830
483.92	13.355
484.27	12.462
484.62	12.931
484.97	12.259
485.31	12.295
485.66	11.259
486.01	10.630
486.36	10.151
486.70	10.414
487.05	10.600
487.40	10.623
487.75	11.090
488.09	11.101
488.44	11.174
488.79	11.863
489.13	11.727
489.48	11.868
489.83	12.603
490.17	12.933
490.52	12.888
490.87	12.981
491.22	13.279
491.56	12.847
491.91	13.076
492.26	13.183
492.60	13.226
492.95	13.003
493.30	12.570
493.64	13.206
493.99	13.278
494.34	13.136
494.68	13.187
495.03	13.393
495.37	13.402
495.72	13.840
496.07	13.271
496.41	13.009
496.76	13.061
497.11	12.517
497.45	13.414
497.80	12.908
498.14	13.092
498.49	13.220
498.84	13.471
499.18	13.190
499.53	13.010
499.87	13.187
500.22	13.613
500.56	13.592
500.91	13.173
501.26	14.130
501.60	13.811
501.95	13.245
502.29	14.339
502.64	14.060
502.98	13.558
503.33	12.980
503.67	13.643
504.02	13.377
504.36	13.524
504.71	13.092
505.06	13.735
505.40	13.612
505.75	13.018
506.09	13.654
506.44	14.011
506.78	14.369
507.13	14.437
507.47	14.747
507.82	14.640
508.16	13.880
508.51	14.561
508.85	13.307
509.19	14.490
509.54	13.980
509.88	13.704
510.23	14.242
510.57	14.293
510.92	14.190
511.26	14.132
511.61	14.627
511.95	13.935
512.30	13.574
512.64	14.025
512.98	14.737
513.33	14.561
513.67	14.514
514.02	13.853
514.36	14.200
514.70	15.163
515.05	14.334
515.39	15.031
515.74	15.090
516.08	14.925
516.42	15.372
516.77	15.719
517.11	14.817
517.46	15.858
517.80	14.866
518.14	14.244
518.49	15.169
518.83	15.795
519.17	15.878
519.52	15.507
519.86	15.060
520.20	15.549
520.55	15.799
520.89	16.119
521.23	15.862
521.58	15.306
521.92	15.983
522.26	15.619
522.61	15.327
522.95	15.777
523.29	15.277
523.64	16.341
523.98	15.280
524.32	15.380
524.66	15.995
525.01	15.993
525.35	15.428
525.69	15.764
526.04	15.701
526.38	16.656
526.72	16.196
527.06	16.698
527.41	15.408
527.75	16.656
528.09	15.543
528.43	15.360
528.78	16.411
529.12	15.636
529.46	15.860
529.80	16.460
530.15	16.573
530.49	15.877
530.83	16.266
531.17	16.449
531.51	17.380
531.86	16.129
532.20	17.080
532.54	17.745
532.88	16.239
533.22	15.615
533.57	16.235
533.91	16.195
534.25	16.160
534.59	15.619
534.93	16.181
535.27	15.872
535.62	16.361
535.96	16.259
536.30	15.512
536.64	15.776
536.98	16.589
537.32	16.722
537.66	16.867
538.01	16.919
538.35	16.807
538.69	17.613
539.03	15.400
539.37	15.783
539.71	14.906
540.05	15.294
540.39	16.213
540.73	15.006
541.07	16.742
541.42	16.960
541.76	16.387
542.10	15.718
542.44	15.232
542.78	17.523
543.12	15.611
543.46	16.066
543.80	16.070
544.14	15.404
544.48	16.254
544.82	15.330
545.16	15.810
545.50	16.710
545.84	16.196
546.18	16.229
546.52	15.760
546.86	15.808
547.20	17.262
547.54	15.698
547.88	16.582
548.22	15.816
548.56	16.478
548.90	15.877
549.24	14.815
549.58	17.326
549.92	16.690
550.26	17.116
550.60	16.252
550.94	16.338
551.28	16.459
551.62	16.607
551.96	16.632
552.30	17.611
552.64	17.512
552.98	16.542
553.32	17.330
553.66	17.314
554.00	16.472
554.34	16.632
554.68	17.239
555.02	16.361
555.36	17.258
555.69	16.306
556.03	16.420
556.37	17.462
556.71	16.849
557.05	16.176
557.39	17.215
557.73	16.937
558.07	16.534
558.41	17.149
558.75	17.708
559.08	17.301
559.42	17.460
559.76	17.132
560.10	16.916
560.44	17.121
560.78	15.569
561.12	16.491
561.45	17.405
561.79	15.491
562.13	16.968
562.47	16.735
562.81	16.109
563.15	16.722
563.48	17.308
563.82	16.569
564.16	16.678
564.50	15.365
564.84	16.056
565.17	15.959
565.51	15.399
565.85	16.371
566.19	15.529
566.52	16.276
566.86	15.009
567.20	16.863
567.54	15.868
567.88	14.938
568.21	15.767
568.55	15.217
568.89	14.689
569.23	14.617
569.56	14.211
569.90	13.736
570.24	13.563
570.57	13.159
570.91	12.864
571.25	12.786
571.59	12.754
571.92	12.500
572.26	12.421
572.60	12.583
572.93	12.654
573.27	12.659
573.61	12.702
573.95	12.739
574.28	12.186
574.62	12.002
574.96	11.732
575.29	11.494
575.63	11.890
575.97	11.507
576.30	12.374
576.64	11.827
576.98	12.178
577.31	11.784
577.65	11.726
577.98	11.801
578.32	11.398
578.66	11.635
578.99	12.098
579.33	11.910
579.67	11.433
580.00	11.940
580.34	11.723
580.67	11.794
581.01	11.941
581.35	11.720
581.68	11.624
582.02	11.737
582.35	11.175
582.69	11.579
583.02	11.592
583.36	11.667
583.70	12.013
584.03	11.808
584.37	12.200
584.70	11.520
585.04	12.158
585.37	12.069
585.71	12.218
586.04	12.129
586.38	12.121
586.72	12.593
587.05	12.008
587.39	11.979
587.72	12.342
588.06	12.140
588.39	11.989
588.73	12.232
589.06	12.527
589.40	12.896
589.73	12.636
590.07	13.167
590.40	12.569
590.73	13.271
591.07	13.716
591.40	13.834
591.74	13.723
592.07	14.136
592.41	13.931
592.74	13.146
593.08	14.024
593.41	12.876
593.75	12.617
594.08	13.007
594.41	13.220
594.75	13.530
595.08	12.777
595.42	12.960
595.75	13.212
596.09	13.368
596.42	13.792
596.75	13.339
597.09	14.502
597.42	13.702
597.75	13.627
598.09	14.435
598.42	13.488
598.76	13.944
599.09	13.113
599.42	13.137
599.76	12.958
600.09	13.151
600.42	13.733
600.76	12.929
601.09	13.406
601.42	13.128
601.76	13.510
602.09	13.636
602.42	13.575
602.76	13.664
603.09	13.729
603.42	13.940
603.76	12.919
604.09	13.067
604.42	13.453
604.76	14.424
605.09	13.849
605.42	12.869
605.75	13.576
606.09	12.851
606.42	13.036
606.75	13.604
607.09	13.771
607.42	13.778
607.75	13.333
608.08	13.504
608.42	13.985
608.75	14.022
609.08	14.015
609.41	14.707
609.75	14.197
610.08	14.279
610.41	13.966
610.74	14.144
611.07	14.377
611.41	14.868
611.74	14.580
612.07	15.166
612.40	14.533
612.73	14.579
613.07	14.763
613.40	15.113
613.73	13.634
614.06	14.892
614.39	14.263
614.72	14.579
615.06	15.231
615.39	14.490
615.72	14.264
616.05	14.248
616.38	14.842
616.71	15.321
617.05	15.901
617.38	15.574
617.71	13.994
618.04	16.046
618.37	15.139
618.70	15.744
619.03	16.382
619.36	15.886
619.69	16.831
620.03	16.209
620.36	15.976
620.69	16.301
621.02	16.224
621.35	16.758
621.68	16.667
622.01	16.099
622.34	16.339
622.67	17.414
623.00	16.508
623.33	15.726
623.66	16.869
623.99	16.053
624.32	16.262
624.65	16.314
624.99	15.864
625.32	16.148
625.65	16.679
625.98	17.294
626.31	16.641
626.64	17.633
626.97	18.620
627.30	16.625
627.63	18.622
627.96	17.578
628.29	17.848
628.62	19.671
628.95	19.623
629.28	18.157
629.61	19.248
629.94	17.333
630.26	18.398
630.59	18.398
630.92	17.912
631.25	18.460
631.58	19.119
631.91	19.168
632.24	18.987
632.57	19.937
632.90	20.943
633.23	19.463
633.56	20.452
633.89	19.253
634.22	19.864
634.55	20.473
634.88	19.880
635.20	21.864
635.53	21.807
635.86	20.173
636.19	19.294
636.52	20.646
636.85	20.275
637.18	18.548
637.51	19.858
637.83	19.729
638.16	21.228
638.49	20.781
638.82	21.113
639.15	21.375
639.48	20.324
639.81	20.643
640.13	22.526
640.46	21.611
640.79	22.325
641.12	22.421
641.45	22.486
641.77	22.828
642.10	22.222
642.43	22.222
642.76	22.755
643.09	22.699
643.41	23.369
643.74	21.296
644.07	23.018
644.40	24.693
644.73	25.197
645.05	24.406
645.38	21.959
645.71	23.349
646.04	23.090
646.36	26.043
646.69	25.753
647.02	24.830
647.35	25.601
647.67	23.894
648.00	25.366
648.33	23.432
648.66	23.182
648.98	23.838
649.31	21.375
649.64	23.019
649.96	22.802
650.29	24.803
650.62	21.845
650.94	23.663
651.27	23.986
651.60	23.295
651.92	24.121
652.25	22.638
652.58	24.143
652.90	24.961
653.23	21.880
653.56	23.150
653.88	24.406
654.21	22.749
654.54	22.607
654.86	23.053
655.19	20.811
655.52	12.493
655.84	10.574
656.17	12.584
656.49	16.826
656.82	16.271
657.15	11.949
657.47	8.970
657.80	6.794
658.13	6.747
658.45	10.277
658.78	10.279
659.10	10.518
659.43	11.572
659.75	12.238
660.08	14.241
660.41	16.760
660.73	20.330
661.06	21.656
661.38	26.364
661.71	25.192
662.03	27.416
662.36	25.249
662.68	25.502
663.01	24.444
663.33	25.053
663.66	27.101
663.98	28.510
664.31	26.471
664.63	25.101
664.96	26.761
665.28	27.459
665.61	24.951
665.93	25.956
666.26	25.152
666.58	25.732
666.91	29.810
667.23	27.416
667.56	25.270
667.88	26.709
668.21	27.292
668.53	26.030
668.86	26.623
669.18	28.998
669.50	25.217
669.83	28.540
670.15	25.111
670.48	26.144
670.80	26.724
671.13	27.389
671.45	24.255
671.77	26.069
672.10	24.584
672.42	24.205
672.75	23.715
673.07	24.120
673.39	21.881
673.72	21.289
674.04	25.686
674.37	24.466
674.69	25.358
675.01	23.849
675.34	27.310
675.66	27.368
675.98	27.902
676.31	26.261
676.63	26.327
676.95	26.205
677.28	26.636
677.60	25.495
677.92	26.582
678.25	26.899
678.57	25.896
678.89	27.255
679.22	23.183
679.54	23.282
679.86	24.771
680.18	24.329
680.51	25.177
680.83	25.801
681.15	24.151
681.48	24.953
681.80	24.371
682.12	22.414
682.44	23.598
682.77	24.236
683.09	28.755
683.41	26.608
683.73	26.711
684.06	26.240
684.38	24.853
684.70	25.581
685.02	26.266
685.34	24.359
685.67	21.329
685.99	21.821
686.31	23.208
686.63	20.318
686.96	23.750
687.28	24.188
687.60	23.370
687.92	26.143
688.24	23.574
688.56	25.904
688.89	27.178
689.21	23.799
689.53	27.140
689.85	27.716
690.17	24.845
690.49	27.176
690.82	27.103
691.14	27.455
691.46	25.527
691.78	26.707
692.10	27.066
692.42	26.148
692.74	25.934
693.06	24.255
693.39	27.515
693.71	26.419
694.03	27.789
694.35	25.974
694.67	26.316
694.99	28.537
695.31	27.451
695.63	24.880
695.95	27.873
696.27	25.888
696.59	30.570
696.91	28.238
697.23	24.648
697.56	28.358
697.88	24.540
698.20	23.958
698.52	24.946
698.84	27.171
699.16	25.115
699.48	28.266
699.80	27.053
700.12	30.649
700.44	30.504
700.76	30.663
701.08	29.310
701.40	29.609
701.72	32.653
702.04	33.807
702.36	28.045
702.68	28.045
703.00	32.687
703.32	28.457
703.64	27.614
703.96	32.033
704.28	33.430
704.60	32.551
704.91	30.267
705.23	33.138
705.55	36.545
705.87	35.880
706.19	32.862
706.51	34.891
706.83	34.848
707.15	33.053
707.47	27.525
707.79	26.290
708.11	25.571
708.43	24.048
708.74	24.490
709.06	28.052
709.38	30.184
709.70	31.977
710.02	28.190
710.34	29.697
710.66	32.239
710.98	30.682
711.29	30.523
711.61	36.283
711.93	30.128
712.25	35.691
712.57	34.559
712.89	33.564
713.20	33.435
713.52	39.145
713.84	32.595
714.16	30.183
714.48	31.322
714.80	34.347
715.11	31.700
715.43	29.377
715.75	31.304
716.07	33.227
716.39	32.288
716.70	35.216
717.02	32.734
717.34	32.155
717.66	35.075
717.97	38.247
718.29	37.037
718.61	34.672
718.93	32.721
719.24	32.526
719.56	33.220
719.88	35.593
720.20	32.095
720.51	35.540
720.83	37.918
721.15	29.851
721.46	36.525
721.78	34.050
722.10	37.736
722.42	35.714
722.73	35.581
723.05	39.344
723.37	35.628
723.68	36.680
724.00	29.675
724.32	36.290
724.63	35.772
724.95	37.657
725.27	32.389
725.58	37.109
725.90	39.051
726.22	36.604
726.53	32.639
726.85	33.447
727.16	33.096
727.48	34.397
727.80	31.439
728.11	35.870
728.43	34.231
728.74	32.975
729.06	35.036
729.38	38.603
729.69	34.875
730.01	30.034
730.32	30.208
730.64	32.107
730.96	31.023
731.27	32.119
731.59	30.887
731.90	30.029
732.22	29.503
732.53	31.889
732.85	28.846
733.16	33.762
733.48	31.229
733.80	32.792
734.11	34.395
734.43	31.953
734.74	29.714
735.06	26.934
735.37	30.347
735.69	32.803
736.00	32.680
736.32	33.022
736.63	32.907
736.95	30.671
737.26	26.871
737.58	27.419
737.89	34.448
738.21	33.106
738.52	33.929
738.83	33.208
739.15	30.769
739.46	35.036
739.78	32.639
740.09	32.000
740.41	34.194
740.72	32.056
741.04	35.185
741.35	38.333
741.66	39.556
741.98	37.264
742.29	40.670
742.61	45.690
742.92	41.629
743.23	40.171
743.55	34.800
743.86	39.474
744.18	44.248
744.49	44.498
744.80	44.131
745.12	45.000
745.43	40.529
745.74	43.243
746.06	42.661
746.37	39.910
746.68	38.914
747.00	43.519
747.31	40.000
747.62	36.283
747.94	39.207
748.25	35.745
748.56	46.256
748.88	42.574
749.19	46.000
749.50	36.744
749.82	36.179
750.13	35.510
750.44	33.212
750.75	32.632
751.07	36.013
751.38	36.237
751.69	34.296
752.01	35.338
752.32	29.242
752.63	32.270
752.94	37.705
753.26	38.800
753.57	32.114
753.88	39.063
754.19	31.786
754.51	36.111
754.82	35.018
755.13	34.340
755.44	35.714
755.75	32.482
756.07	32.624
756.38	29.927
756.69	30.872
757.00	33.234
757.31	30.564
757.63	26.608
757.94	27.882
758.25	29.167
758.56	23.704
758.87	28.226
759.18	31.212
759.50	30.408
759.81	31.464
760.12	28.750
760.43	27.507
760.74	30.435
761.05	30.508
761.36	28.342
761.67	28.693
761.99	29.814
762.30	27.778
762.61	31.298
762.92	36.719
763.23	34.454
763.54	38.000
763.85	35.547
764.16	37.692
764.47	33.840
764.78	30.035
765.10	27.848
765.41	29.794
765.72	29.940
766.03	29.781
766.34	29.333
766.65	38.298
766.96	35.897
767.27	41.624
767.58	42.708
767.89	50.000
768.20	45.402
768.51	42.132
768.82	43.119
769.13	34.553
769.44	36.842
769.75	37.768
770.06	30.275
770.37	36.652
770.68	41.204
770.99	37.778
771.30	29.918
771.61	39.462
771.92	37.705
772.23	41.597
772.54	39.487
772.85	45.026
773.16	45.745
773.47	46.196
773.78	48.731
774.09	46.429
774.39	47.953
774.70	46.296
775.01	56.522
775.32	57.516
775.63	53.289
775.94	46.043
776.25	53.543
776.56	58.955
776.87	56.557
777.18	53.906
777.48	58.779
777.79	54.545
778.10	60.000
778.41	62.500
778.72	51.095
779.03	51.007
779.34	53.020
779.65	49.324
779.95	43.558
780.26	53.595
780.57	55.172
780.88	58.594
781.19	53.383
781.50	51.351
781.80	45.283
782.11	44.633
782.42	48.101
782.73	47.239
783.04	52.027
783.34	50.704
783.65	65.068
783.96	53.731
784.27	44.056
784.57	46.043
784.88	58.333
785.19	63.492
785.50	62.264
785.81	56.716
786.11	55.738
786.42	59.690
786.73	57.522
787.04	65.094
787.34	65.179
787.65	61.000
787.96	72.072
788.26	57.025
788.57	65.254
788.88	57.851
789.19	56.250
789.49	62.121
789.80	60.305
790.11	78.095
790.41	86.139
790.72	63.855
791.03	70.652
791.33	74.419
791.64	71.134
791.95	77.228
792.25	78.889
792.56	84.416
792.87	91.026
793.17	101.266
793.48	79.310
793.79	74.713
794.09	70.455
794.40	60.504
794.70	56.618
795.01	54.074
795.32	56.835
795.62	57.480
795.93	61.207
796.23	65.487
796.54	77.647
796.85	68.919
797.15	108.451
797.46	87.879
797.76	83.133
798.07	93.671
798.37	100.000
798.68	96.970
798.99	83.099
799.29	84.416
799.60	70.455
799.90	95.890
800.21	94.030
800.51	106.897
800.82	121.053
801.12	93.443
801.43	101.515
801.73	93.243
802.04	114.286
802.34	100.000
802.65	107.812
802.95	120.339
803.26	112.500
803.56	80.000
803.87	96.923
804.17	91.176
804.48	111.111
804.78	98.276
805.09	92.647
805.39	94.231
805.70	116.071
806.00	100.000
806.30	84.848
806.61	85.366
806.91	72.152
807.22	93.421
807.52	79.104
807.83	80.282
808.13	90.625
808.43	93.333
808.74	86.842
809.04	97.101
809.35	97.015
809.65	89.474
809.95	101.613
810.26	93.220
810.56	101.587
810.86	129.545
811.17	133.333
811.47	120.000
811.77	116.667
812.08	107.273
812.38	122.000
812.69	158.333
812.99	147.727
813.29	112.245
813.59	126.190
813.90	138.776
814.20	103.636
814.50	95.385
814.81	111.765
815.11	151.020
815.41	127.869
815.72	154.762
816.02	123.636
816.32	135.714
816.62	140.000
816.93	146.341
817.23	173.810
817.53	131.818
817.84	203.030
818.14	126.087
818.44	124.444
818.74	200.000
819.04	145.000
819.35	145.714
819.65	164.706
819.95	214.286
820.25	260.000
820.56	166.667
820.86	120.455
821.16	158.140
821.46	153.846
821.76	150.000
822.07	157.143
822.37	185.000
822.67	166.667
822.97	117.647
823.27	232.143
823.57	154.054
823.88	165.000
824.18	206.667
824.48	166.667
824.78	188.000
825.08	208.333
825.38	175.676
825.69	129.268
825.99	266.667
826.29	189.655
826.59	155.263
826.89	213.158
827.19	202.941
827.49	170.968
827.79	134.091
828.09	129.545
828.39	131.915
828.70	142.857
829.00	170.370
829.30	161.290
829.60	157.500
829.90	320.000
830.20	210.714
830.50	208.696
830.80	217.391
831.10	206.667
831.40	193.333
831.70	217.391
832.00	238.462
832.30	218.519
832.60	393.750
832.90	260.000
833.20	435.714
833.50	209.677
833.80	206.897
834.10	203.125
834.40	246.154
834.70	272.222
835.00	333.333
835.30	168.571
835.60	407.692
835.90	189.655
836.20	364.286
836.50	179.310
836.80	192.000
837.10	163.889
837.40	276.190
837.70	294.118
838.00	211.111
838.30	228.571
838.60	280.952
838.90	253.846
839.19	290.000
839.49	350.000
839.79	370.000
840.09	305.000
840.39	280.952
840.69	252.174
840.99	283.333
841.29	600.000
841.59	466.667
841.88	406.250
842.18	172.414
842.48	300.000
842.78	226.667
843.08	252.174
843.38	212.500
843.68	1016.667
843.97	261.538
844.27	213.793
844.57	295.238
844.87	393.750
845.17	229.630
845.47	1966.667
845.76	500.000
846.06	329.412
846.36	650.000
846.66	350.000
846.96	306.250
847.25	454.545
847.55	518.182
847.85	239.130
848.15	560.000
848.44	392.857
848.74	283.333
849.04	358.824
849.34	670.000
849.63	268.421
849.93	481.818
850.23	1080.000
850.53	442.857
850.82	2300.000
851.12	-5200.000
851.42	4700.000
851.71	275.000
852.01	-1200.000
852.31	254.167
852.61	1700.000
852.90	285.714
853.20	240.000
853.50	335.294
853.79	309.524
854.09	237.500
854.39	381.250
854.68	175.676
854.98	200.000
855.28	176.667
855.57	227.586
855.87	270.370
856.17	257.895
856.46	273.333
856.76	294.118
857.05	210.345
857.35	254.167
857.65	326.667
857.94	239.130
858.24	219.231
858.53	340.000
858.83	290.909
859.13	433.333
859.42	0.000
859.72	666.667
860.01	436.364
860.31	236.364
860.60	294.737
860.90	234.783
861.20	500.000
861.49	541.667
861.79	-5200.000
862.08	675.000
862.38	314.286
862.67	376.923
862.97	376.471
863.26	555.556
863.56	311.111
863.85	458.333
864.15	625.000
864.44	340.000
864.74	1000.000
865.03	750.000
865.33	284.211
865.62	463.636
865.92	500.000
866.21	441.667
866.51	0.000
866.80	509.091
867.10	1140.000
867.39	446.154
867.69	536.364
867.98	331.579
868.27	463.636
868.57	315.789
868.86	-4500.000
869.16	356.250
869.45	2500.000
869.75	-3900.000
870.04	450.000
870.33	714.286
870.63	1200.000
870.92	2650.000
871.22	857.143
871.51	405.882
871.80	252.381
872.10	428.571
>>>>>End Processed Spectral Data<<<<<
