SpectraSuite Data File
++++++++++++++++++++++++++++++++++++
Date: Wed May 13 19:21:29 PDT 2015
User: schluterlab
Dark Spectrum Present: Yes
Reference Spectrum Present: Yes
Number of Sampled Component Spectra: 1
Spectrometers: USB2E3373
Integration Time (usec): 3000 (USB2E3373)
Spectra Averaged: 3 (USB2E3373)
Boxcar Smoothing: 0 (USB2E3373)
Correct for Electrical Dark: No (USB2E3373)
Strobe/Lamp Enabled: No (USB2E3373)
Correct for Detector Non-linearity: No (USB2E3373)
Correct for Stray Light: No (USB2E3373)
Number of Pixels in Processed Spectrum: 2048
>>>>>Begin Processed Spectral Data<<<<<
178.53	0.000
178.91	-1450.000
179.29	-1600.000
179.67	-311.111
180.04	-1575.000
180.42	2950.000
180.80	1140.000
181.18	-1475.000
181.56	728.571
181.94	0.000
182.31	-900.000
182.69	2133.333
183.07	-650.000
183.45	-533.333
183.83	536.364
184.20	-420.000
184.58	2350.000
184.96	6900.000
185.34	-1020.000
185.72	-762.500
186.09	-2500.000
186.47	2900.000
186.85	3250.000
187.23	6000.000
187.61	-1666.667
187.98	1600.000
188.36	572.727
188.74	600.000
189.12	-920.000
189.49	680.000
189.87	-5700.000
190.25	-1425.000
190.63	464.286
191.00	530.769
191.38	966.667
191.76	-1250.000
192.14	1450.000
192.51	625.000
192.89	1033.333
193.27	737.500
193.65	-1550.000
194.02	580.000
194.40	1020.000
194.78	630.000
195.15	566.667
195.53	700.000
195.91	-2750.000
196.29	450.000
196.66	410.526
197.04	-410.000
197.42	0.000
197.79	650.000
198.17	-5900.000
198.55	814.286
198.92	750.000
199.30	1020.000
199.68	0.000
200.05	394.444
200.43	771.429
200.81	5700.000
201.18	1900.000
201.56	-2033.333
201.94	655.556
202.31	577.778
202.69	483.333
203.07	580.000
203.44	0.000
203.82	1725.000
204.19	857.143
204.57	400.000
204.95	775.000
205.32	1700.000
205.70	518.182
206.08	507.143
206.45	2550.000
206.83	375.000
207.20	950.000
207.58	1060.000
207.96	350.000
208.33	875.000
208.71	-1050.000
209.08	814.286
209.46	611.111
209.84	545.455
210.21	-1666.667
210.59	1575.000
210.96	-675.000
211.34	3200.000
211.71	660.000
212.09	833.333
212.46	0.000
212.84	1800.000
213.22	1400.000
213.59	-5800.000
213.97	900.000
214.34	957.143
214.72	709.091
215.09	1200.000
215.47	-2750.000
215.84	-2950.000
216.22	2066.667
216.59	442.857
216.97	1375.000
217.34	563.636
217.72	-966.667
218.09	0.000
218.47	-6400.000
218.84	711.111
219.22	757.143
219.59	2000.000
219.97	-728.571
220.34	1140.000
220.72	-2100.000
221.09	492.857
221.47	1625.000
221.84	-1166.667
222.22	0.000
222.59	1450.000
222.97	-2250.000
223.34	1420.000
223.72	515.385
224.09	1200.000
224.46	2650.000
224.84	-5600.000
225.21	-1500.000
225.59	-6100.000
225.96	660.000
226.34	325.000
226.71	3450.000
227.08	812.500
227.46	630.000
227.83	-1150.000
228.21	-2800.000
228.58	777.778
228.95	-3400.000
229.33	-2400.000
229.70	2033.333
230.08	885.714
230.45	-1060.000
230.82	458.333
231.20	950.000
231.57	800.000
231.95	466.667
232.32	327.273
232.69	500.000
233.07	700.000
233.44	338.462
233.81	-1766.667
234.19	331.579
234.56	450.000
234.93	466.667
235.31	554.545
235.68	361.538
236.05	371.429
236.43	209.091
236.80	284.211
237.17	5500.000
237.55	261.905
237.92	232.143
238.29	314.286
238.67	203.226
239.04	220.690
239.41	208.333
239.79	154.348
240.16	180.952
240.53	143.182
240.91	143.137
241.28	148.000
241.65	130.000
242.02	113.043
242.40	127.419
242.77	126.667
243.14	95.699
243.51	96.629
243.89	103.529
244.26	95.556
244.63	83.871
245.00	79.787
245.38	80.198
245.75	69.159
246.12	73.394
246.49	75.912
246.87	83.200
247.24	86.154
247.61	64.286
247.98	72.549
248.36	66.216
248.73	61.783
249.10	65.605
249.47	63.277
249.84	65.775
250.22	58.289
250.59	56.805
250.96	62.121
251.33	57.346
251.70	61.881
252.08	61.905
252.45	54.260
252.82	50.435
253.19	57.447
253.56	53.725
253.94	54.357
254.31	54.297
254.68	54.615
255.05	49.446
255.42	55.285
255.79	53.676
256.16	50.903
256.54	49.470
256.91	51.957
257.28	44.964
257.65	45.215
258.02	51.242
258.39	46.057
258.76	44.482
259.14	48.512
259.51	47.416
259.88	48.758
260.25	46.828
260.62	43.353
260.99	44.099
261.36	47.748
261.73	47.851
262.10	43.023
262.47	47.042
262.85	44.568
263.22	42.450
263.59	44.160
263.96	45.330
264.33	40.470
264.70	44.211
265.07	44.757
265.44	41.162
265.81	39.416
266.18	44.472
266.55	43.902
266.92	44.963
267.29	43.981
267.66	41.972
268.03	40.682
268.40	41.822
268.77	40.095
269.14	40.991
269.51	42.212
269.88	42.657
270.25	42.438
270.62	38.876
270.99	40.860
271.36	38.841
271.73	42.056
272.10	38.043
272.47	42.151
272.84	40.476
273.21	40.461
273.58	39.520
273.95	39.413
274.32	38.636
274.69	41.756
275.06	38.780
275.43	42.340
275.80	37.475
276.17	40.530
276.54	40.541
276.91	40.711
277.28	37.500
277.65	39.072
278.02	38.923
278.39	36.914
278.76	37.818
279.13	38.868
279.50	37.989
279.87	34.462
280.23	43.912
280.60	37.718
280.97	36.229
281.34	39.292
281.71	38.182
282.08	38.964
282.45	36.909
282.82	36.767
283.19	36.185
283.56	36.667
283.92	36.887
284.29	36.332
284.66	36.298
285.03	35.986
285.40	36.092
285.77	34.343
286.14	34.542
286.51	35.333
286.87	37.436
287.24	35.831
287.61	35.152
287.98	35.552
288.35	34.707
288.72	32.399
289.08	33.333
289.45	34.596
289.82	34.309
290.19	32.025
290.56	33.691
290.93	32.477
291.29	34.202
291.66	32.006
292.03	33.285
292.40	33.480
292.77	29.142
293.13	33.582
293.50	31.195
293.87	31.259
294.24	31.852
294.60	30.277
294.97	31.395
295.34	31.876
295.71	30.824
296.08	28.917
296.44	30.124
296.81	28.005
297.18	31.707
297.55	25.726
297.91	28.892
298.28	29.853
298.65	29.373
299.02	30.303
299.38	27.092
299.75	27.224
300.12	27.203
300.48	27.250
300.85	27.004
301.22	28.917
301.59	25.000
301.95	26.952
302.32	27.343
302.69	27.121
303.05	26.182
303.42	26.173
303.79	26.727
304.15	24.942
304.52	24.797
304.89	26.597
305.25	25.638
305.62	27.067
305.99	26.800
306.35	25.503
306.72	26.345
307.09	25.305
307.45	25.788
307.82	24.554
308.19	25.828
308.55	25.135
308.92	25.134
309.29	23.654
309.65	24.496
310.02	23.890
310.38	26.129
310.75	25.871
311.12	24.360
311.48	23.929
311.85	25.891
312.22	25.390
312.58	24.220
312.95	25.554
313.31	24.466
313.68	24.844
314.05	26.923
314.41	25.327
314.78	25.579
315.14	25.422
315.51	25.335
315.87	25.545
316.24	25.720
316.61	25.634
316.97	25.930
317.34	23.483
317.70	26.769
318.07	26.179
318.43	27.495
318.80	26.617
319.16	27.684
319.53	25.328
319.89	28.000
320.26	27.800
320.62	27.579
320.99	25.657
321.35	27.374
321.72	28.747
322.08	26.950
322.45	29.453
322.81	28.295
323.18	28.805
323.54	28.757
323.91	29.057
324.27	29.446
324.64	28.052
325.00	28.494
325.37	30.118
325.73	29.892
326.10	29.832
326.46	29.570
326.83	30.371
327.19	30.572
327.56	31.098
327.92	30.096
328.29	32.209
328.65	31.492
329.01	31.949
329.38	32.562
329.74	31.210
330.11	33.365
330.47	32.599
330.84	32.537
331.20	32.240
331.56	31.651
331.93	32.130
332.29	30.701
332.66	33.363
333.02	31.901
333.38	32.611
333.75	32.531
334.11	33.541
334.48	31.500
334.84	33.456
335.20	32.727
335.57	32.820
335.93	32.143
336.29	31.410
336.66	31.470
337.02	31.584
337.38	33.611
337.75	31.462
338.11	31.782
338.47	32.320
338.84	33.639
339.20	32.018
339.56	33.942
339.93	32.182
340.29	32.790
340.65	31.462
341.02	33.595
341.38	32.829
341.74	32.368
342.11	32.052
342.47	32.335
342.83	31.164
343.20	31.948
343.56	32.182
343.92	32.632
344.28	32.398
344.65	33.534
345.01	31.397
345.37	30.446
345.73	32.149
346.10	32.310
346.46	32.542
346.82	31.796
347.19	31.997
347.55	30.870
347.91	32.686
348.27	31.553
348.63	32.776
349.00	30.906
349.36	31.363
349.72	31.355
350.08	31.199
350.45	31.082
350.81	30.707
351.17	32.091
351.53	31.368
351.89	30.776
352.26	31.413
352.62	31.836
352.98	32.010
353.34	32.621
353.70	30.442
354.07	31.855
354.43	30.397
354.79	30.732
355.15	30.407
355.51	33.173
355.87	31.592
356.24	30.863
356.60	30.954
356.96	32.261
357.32	31.235
357.68	31.339
358.04	31.116
358.40	32.304
358.77	30.282
359.13	31.097
359.49	31.608
359.85	30.397
360.21	32.297
360.57	31.829
360.93	31.615
361.29	31.066
361.66	30.728
362.02	30.821
362.38	30.798
362.74	31.771
363.10	30.348
363.46	31.548
363.82	31.519
364.18	30.617
364.54	32.764
364.90	30.878
365.26	30.735
365.62	31.775
365.98	31.118
366.35	31.805
366.71	31.815
367.07	31.755
367.43	31.785
367.79	31.977
368.15	31.466
368.51	32.049
368.87	31.906
369.23	31.748
369.59	32.802
369.95	32.426
370.31	32.051
370.67	31.014
371.03	31.910
371.39	32.434
371.75	33.015
372.11	32.148
372.47	33.431
372.83	33.141
373.19	31.431
373.55	31.559
373.91	32.769
374.27	31.753
374.63	32.073
374.99	31.709
375.35	32.519
375.71	32.694
376.07	31.276
376.42	32.669
376.78	33.333
377.14	32.157
377.50	32.384
377.86	31.250
378.22	32.048
378.58	31.203
378.94	32.244
379.30	31.552
379.66	32.234
380.02	32.310
380.38	31.876
380.74	32.713
381.09	32.090
381.45	33.251
381.81	32.678
382.17	32.739
382.53	32.138
382.89	32.716
383.25	32.770
383.61	32.776
383.97	33.333
384.32	31.441
384.68	32.404
385.04	32.575
385.40	32.198
385.76	31.880
386.12	33.873
386.48	33.480
386.83	34.766
387.19	33.643
387.55	33.395
387.91	33.555
388.27	32.373
388.62	33.805
388.98	32.862
389.34	33.917
389.70	33.476
390.06	34.601
390.42	33.917
390.77	33.270
391.13	33.823
391.49	34.137
391.85	33.546
392.20	32.871
392.56	32.955
392.92	33.843
393.28	33.314
393.64	34.412
393.99	34.331
394.35	33.127
394.71	33.061
395.07	32.773
395.42	34.054
395.78	34.733
396.14	34.823
396.50	35.213
396.85	35.346
397.21	34.032
397.57	34.780
397.92	33.654
398.28	33.520
398.64	35.783
399.00	34.807
399.35	34.179
399.71	35.069
400.07	34.063
400.42	35.031
400.78	35.283
401.14	35.183
401.49	34.925
401.85	34.543
402.21	34.731
402.57	34.608
402.92	35.372
403.28	35.978
403.63	34.963
403.99	35.096
404.35	34.121
404.70	35.791
405.06	35.469
405.42	35.745
405.77	34.571
406.13	34.142
406.49	34.891
406.84	34.259
407.20	34.870
407.55	35.865
407.91	36.533
408.27	35.290
408.62	35.039
408.98	35.172
409.34	35.732
409.69	36.258
410.05	35.130
410.40	35.657
410.76	35.962
411.11	35.525
411.47	35.335
411.83	35.797
412.18	35.374
412.54	36.488
412.89	36.084
413.25	35.065
413.60	36.319
413.96	35.519
414.31	35.662
414.67	37.009
415.03	36.424
415.38	36.598
415.74	36.592
416.09	36.773
416.45	37.216
416.80	37.409
417.16	36.595
417.51	36.629
417.87	36.673
418.22	37.161
418.58	37.573
418.93	37.039
419.29	36.919
419.64	36.839
420.00	36.829
420.35	37.391
420.71	37.179
421.06	37.291
421.42	37.485
421.77	37.612
422.12	36.946
422.48	36.589
422.83	37.857
423.19	36.740
423.54	36.564
423.90	37.623
424.25	37.409
424.61	36.845
424.96	38.659
425.31	37.929
425.67	36.292
426.02	36.343
426.38	39.438
426.73	37.683
427.09	37.994
427.44	37.378
427.79	38.643
428.15	37.679
428.50	37.683
428.85	38.915
429.21	38.377
429.56	37.895
429.92	37.695
430.27	37.488
430.62	37.276
430.98	37.727
431.33	37.577
431.68	38.429
432.04	38.818
432.39	39.692
432.74	39.138
433.10	39.219
433.45	38.776
433.80	38.359
434.16	38.034
434.51	37.526
434.86	38.426
435.22	38.911
435.57	39.088
435.92	39.029
436.28	39.265
436.63	39.625
436.98	39.782
437.34	38.760
437.69	39.265
438.04	39.404
438.39	39.284
438.75	38.931
439.10	39.777
439.45	39.315
439.81	39.396
440.16	39.187
440.51	40.305
440.86	39.606
441.22	38.821
441.57	39.968
441.92	41.044
442.27	40.527
442.63	39.389
442.98	41.408
443.33	39.565
443.68	39.184
444.03	39.580
444.39	38.997
444.74	39.556
445.09	39.030
445.44	39.420
445.79	39.386
446.15	38.857
446.50	40.388
446.85	39.928
447.20	40.184
447.55	40.983
447.91	40.044
448.26	39.733
448.61	39.457
448.96	40.753
449.31	40.551
449.66	40.405
450.02	39.164
450.37	39.739
450.72	39.932
451.07	40.158
451.42	40.608
451.77	40.223
452.12	39.550
452.47	39.739
452.83	41.200
453.18	41.015
453.53	40.754
453.88	40.874
454.23	40.765
454.58	40.400
454.93	41.195
455.28	39.900
455.63	41.323
455.98	42.024
456.34	41.018
456.69	41.327
457.04	41.362
457.39	39.509
457.74	40.859
458.09	40.713
458.44	40.992
458.79	39.100
459.14	40.632
459.49	40.747
459.84	40.942
460.19	39.776
460.54	40.162
460.89	40.099
461.24	41.105
461.59	41.313
461.94	40.321
462.29	40.772
462.64	40.587
462.99	39.558
463.34	41.867
463.69	41.151
464.04	40.696
464.39	40.812
464.74	41.592
465.09	39.867
465.44	39.668
465.79	38.758
466.14	40.066
466.49	39.488
466.84	41.097
467.19	40.072
467.54	41.562
467.89	40.096
468.24	41.187
468.59	41.087
468.94	39.035
469.29	41.324
469.64	42.436
469.99	41.407
470.34	41.083
470.68	42.170
471.03	40.408
471.38	41.487
471.73	40.973
472.08	41.250
472.43	40.766
472.78	40.421
473.13	41.271
473.48	41.011
473.83	40.854
474.17	40.386
474.52	41.005
474.87	40.572
475.22	39.466
475.57	40.032
475.92	40.361
476.27	40.755
476.61	40.154
476.96	39.252
477.31	39.717
477.66	40.263
478.01	39.310
478.36	40.137
478.70	39.979
479.05	39.084
479.40	39.969
479.75	39.756
480.10	38.917
480.45	38.601
480.79	38.509
481.14	39.188
481.49	39.867
481.84	39.140
482.19	39.482
482.53	39.037
482.88	38.995
483.23	39.860
483.58	39.308
483.92	39.456
484.27	38.039
484.62	39.009
484.97	38.392
485.31	38.904
485.66	37.119
486.01	36.183
486.36	35.208
486.70	34.517
487.05	35.589
487.40	36.389
487.75	37.212
488.09	38.247
488.44	38.359
488.79	39.349
489.13	39.152
489.48	39.641
489.83	38.412
490.17	39.281
490.52	37.600
490.87	38.942
491.22	38.518
491.56	37.631
491.91	38.018
492.26	38.953
492.60	38.295
492.95	36.997
493.30	37.850
493.64	38.731
493.99	37.790
494.34	37.928
494.68	38.690
495.03	38.299
495.37	37.645
495.72	38.596
496.07	38.422
496.41	37.832
496.76	37.467
497.11	37.371
497.45	37.401
497.80	39.012
498.14	38.551
498.49	38.829
498.84	38.159
499.18	38.429
499.53	38.034
499.87	38.164
500.22	37.259
500.56	38.204
500.91	38.125
501.26	37.506
501.60	39.298
501.95	37.397
502.29	39.035
502.64	37.430
502.98	36.699
503.33	37.431
503.67	37.262
504.02	37.933
504.36	36.640
504.71	37.274
505.06	37.831
505.40	38.551
505.75	37.223
506.09	37.755
506.44	38.530
506.78	36.922
507.13	37.860
507.47	37.071
507.82	37.943
508.16	37.893
508.51	38.610
508.85	37.637
509.19	37.602
509.54	37.143
509.88	37.609
510.23	36.967
510.57	39.061
510.92	38.322
511.26	37.102
511.61	37.604
511.95	36.743
512.30	36.585
512.64	38.152
512.98	36.924
513.33	38.276
513.67	36.713
514.02	37.121
514.36	37.794
514.70	37.631
515.05	37.758
515.39	37.185
515.74	36.543
516.08	37.060
516.42	38.013
516.77	38.629
517.11	36.792
517.46	36.625
517.80	37.689
518.14	36.422
518.49	38.273
518.83	36.477
519.17	36.663
519.52	37.804
519.86	37.935
520.20	38.382
520.55	38.420
520.89	37.348
521.23	38.480
521.58	36.975
521.92	37.355
522.26	36.913
522.61	37.944
522.95	37.017
523.29	37.066
523.64	36.585
523.98	37.585
524.32	37.817
524.66	37.703
525.01	37.561
525.35	37.856
525.69	36.392
526.04	38.816
526.38	37.218
526.72	37.730
527.06	38.418
527.41	36.262
527.75	37.814
528.09	37.123
528.43	37.094
528.78	37.185
529.12	36.364
529.46	37.906
529.80	37.252
530.15	36.947
530.49	36.431
530.83	37.278
531.17	37.924
531.51	36.706
531.86	36.839
532.20	35.919
532.54	37.540
532.88	37.291
533.22	36.227
533.57	36.728
533.91	35.882
534.25	37.060
534.59	36.852
534.93	36.169
535.27	36.753
535.62	36.264
535.96	36.221
536.30	35.601
536.64	36.252
536.98	36.762
537.32	36.076
537.66	37.267
538.01	36.932
538.35	36.458
538.69	36.758
539.03	36.322
539.37	35.847
539.71	36.293
540.05	36.471
540.39	36.412
540.73	35.640
541.07	35.626
541.42	37.052
541.76	37.226
542.10	36.999
542.44	36.821
542.78	36.166
543.12	36.148
543.46	36.197
543.80	36.304
544.14	35.109
544.48	35.683
544.82	35.407
545.16	37.085
545.50	35.154
545.84	36.290
546.18	36.633
546.52	36.614
546.86	37.045
547.20	36.345
547.54	35.404
547.88	35.842
548.22	36.115
548.56	35.346
548.90	34.891
549.24	35.623
549.58	35.539
549.92	36.264
550.26	37.216
550.60	35.270
550.94	35.423
551.28	35.845
551.62	36.880
551.96	34.737
552.30	35.700
552.64	36.579
552.98	36.203
553.32	35.199
553.66	36.196
554.00	36.102
554.34	35.680
554.68	35.908
555.02	35.261
555.36	35.630
555.69	35.115
556.03	34.791
556.37	36.357
556.71	35.880
557.05	35.784
557.39	34.640
557.73	34.510
558.07	36.476
558.41	35.311
558.75	36.885
559.08	35.645
559.42	36.130
559.76	35.588
560.10	35.475
560.44	35.430
560.78	33.999
561.12	34.235
561.45	35.137
561.79	33.619
562.13	33.736
562.47	34.426
562.81	35.565
563.15	33.779
563.48	34.284
563.82	34.116
564.16	34.532
564.50	33.138
564.84	33.123
565.17	33.012
565.51	34.121
565.85	34.454
566.19	33.500
566.52	33.882
566.86	33.514
567.20	34.965
567.54	33.733
567.88	33.134
568.21	33.069
568.55	32.811
568.89	32.782
569.23	31.640
569.56	31.741
569.90	32.189
570.24	31.145
570.57	30.058
570.91	29.670
571.25	30.451
571.59	30.162
571.92	29.781
572.26	30.243
572.60	30.631
572.93	30.045
573.27	30.435
573.61	30.039
573.95	30.129
574.28	29.648
574.62	29.397
574.96	28.937
575.29	29.316
575.63	29.776
575.97	29.940
576.30	29.421
576.64	29.164
576.98	29.533
577.31	29.321
577.65	29.729
577.98	29.091
578.32	28.396
578.66	29.224
578.99	29.628
579.33	29.024
579.67	28.801
580.00	29.513
580.34	29.497
580.67	29.355
581.01	29.166
581.35	28.615
581.68	28.324
582.02	28.162
582.35	28.228
582.69	28.709
583.02	28.814
583.36	29.191
583.70	29.296
584.03	29.363
584.37	29.776
584.70	29.232
585.04	28.889
585.37	29.101
585.71	29.511
586.04	28.823
586.38	29.441
586.72	29.577
587.05	28.987
587.39	28.865
587.72	29.657
588.06	29.136
588.39	29.218
588.73	29.657
589.06	29.760
589.40	30.202
589.73	30.060
590.07	29.858
590.40	29.156
590.73	29.938
591.07	30.973
591.40	31.168
591.74	30.693
592.07	30.410
592.41	30.136
592.74	28.914
593.08	28.881
593.41	29.421
593.75	28.482
594.08	28.327
594.41	29.410
594.75	28.946
595.08	28.776
595.42	29.492
595.75	29.345
596.09	29.591
596.42	29.745
596.75	29.886
597.09	30.606
597.42	28.331
597.75	29.323
598.09	29.565
598.42	29.338
598.76	29.064
599.09	28.962
599.42	28.384
599.76	29.100
600.09	28.634
600.42	28.671
600.76	28.179
601.09	29.035
601.42	28.387
601.76	28.805
602.09	28.696
602.42	29.936
602.76	29.585
603.09	28.718
603.42	29.207
603.76	28.316
604.09	28.383
604.42	29.066
604.76	29.650
605.09	29.096
605.42	29.029
605.75	28.974
606.09	28.874
606.42	28.280
606.75	27.997
607.09	28.841
607.42	28.241
607.75	28.059
608.08	28.702
608.42	29.180
608.75	28.674
609.08	28.307
609.41	29.557
609.75	28.490
610.08	29.783
610.41	28.399
610.74	27.956
611.07	28.854
611.41	30.029
611.74	29.110
612.07	29.555
612.40	29.591
612.73	28.526
613.07	30.065
613.40	29.489
613.73	28.317
614.06	28.925
614.39	28.369
614.72	28.526
615.06	29.149
615.39	28.769
615.72	28.732
616.05	28.549
616.38	29.572
616.71	29.691
617.05	29.976
617.38	29.886
617.71	30.330
618.04	29.507
618.37	29.450
618.70	29.869
619.03	30.987
619.36	30.210
619.69	30.634
620.03	30.082
620.36	29.612
620.69	30.479
621.02	31.047
621.35	29.679
621.68	30.919
622.01	30.650
622.34	30.560
622.67	30.038
623.00	29.274
623.33	29.521
623.66	29.450
623.99	29.676
624.32	29.458
624.65	29.520
624.99	28.683
625.32	29.689
625.65	30.879
625.98	31.130
626.31	30.016
626.64	30.449
626.97	30.424
627.30	30.175
627.63	30.845
627.96	30.698
628.29	31.671
628.62	31.930
628.95	31.038
629.28	31.296
629.61	30.797
629.94	32.286
630.26	30.887
630.59	29.838
630.92	31.034
631.25	31.787
631.58	30.831
631.91	30.933
632.24	30.169
632.57	31.794
632.90	32.566
633.23	32.103
633.56	33.333
633.89	32.503
634.22	32.350
634.55	33.373
634.88	31.257
635.20	33.333
635.53	34.578
635.86	32.550
636.19	31.412
636.52	32.641
636.85	31.615
637.18	30.760
637.51	33.924
637.83	30.456
638.16	31.841
638.49	32.494
638.82	34.008
639.15	32.375
639.48	33.541
639.81	33.780
640.13	33.854
640.46	34.228
640.79	31.836
641.12	32.462
641.45	32.821
641.77	34.168
642.10	34.795
642.43	32.432
642.76	35.294
643.09	35.583
643.41	33.384
643.74	36.265
644.07	32.927
644.40	32.669
644.73	35.118
645.05	37.876
645.38	33.807
645.71	36.232
646.04	34.385
646.36	36.227
646.69	35.619
647.02	35.544
647.35	34.364
647.67	33.097
648.00	34.146
648.33	34.158
648.66	32.727
648.98	34.933
649.31	32.436
649.64	32.436
649.96	33.979
650.29	33.491
650.62	33.172
650.94	35.170
651.27	36.655
651.60	35.441
651.92	35.942
652.25	32.736
652.58	33.178
652.90	34.597
653.23	33.744
653.56	33.386
653.88	33.281
654.21	35.229
654.54	33.168
654.86	34.735
655.19	31.081
655.52	22.176
655.84	19.291
656.17	25.117
656.49	34.366
656.82	35.732
657.15	27.307
657.47	20.596
657.80	15.837
658.13	16.534
658.45	25.285
658.78	25.456
659.10	27.167
659.43	29.340
659.75	29.120
660.08	32.089
660.41	36.127
660.73	36.213
661.06	34.554
661.38	36.364
661.71	38.269
662.03	38.264
662.36	32.008
662.68	37.550
663.01	36.970
663.33	35.881
663.66	36.134
663.98	35.637
664.31	36.345
664.63	35.425
664.96	34.004
665.28	37.910
665.61	35.673
665.93	35.815
666.26	35.497
666.58	36.611
666.91	35.307
667.23	37.303
667.56	35.205
667.88	35.684
668.21	36.887
668.53	36.443
668.86	35.065
669.18	38.380
669.50	36.739
669.83	36.601
670.15	37.333
670.48	36.166
670.80	36.422
671.13	36.518
671.45	34.681
671.77	36.660
672.10	36.044
672.42	31.449
672.75	32.504
673.07	33.627
673.39	33.454
673.72	32.227
674.04	36.275
674.37	35.340
674.69	35.992
675.01	34.100
675.34	37.166
675.66	37.895
675.98	36.253
676.31	35.504
676.63	36.518
676.95	36.478
677.28	35.280
677.60	36.484
677.92	36.287
678.25	34.292
678.57	34.064
678.89	35.271
679.22	37.328
679.54	34.160
679.86	37.248
680.18	33.274
680.51	33.511
680.83	33.630
681.15	36.792
681.48	34.783
681.80	34.816
682.12	34.866
682.44	30.948
682.77	36.864
683.09	38.841
683.41	37.694
683.73	34.658
684.06	36.777
684.38	33.659
684.70	34.884
685.02	36.023
685.34	33.883
685.67	33.392
685.99	30.584
686.31	32.082
686.63	31.272
686.96	30.357
687.28	35.199
687.60	30.435
687.92	32.176
688.24	33.270
688.56	32.129
688.89	36.515
689.21	39.083
689.53	34.656
689.85	37.694
690.17	30.021
690.49	37.367
690.82	37.617
691.14	35.268
691.46	33.333
691.78	35.542
692.10	34.298
692.42	35.729
692.74	32.573
693.06	34.681
693.39	32.238
693.71	35.153
694.03	35.158
694.35	34.416
694.67	32.265
694.99	38.537
695.31	36.520
695.63	34.928
695.95	35.941
696.27	35.279
696.59	37.824
696.91	36.010
697.23	32.864
697.56	35.608
697.88	32.311
698.20	32.500
698.52	35.484
698.84	35.635
699.16	32.949
699.48	37.292
699.80	35.507
700.12	43.377
700.44	37.401
700.76	38.950
701.08	39.368
701.40	38.827
701.72	39.359
702.04	39.773
702.36	34.844
702.68	37.394
703.00	37.119
703.32	32.713
703.64	37.265
703.96	38.997
704.28	38.663
704.60	39.296
704.91	39.466
705.23	38.123
705.55	40.199
705.87	44.518
706.19	38.163
706.51	39.252
706.83	40.909
707.15	40.056
707.47	37.121
707.79	34.152
708.11	35.845
708.43	35.714
708.74	33.929
709.06	36.883
709.38	37.270
709.70	39.826
710.02	39.169
710.34	40.303
710.66	36.418
710.98	39.773
711.29	41.279
711.61	38.053
711.93	40.385
712.25	40.836
712.57	44.485
712.89	41.522
713.20	42.249
713.52	40.461
713.84	39.557
714.16	37.195
714.48	38.793
714.80	41.641
715.11	37.176
715.43	36.499
715.75	36.522
716.07	39.936
716.39	36.364
716.70	42.857
717.02	45.683
717.34	39.576
717.66	45.522
717.97	46.614
718.29	41.481
718.61	43.066
718.93	44.853
719.24	42.215
719.56	39.661
719.88	39.661
720.20	43.243
720.51	43.902
720.83	46.097
721.15	41.418
721.46	42.553
721.78	45.161
722.10	41.887
722.42	44.737
722.73	49.438
723.05	38.525
723.37	43.725
723.68	45.174
724.00	41.057
724.32	48.387
724.63	43.089
724.95	43.096
725.27	42.915
725.58	43.750
725.90	47.080
726.22	43.774
726.53	39.583
726.85	37.201
727.16	43.416
727.48	40.071
727.80	42.803
728.11	43.116
728.43	41.538
728.74	43.011
729.06	41.971
729.38	47.794
729.69	43.416
730.01	34.130
730.32	38.194
730.64	40.803
730.96	34.983
731.27	42.053
731.59	36.086
731.90	37.609
732.22	39.130
732.53	39.009
732.85	37.179
733.16	36.334
733.48	40.199
733.80	39.610
734.11	42.357
734.43	39.053
734.74	34.571
735.06	33.238
735.37	39.595
735.69	37.261
736.00	42.810
736.32	38.318
736.63	35.463
736.95	37.700
737.26	35.034
737.58	35.806
737.89	39.465
738.21	40.273
738.52	38.929
738.83	38.113
739.15	42.308
739.46	38.321
739.78	39.583
740.09	40.308
740.41	41.290
740.72	41.115
741.04	41.111
741.35	42.083
741.66	51.111
741.98	43.396
742.29	49.282
742.61	45.690
742.92	43.439
743.23	43.162
743.55	41.600
743.86	43.421
744.18	49.115
744.49	50.239
744.80	46.948
745.12	53.636
745.43	48.899
745.74	47.297
746.06	47.248
746.37	47.534
746.68	47.059
747.00	45.833
747.31	48.571
747.62	38.496
747.94	44.053
748.25	37.872
748.56	43.612
748.88	49.505
749.19	52.000
749.50	43.256
749.82	41.057
750.13	40.000
750.44	40.511
750.75	44.561
751.07	43.408
751.38	37.282
751.69	41.516
752.01	43.985
752.32	39.350
752.63	40.071
752.94	44.262
753.26	47.600
753.57	39.024
753.88	45.312
754.19	36.786
754.51	43.403
754.82	37.184
755.13	40.755
755.44	40.977
755.75	43.431
756.07	40.071
756.38	33.577
756.69	38.926
757.00	35.329
757.31	36.795
757.63	33.918
757.94	35.389
758.25	35.049
758.56	35.556
758.87	31.183
759.18	38.182
759.50	36.364
759.81	37.383
760.12	34.062
760.43	36.963
760.74	33.696
761.05	36.158
761.36	34.492
761.67	36.932
761.99	36.025
762.30	37.847
762.61	45.802
762.92	43.359
763.23	42.437
763.54	48.000
763.85	39.062
764.16	44.231
764.47	43.726
764.78	38.163
765.10	36.076
765.41	35.988
765.72	37.725
766.03	36.364
766.34	36.667
766.65	45.532
766.96	47.009
767.27	47.716
767.58	51.562
767.89	52.105
768.20	50.575
768.51	48.223
768.82	44.037
769.13	41.463
769.44	40.891
769.75	41.202
770.06	42.661
770.37	45.249
770.68	51.389
770.99	42.667
771.30	36.475
771.61	49.327
771.92	43.033
772.23	46.218
772.54	49.231
772.85	51.309
773.16	55.851
773.47	53.804
773.78	51.269
774.09	46.429
774.39	54.971
774.70	52.469
775.01	65.942
775.32	56.209
775.63	52.632
775.94	61.871
776.25	61.417
776.56	67.910
776.87	67.213
777.18	65.625
777.48	57.252
777.79	64.394
778.10	62.222
778.41	64.286
778.72	50.365
779.03	59.060
779.34	55.705
779.65	58.108
779.95	50.307
780.26	62.745
780.57	66.207
780.88	69.531
781.19	54.887
781.50	56.081
781.80	54.717
782.11	49.718
782.42	47.468
782.73	53.374
783.04	58.784
783.34	60.563
783.65	71.233
783.96	61.194
784.27	58.741
784.57	58.273
784.88	49.074
785.19	57.937
785.50	70.755
785.81	61.940
786.11	73.770
786.42	64.341
786.73	68.142
787.04	76.415
787.34	73.214
787.65	79.000
787.96	72.973
788.26	66.942
788.57	68.644
788.88	72.727
789.19	65.972
789.49	64.394
789.80	59.542
790.11	76.190
790.41	80.198
790.72	86.747
791.03	83.696
791.33	77.907
791.64	74.227
791.95	83.168
792.25	80.000
792.56	94.805
792.87	101.282
793.17	97.468
793.48	83.908
793.79	89.655
794.09	79.545
794.40	73.109
794.70	66.176
795.01	63.704
795.32	55.396
795.62	64.567
795.93	64.655
796.23	61.947
796.54	68.235
796.85	86.486
797.15	102.817
797.46	109.091
797.76	96.386
798.07	92.405
798.37	100.000
798.68	96.970
798.99	85.915
799.29	84.416
799.60	81.818
799.90	87.671
800.21	111.940
800.51	105.172
800.82	129.825
801.12	96.721
801.43	118.182
801.73	97.297
802.04	107.937
802.34	100.000
802.65	109.375
802.95	103.390
803.26	129.688
803.56	97.143
803.87	87.692
804.17	107.353
804.48	142.593
804.78	122.414
805.09	104.412
805.39	132.692
805.70	121.429
806.00	114.754
806.30	103.030
806.61	91.463
806.91	82.278
807.22	89.474
807.52	98.507
807.83	111.268
808.13	109.375
808.43	108.333
808.74	85.526
809.04	108.696
809.35	113.433
809.65	106.579
809.95	127.419
810.26	100.000
810.56	106.349
810.86	165.909
811.17	173.810
811.47	131.667
811.77	125.926
812.08	127.273
812.38	150.000
812.69	183.333
812.99	150.000
813.29	142.857
813.59	116.667
813.90	146.939
814.20	105.455
814.50	92.308
814.81	119.118
815.11	132.653
815.41	116.393
815.72	169.048
816.02	147.273
816.32	145.238
816.62	152.500
816.93	143.902
817.23	161.905
817.53	159.091
817.84	169.697
818.14	178.261
818.44	122.222
818.74	211.765
819.04	157.500
819.35	200.000
819.65	217.647
819.95	228.571
820.25	275.000
820.56	182.051
820.86	150.000
821.16	172.093
821.46	164.103
821.76	140.000
822.07	171.429
822.37	175.000
822.67	178.788
822.97	135.294
823.27	246.429
823.57	186.486
823.88	187.500
824.18	210.000
824.48	178.571
824.78	256.000
825.08	204.167
825.38	164.865
825.69	158.537
825.99	241.667
826.29	175.862
826.59	168.421
826.89	165.789
827.19	197.059
827.49	196.774
827.79	150.000
828.09	136.364
828.39	136.170
828.70	130.612
829.00	203.704
829.30	167.742
829.60	175.000
829.90	293.333
830.20	246.429
830.50	247.826
830.80	265.217
831.10	206.667
831.40	226.667
831.70	252.174
832.00	250.000
832.30	196.296
832.60	312.500
832.90	200.000
833.20	485.714
833.50	216.129
833.80	220.690
834.10	218.750
834.40	250.000
834.70	350.000
835.00	280.952
835.30	194.286
835.60	330.769
835.90	237.931
836.20	378.571
836.50	231.034
836.80	228.000
837.10	194.444
837.40	295.238
837.70	376.471
838.00	259.259
838.30	295.238
838.60	290.476
838.90	265.385
839.19	300.000
839.49	435.714
839.79	375.000
840.09	305.000
840.39	295.238
840.69	269.565
840.99	355.556
841.29	570.000
841.59	375.000
841.88	400.000
842.18	206.897
842.48	328.571
842.78	203.333
843.08	260.870
843.38	203.125
843.68	950.000
843.97	253.846
844.27	231.034
844.57	314.286
844.87	343.750
845.17	222.222
845.47	1766.667
845.76	622.222
846.06	352.941
846.36	550.000
846.66	350.000
846.96	325.000
847.25	518.182
847.55	427.273
847.85	286.957
848.15	510.000
848.44	407.143
848.74	277.778
849.04	358.824
849.34	620.000
849.63	263.158
849.93	445.455
850.23	1180.000
850.53	485.714
850.82	2550.000
851.12	-4600.000
851.42	6200.000
851.71	310.000
852.01	-2066.667
852.31	237.500
852.61	2266.667
852.90	280.952
853.20	232.000
853.50	382.353
853.79	295.238
854.09	241.667
854.39	375.000
854.68	186.486
854.98	206.452
855.28	196.667
855.57	244.828
855.87	262.963
856.17	284.211
856.46	300.000
856.76	382.353
857.05	210.345
857.35	220.833
857.65	386.667
857.94	295.652
858.24	273.077
858.53	350.000
858.83	309.091
859.13	393.333
859.42	0.000
859.72	555.556
860.01	481.818
860.31	290.909
860.60	326.316
860.90	304.348
861.20	644.444
861.49	550.000
861.79	-5800.000
862.08	650.000
862.38	319.048
862.67	423.077
862.97	411.765
863.26	555.556
863.56	350.000
863.85	425.000
864.15	700.000
864.44	446.667
864.74	966.667
865.03	812.500
865.33	326.316
865.62	518.182
865.92	576.923
866.21	433.333
866.51	0.000
866.80	436.364
867.10	1140.000
867.39	492.308
867.69	518.182
867.98	268.421
868.27	509.091
868.57	331.579
868.86	-4700.000
869.16	356.250
869.45	2700.000
869.75	-6200.000
870.04	458.333
870.33	742.857
870.63	1325.000
870.92	3250.000
871.22	785.714
871.51	435.294
871.80	295.238
872.10	471.429
>>>>>End Processed Spectral Data<<<<<
