SpectraSuite Data File
++++++++++++++++++++++++++++++++++++
Date: Wed May 13 19:29:28 PDT 2015
User: schluterlab
Dark Spectrum Present: Yes
Reference Spectrum Present: Yes
Number of Sampled Component Spectra: 1
Spectrometers: USB2E3373
Integration Time (usec): 3000 (USB2E3373)
Spectra Averaged: 3 (USB2E3373)
Boxcar Smoothing: 0 (USB2E3373)
Correct for Electrical Dark: No (USB2E3373)
Strobe/Lamp Enabled: No (USB2E3373)
Correct for Detector Non-linearity: No (USB2E3373)
Correct for Stray Light: No (USB2E3373)
Number of Pixels in Processed Spectrum: 2048
>>>>>Begin Processed Spectral Data<<<<<
178.53	0.000
178.91	-1225.000
179.29	-1500.000
179.67	-261.111
180.04	-1400.000
180.42	2350.000
180.80	1100.000
181.18	-1075.000
181.56	728.571
181.94	0.000
182.31	-728.571
182.69	1633.333
183.07	-587.500
183.45	-644.444
183.83	527.273
184.20	-440.000
184.58	2700.000
184.96	6400.000
185.34	-660.000
185.72	-762.500
186.09	-2350.000
186.47	2550.000
186.85	2950.000
187.23	5500.000
187.61	-1300.000
187.98	1350.000
188.36	563.636
188.74	454.545
189.12	-940.000
189.49	530.000
189.87	-6100.000
190.25	-1275.000
190.63	442.857
191.00	484.615
191.38	833.333
191.76	-1100.000
192.14	1475.000
192.51	687.500
192.89	1050.000
193.27	562.500
193.65	-1075.000
194.02	490.000
194.40	840.000
194.78	590.000
195.15	558.333
195.53	630.000
195.91	-1950.000
196.29	381.250
196.66	284.211
197.04	-400.000
197.42	0.000
197.79	680.000
198.17	-4800.000
198.55	657.143
198.92	737.500
199.30	860.000
199.68	0.000
200.05	338.889
200.43	785.714
200.81	4500.000
201.18	1933.333
201.56	-1633.333
201.94	644.444
202.31	622.222
202.69	450.000
203.07	520.000
203.44	0.000
203.82	1250.000
204.19	785.714
204.57	485.714
204.95	750.000
205.32	1566.667
205.70	472.727
206.08	450.000
206.45	2450.000
206.83	375.000
207.20	950.000
207.58	800.000
207.96	322.222
208.33	725.000
208.71	-850.000
209.08	728.571
209.46	522.222
209.84	490.909
210.21	-1233.333
210.59	1225.000
210.96	-550.000
211.34	2850.000
211.71	650.000
212.09	783.333
212.46	0.000
212.84	1833.333
213.22	1350.000
213.59	-4800.000
213.97	916.667
214.34	742.857
214.72	700.000
215.09	1000.000
215.47	-2000.000
215.84	-2800.000
216.22	1700.000
216.59	400.000
216.97	1150.000
217.34	409.091
217.72	-700.000
218.09	0.000
218.47	-5300.000
218.84	655.556
219.22	714.286
219.59	1500.000
219.97	-614.286
220.34	980.000
220.72	-1700.000
221.09	392.857
221.47	1650.000
221.84	-1033.333
222.22	0.000
222.59	1375.000
222.97	-2650.000
223.34	1200.000
223.72	446.154
224.09	1200.000
224.46	2050.000
224.84	-5600.000
225.21	-1000.000
225.59	-5600.000
225.96	560.000
226.34	260.000
226.71	2650.000
227.08	625.000
227.46	540.000
227.83	-875.000
228.21	-2500.000
228.58	633.333
228.95	-2500.000
229.33	-2050.000
229.70	1966.667
230.08	771.429
230.45	-760.000
230.82	458.333
231.20	950.000
231.57	600.000
231.95	500.000
232.32	268.182
232.69	363.636
233.07	700.000
233.44	430.769
233.81	-1733.333
234.19	278.947
234.56	466.667
234.93	291.667
235.31	481.818
235.68	315.385
236.05	357.143
236.43	175.758
236.80	284.211
237.17	4500.000
237.55	276.190
237.92	225.000
238.29	271.429
238.67	148.387
239.04	193.103
239.41	172.222
239.79	130.435
240.16	107.143
240.53	115.909
240.91	105.882
241.28	98.000
241.65	90.000
242.02	88.406
242.40	77.419
242.77	81.667
243.14	84.946
243.51	74.157
243.89	75.294
244.26	68.889
244.63	62.366
245.00	62.766
245.38	59.406
245.75	58.879
246.12	56.881
246.49	60.584
246.87	68.800
247.24	56.154
247.61	49.286
247.98	44.444
248.36	46.622
248.73	49.682
249.10	38.217
249.47	38.418
249.84	45.455
250.22	41.711
250.59	40.828
250.96	39.394
251.33	41.706
251.70	41.089
252.08	39.524
252.45	38.117
252.82	37.826
253.19	35.745
253.56	34.510
253.94	35.270
254.31	30.859
254.68	37.308
255.05	35.793
255.42	31.707
255.79	30.515
256.16	34.296
256.54	28.975
256.91	32.028
257.28	25.899
257.65	30.693
258.02	30.745
258.39	28.391
258.76	33.779
259.14	28.869
259.51	26.748
259.88	22.671
260.25	28.399
260.62	24.566
260.99	27.019
261.36	29.730
261.73	25.788
262.10	25.291
262.47	29.014
262.85	28.691
263.22	25.926
263.59	31.624
263.96	24.725
264.33	24.804
264.70	24.737
265.07	25.831
265.44	24.242
265.81	23.844
266.18	25.126
266.55	24.634
266.92	25.553
267.29	25.926
267.66	25.229
268.03	21.818
268.40	24.533
268.77	21.480
269.14	24.099
269.51	24.153
269.88	26.340
270.25	21.670
270.62	21.348
270.99	26.022
271.36	23.176
271.73	22.430
272.10	20.217
272.47	22.796
272.84	24.026
273.21	24.319
273.58	21.179
273.95	20.545
274.32	23.140
274.69	21.627
275.06	19.882
275.43	21.702
275.80	21.443
276.17	20.774
276.54	21.830
276.91	22.530
277.28	22.266
277.65	21.277
278.02	19.669
278.39	21.680
278.76	21.636
279.13	21.321
279.50	23.277
279.87	21.514
280.23	21.756
280.60	20.503
280.97	21.996
281.34	19.469
281.71	21.273
282.08	20.921
282.45	19.273
282.82	22.913
283.19	17.112
283.56	20.877
283.92	21.827
284.29	21.517
284.66	19.782
285.03	19.530
285.40	20.246
285.77	17.508
286.14	18.653
286.51	21.833
286.87	19.487
287.24	19.055
287.61	20.867
287.98	19.643
288.35	19.017
288.72	18.692
289.08	18.310
289.45	18.781
289.82	18.211
290.19	17.582
290.56	18.836
290.93	15.559
291.29	18.405
291.66	16.814
292.03	19.041
292.40	20.117
292.77	17.456
293.13	17.015
293.50	18.805
293.87	16.000
294.24	16.000
294.60	16.448
294.97	15.552
295.34	17.630
295.71	18.324
296.08	14.957
296.44	16.644
296.81	16.380
297.18	16.667
297.55	14.380
297.91	16.887
298.28	17.135
298.65	17.493
299.02	16.074
299.38	15.405
299.75	13.208
300.12	15.837
300.48	15.250
300.85	14.057
301.22	14.140
301.59	13.763
301.95	15.113
302.32	16.303
302.69	15.054
303.05	14.182
303.42	15.432
303.79	14.609
304.15	13.520
304.52	14.716
304.89	14.634
305.25	14.965
305.62	15.742
305.99	15.466
306.35	14.206
306.72	15.471
307.09	14.650
307.45	15.090
307.82	13.170
308.19	14.018
308.55	14.779
308.92	14.178
309.29	12.883
309.65	13.574
310.02	14.799
310.38	14.194
310.75	14.678
311.12	13.613
311.48	14.943
311.85	14.151
312.22	15.297
312.58	13.202
312.95	15.312
313.31	14.757
313.68	14.345
314.05	16.963
314.41	16.784
314.78	15.609
315.14	15.988
315.51	16.478
315.87	16.337
316.24	16.187
316.61	17.349
316.97	17.221
317.34	16.634
317.70	17.973
318.07	18.479
318.43	18.297
318.80	18.369
319.16	18.832
319.53	18.856
319.89	20.095
320.26	20.800
320.62	20.833
320.99	20.404
321.35	20.404
321.72	22.998
322.08	23.001
322.45	23.383
322.81	23.547
323.18	22.929
323.54	23.006
323.91	22.736
324.27	24.570
324.64	23.486
325.00	23.445
325.37	25.933
325.73	25.583
326.10	26.390
326.46	26.344
326.83	27.610
327.19	27.669
327.56	27.265
327.92	27.297
328.29	28.305
328.65	28.453
329.01	28.339
329.38	29.232
329.74	28.440
330.11	28.652
330.47	30.303
330.84	31.618
331.20	31.239
331.56	31.560
331.93	30.185
332.29	30.257
332.66	31.150
333.02	30.622
333.38	31.346
333.75	31.016
334.11	30.961
334.48	30.080
334.84	32.353
335.20	33.000
335.57	31.913
335.93	31.786
336.29	31.685
336.66	31.921
337.02	31.131
337.38	32.685
337.75	31.462
338.11	31.961
338.47	33.057
338.84	32.814
339.20	32.202
339.56	33.212
339.93	31.909
340.29	30.163
340.65	33.066
341.02	33.159
341.38	33.274
341.74	31.930
342.11	31.528
342.47	33.304
342.83	31.849
343.20	33.074
343.56	31.508
343.92	33.246
344.28	34.609
344.65	32.244
345.01	32.660
345.37	32.075
345.73	32.403
346.10	34.442
346.46	32.966
346.82	31.796
347.19	32.080
347.55	31.527
347.91	33.576
348.27	34.018
348.63	34.114
349.00	32.929
349.36	33.498
349.72	32.318
350.08	33.225
350.45	33.442
350.81	33.063
351.17	33.549
351.53	34.070
351.89	33.581
352.26	33.149
352.62	34.643
352.98	33.793
353.34	33.279
353.70	33.633
354.07	34.677
354.43	33.889
354.79	33.870
355.15	33.520
355.51	34.452
355.87	34.612
356.24	35.016
356.60	34.242
356.96	34.352
357.32	35.159
357.68	34.882
358.04	34.204
358.40	35.946
358.77	34.898
359.13	34.333
359.49	35.451
359.85	35.476
360.21	34.769
360.57	36.031
360.93	36.462
361.29	35.450
361.66	36.920
362.02	35.821
362.38	36.350
362.74	36.384
363.10	35.233
363.46	35.877
363.82	36.357
364.18	34.949
364.54	37.816
364.90	37.465
365.26	35.956
365.62	37.473
365.98	36.815
366.35	35.745
366.71	36.876
367.07	36.926
367.43	37.954
367.79	38.044
368.15	38.506
368.51	37.427
368.87	38.401
369.23	38.332
369.59	39.247
369.95	37.426
370.31	38.177
370.67	38.116
371.03	39.326
371.39	39.431
371.75	39.412
372.11	38.407
372.47	40.836
372.83	40.130
373.19	39.017
373.55	39.616
373.91	40.722
374.27	39.931
374.63	39.927
374.99	40.537
375.35	40.614
375.71	40.027
376.07	40.123
376.42	40.784
376.78	40.027
377.14	40.027
377.50	41.722
377.86	41.556
378.22	41.340
378.58	40.977
378.94	40.855
379.30	41.094
379.66	42.069
380.02	41.892
380.38	41.773
380.74	42.017
381.09	42.054
381.45	42.778
381.81	43.059
382.17	42.739
382.53	42.201
382.89	43.086
383.25	43.965
383.61	43.123
383.97	43.027
384.32	43.356
384.68	43.185
385.04	44.683
385.40	43.034
385.76	43.919
386.12	44.560
386.48	45.249
386.83	44.772
387.19	45.702
387.55	44.280
387.91	44.921
388.27	44.145
388.62	44.007
388.98	43.980
389.34	45.995
389.70	44.329
390.06	46.705
390.42	46.757
390.77	45.356
391.13	47.479
391.49	46.003
391.85	46.022
392.20	45.174
392.56	46.023
392.92	45.792
393.28	45.799
393.64	46.103
393.99	46.671
394.35	45.596
394.71	46.424
395.07	44.922
395.42	46.477
395.78	47.074
396.14	46.245
396.50	47.870
396.85	47.235
397.21	47.226
397.57	46.807
397.92	46.274
398.28	46.469
398.64	47.670
399.00	44.936
399.35	46.249
399.71	46.586
400.07	47.546
400.42	47.178
400.78	47.045
401.14	47.500
401.49	46.866
401.85	46.824
402.21	47.246
402.57	47.008
402.92	47.667
403.28	47.408
403.63	46.535
403.99	47.898
404.35	46.727
404.70	47.002
405.06	46.709
405.42	47.848
405.77	46.286
406.13	46.050
406.49	47.073
406.84	46.958
407.20	47.577
407.55	47.671
407.91	48.533
408.27	48.819
408.62	46.779
408.98	47.978
409.34	48.093
409.69	48.452
410.05	46.468
410.40	47.706
410.76	47.013
411.11	47.407
411.47	46.901
411.83	46.915
412.18	46.011
412.54	46.949
412.89	47.410
413.25	47.226
413.60	47.375
413.96	47.480
414.31	46.902
414.67	47.655
415.03	46.954
415.38	48.067
415.74	47.074
416.09	47.943
416.45	47.724
416.80	47.323
417.16	48.861
417.51	47.578
417.87	46.435
418.22	47.760
418.58	47.902
418.93	48.280
419.29	45.831
419.64	46.914
420.00	47.561
420.35	47.072
420.71	47.101
421.06	46.659
421.42	47.836
421.77	46.357
422.12	46.828
422.48	46.573
422.83	46.709
423.19	46.464
423.54	47.243
423.90	47.246
424.25	46.678
424.61	47.083
424.96	46.706
425.31	46.788
425.67	44.719
426.02	46.743
426.38	46.642
426.73	47.045
427.09	47.356
427.44	47.441
427.79	46.003
428.15	47.560
428.50	46.343
428.85	46.603
429.21	46.715
429.56	47.486
429.92	47.056
430.27	46.077
430.62	46.441
430.98	46.393
431.33	45.412
431.68	46.283
432.04	45.261
432.39	46.887
432.74	47.277
433.10	45.954
433.45	46.239
433.80	45.787
434.16	46.795
434.51	44.842
434.86	47.434
435.22	47.137
435.57	45.957
435.92	45.992
436.28	47.212
436.63	45.033
436.98	45.220
437.34	46.392
437.69	46.266
438.04	46.655
438.39	46.388
438.75	45.671
439.10	45.587
439.45	46.635
439.81	45.861
440.16	45.850
440.51	46.456
440.86	45.918
441.22	45.106
441.57	45.648
441.92	45.189
442.27	44.618
442.63	45.340
442.98	44.958
443.33	44.348
443.68	45.070
444.03	46.022
444.39	44.888
444.74	45.563
445.09	44.420
445.44	44.451
445.79	44.582
446.15	45.421
446.50	45.773
446.85	45.015
447.20	44.569
447.55	45.840
447.91	44.291
448.26	44.964
448.61	44.262
448.96	45.404
449.31	44.769
449.66	44.513
450.02	43.733
450.37	43.764
450.72	44.106
451.07	43.815
451.42	44.438
451.77	44.216
452.12	44.515
452.47	44.154
452.83	46.212
453.18	44.010
453.53	44.836
453.88	44.241
454.23	44.351
454.58	45.124
454.93	45.455
455.28	43.703
455.63	44.903
455.98	44.583
456.34	43.844
456.69	43.895
457.04	44.830
457.39	42.490
457.74	43.993
458.09	43.531
458.44	44.128
458.79	41.757
459.14	42.777
459.49	43.024
459.84	41.994
460.19	42.310
460.54	41.493
460.89	42.622
461.24	43.837
461.59	42.824
461.94	42.417
462.29	43.442
462.64	42.119
462.99	41.184
463.34	43.133
463.69	42.089
464.04	41.159
464.39	40.986
464.74	41.830
465.09	40.350
465.44	40.886
465.79	41.611
466.14	40.613
466.49	40.768
466.84	40.864
467.19	40.857
467.54	41.187
467.89	40.696
468.24	40.140
468.59	40.232
468.94	39.890
469.29	41.324
469.64	41.165
469.99	40.122
470.34	40.225
470.68	40.589
471.03	39.932
471.38	40.584
471.73	40.440
472.08	40.724
472.43	39.824
472.78	39.236
473.13	38.768
473.48	39.513
473.83	38.659
474.17	39.079
474.52	39.268
474.87	39.988
475.22	38.015
475.57	37.722
475.92	38.237
476.27	37.880
476.61	38.831
476.96	37.823
477.31	38.148
477.66	38.348
478.01	36.749
478.36	37.916
478.70	36.656
479.05	37.433
479.40	37.103
479.75	37.214
480.10	36.332
480.45	37.601
480.79	36.312
481.14	36.595
481.49	36.687
481.84	36.260
482.19	36.438
482.53	36.376
482.88	36.389
483.23	35.981
483.58	36.033
483.92	35.942
484.27	34.510
484.62	36.466
484.97	34.608
485.31	34.692
485.66	34.218
486.01	33.364
486.36	32.469
486.70	32.430
487.05	32.860
487.40	33.350
487.75	33.653
488.09	33.667
488.44	33.489
488.79	34.358
489.13	34.607
489.48	33.728
489.83	34.009
490.17	33.976
490.52	33.260
490.87	33.650
491.22	33.379
491.56	32.392
491.91	32.387
492.26	32.614
492.60	32.949
492.95	33.209
493.30	32.150
493.64	32.664
493.99	32.173
494.34	32.331
494.68	33.791
495.03	32.754
495.37	31.968
495.72	32.310
496.07	32.483
496.41	30.796
496.76	31.926
497.11	31.787
497.45	32.510
497.80	32.054
498.14	30.918
498.49	31.902
498.84	31.256
499.18	31.381
499.53	32.051
499.87	31.500
500.22	30.947
500.56	31.505
500.91	30.865
501.26	30.299
501.60	31.941
501.95	30.247
502.29	31.209
502.64	30.633
502.98	30.575
503.33	30.576
503.67	30.302
504.02	29.841
504.36	30.042
504.71	30.972
505.06	29.976
505.40	29.266
505.75	29.026
506.09	29.495
506.44	29.354
506.78	29.372
507.13	30.338
507.47	29.545
507.82	30.142
508.16	29.534
508.51	29.680
508.85	28.947
509.19	28.878
509.54	28.367
509.88	28.954
510.23	29.357
510.57	29.257
510.92	29.259
511.26	28.571
511.61	28.475
511.95	28.445
512.30	28.314
512.64	28.372
512.98	28.617
513.33	28.854
513.67	27.962
514.02	27.327
514.36	28.454
514.70	27.670
515.05	28.277
515.39	28.828
515.74	28.604
516.08	28.452
516.42	28.579
516.77	28.651
517.11	27.192
517.46	27.709
517.80	28.571
518.14	27.331
518.49	28.005
518.83	28.409
519.17	27.714
519.52	27.504
519.86	27.781
520.20	28.382
520.55	27.409
520.89	27.920
521.23	28.649
521.58	26.651
521.92	26.638
522.26	26.113
522.61	27.664
522.95	27.072
523.29	26.354
523.64	27.256
523.98	27.234
524.32	26.297
524.66	27.240
525.01	27.083
525.35	26.704
525.69	26.416
526.04	26.106
526.38	26.663
526.72	25.890
527.06	26.742
527.41	26.361
527.75	26.624
528.09	26.590
528.43	26.705
528.78	26.490
529.12	25.333
529.46	25.597
529.80	27.042
530.15	26.667
530.49	24.923
530.83	26.329
531.17	26.567
531.51	26.589
531.86	25.613
532.20	26.010
532.54	26.778
532.88	26.508
533.22	25.297
533.57	25.679
533.91	25.045
534.25	25.152
534.59	25.625
534.93	25.402
535.27	24.744
535.62	26.374
535.96	25.110
536.30	24.857
536.64	25.692
536.98	24.618
537.32	23.897
537.66	24.867
538.01	24.358
538.35	25.145
538.69	25.399
539.03	24.301
539.37	24.537
539.71	23.526
540.05	25.033
540.39	24.385
540.73	23.933
541.07	24.919
541.42	24.658
541.76	24.710
542.10	25.291
542.44	23.907
542.78	24.704
543.12	24.056
543.46	24.656
543.80	25.179
544.14	24.840
544.48	24.254
544.82	23.348
545.16	23.357
545.50	23.843
545.84	24.530
546.18	23.906
546.52	24.088
546.86	24.261
547.20	24.882
547.54	22.846
547.88	24.617
548.22	23.537
548.56	24.151
548.90	23.431
549.24	22.424
549.58	24.420
549.92	23.901
550.26	24.219
550.60	23.444
550.94	23.592
551.28	23.263
551.62	22.646
551.96	23.368
552.30	23.959
552.64	22.515
552.98	22.780
553.32	23.803
553.66	24.744
554.00	24.022
554.34	22.774
554.68	24.106
555.02	23.272
555.36	22.686
555.69	22.192
556.03	22.476
556.37	22.783
556.71	22.442
557.05	23.319
557.39	23.303
557.73	22.442
558.07	22.408
558.41	22.721
558.75	22.777
559.08	23.490
559.42	22.600
559.76	23.529
560.10	22.198
560.44	22.082
560.78	21.890
561.12	22.955
561.45	22.751
561.79	22.676
562.13	22.401
562.47	22.199
562.81	23.082
563.15	21.538
563.48	23.011
563.82	21.918
564.16	22.498
564.50	21.159
564.84	22.377
565.17	21.557
565.51	21.917
565.85	21.574
566.19	21.415
566.52	21.786
566.86	20.555
567.20	21.580
567.54	21.575
567.88	20.967
568.21	21.852
568.55	20.829
568.89	20.866
569.23	20.455
569.56	19.919
569.90	19.887
570.24	19.376
570.57	20.401
570.91	19.295
571.25	19.209
571.59	19.499
571.92	19.528
572.26	19.151
572.60	19.279
572.93	19.130
573.27	19.314
573.61	19.040
573.95	19.302
574.28	18.719
574.62	18.586
574.96	18.542
575.29	18.938
575.63	18.623
575.97	18.250
576.30	18.826
576.64	18.549
576.98	18.279
577.31	18.438
577.65	18.480
577.98	18.436
578.32	17.792
578.66	18.721
578.99	18.512
579.33	18.470
579.67	18.244
580.00	18.485
580.34	18.652
580.67	18.388
581.01	18.574
581.35	18.163
581.68	18.356
582.02	17.807
582.35	17.939
582.69	17.946
583.02	18.184
583.36	18.607
583.70	18.581
584.03	18.861
584.37	18.762
584.70	18.051
585.04	18.371
585.37	18.313
585.71	18.069
586.04	18.169
586.38	18.365
586.72	18.724
587.05	17.984
587.39	18.206
587.72	18.578
588.06	18.036
588.39	18.656
588.73	18.040
589.06	18.635
589.40	18.788
589.73	18.655
590.07	18.434
590.40	18.122
590.73	18.657
591.07	18.885
591.40	19.022
591.74	19.740
592.07	18.674
592.41	18.892
592.74	18.352
593.08	18.554
593.41	17.969
593.75	17.708
594.08	18.170
594.41	18.310
594.75	18.410
595.08	18.074
595.42	18.319
595.75	18.020
596.09	18.663
596.42	18.389
596.75	18.320
597.09	19.264
597.42	17.833
597.75	18.499
598.09	18.609
598.42	18.342
598.76	17.998
599.09	17.750
599.42	17.758
599.76	18.119
600.09	17.377
600.42	17.787
600.76	17.857
601.09	17.887
601.42	18.455
601.76	17.989
602.09	17.549
602.42	18.352
602.76	18.017
603.09	17.663
603.42	18.391
603.76	18.140
604.09	17.798
604.42	17.856
604.76	18.600
605.09	18.218
605.42	18.042
605.75	17.881
606.09	17.934
606.42	18.145
606.75	17.669
607.09	18.292
607.42	17.544
607.75	17.046
608.08	17.977
608.42	18.646
608.75	18.530
609.08	17.530
609.41	17.944
609.75	18.056
610.08	18.426
610.41	17.505
610.74	17.455
611.07	18.132
611.41	18.155
611.74	18.502
612.07	18.478
612.40	18.993
612.73	17.789
613.07	19.073
613.40	18.852
613.73	17.724
614.06	17.903
614.39	17.881
614.72	18.000
615.06	17.962
615.39	18.047
615.72	18.098
616.05	17.438
616.38	18.844
616.71	18.468
617.05	18.728
617.38	18.641
617.71	18.198
618.04	18.389
618.37	18.451
618.70	18.731
619.03	18.092
619.36	18.262
619.69	19.014
620.03	18.956
620.36	18.717
620.69	19.247
621.02	18.879
621.35	18.637
621.68	18.614
622.01	19.659
622.34	19.516
622.67	18.859
623.00	18.782
623.33	17.513
623.66	19.228
623.99	17.820
624.32	18.688
624.65	18.008
624.99	18.909
625.32	18.972
625.65	18.257
625.98	19.216
626.31	20.373
626.64	19.429
626.97	19.701
627.30	19.036
627.63	19.114
627.96	19.428
628.29	19.423
628.62	20.403
628.95	20.660
629.28	18.613
629.61	21.173
629.94	20.095
630.26	19.638
630.59	18.875
630.92	20.785
631.25	19.052
631.58	20.320
631.91	20.690
632.24	18.776
632.57	20.672
632.90	21.601
633.23	20.470
633.56	18.870
633.89	20.385
634.22	19.750
634.55	20.710
634.88	19.880
635.20	21.386
635.53	21.084
635.86	19.678
636.19	19.765
636.52	21.453
636.85	20.848
637.18	20.161
637.51	20.686
637.83	18.742
638.16	21.611
638.49	20.025
638.82	20.860
639.15	20.875
639.48	20.698
639.81	19.973
640.13	21.615
640.46	21.208
640.79	22.325
641.12	18.982
641.45	21.229
641.77	22.828
642.10	20.760
642.43	19.670
642.76	21.362
643.09	23.620
643.41	19.423
643.74	21.451
644.07	20.732
644.40	23.466
644.73	20.945
645.05	23.772
645.38	21.801
645.71	22.222
646.04	23.256
646.36	24.207
646.69	23.077
647.02	21.769
647.35	20.447
647.67	21.770
648.00	22.114
648.33	20.957
648.66	21.515
648.98	22.339
649.31	19.283
649.64	21.973
649.96	20.119
650.29	22.117
650.62	22.168
650.94	23.339
651.27	22.804
651.60	23.461
651.92	21.725
652.25	22.638
652.58	21.963
652.90	20.695
653.23	19.723
653.56	19.843
653.88	21.236
654.21	21.959
654.54	22.772
654.86	21.651
655.19	19.595
655.52	14.405
655.84	12.560
656.17	16.057
656.49	22.020
656.82	22.585
657.15	17.190
657.47	12.500
657.80	9.780
658.13	10.142
658.45	14.875
658.78	15.177
659.10	16.147
659.43	16.780
659.75	17.776
660.08	18.544
660.41	20.857
660.73	21.601
661.06	21.975
661.38	23.636
661.71	22.500
662.03	22.682
662.36	22.465
662.68	23.896
663.01	23.030
663.33	22.505
663.66	23.319
663.98	22.678
664.31	22.689
664.63	21.660
664.96	23.742
665.28	22.951
665.61	21.832
665.93	23.340
666.26	22.921
666.58	23.222
666.91	24.524
667.23	24.719
667.56	23.758
667.88	23.718
668.21	24.733
668.53	22.993
668.86	22.944
669.18	24.520
669.50	24.130
669.83	24.401
670.15	25.111
670.48	24.619
670.80	23.707
671.13	22.505
671.45	24.255
671.77	23.218
672.10	21.811
672.42	21.731
672.75	23.549
673.07	21.127
673.39	20.796
673.72	20.508
674.04	23.333
674.37	22.136
674.69	23.517
675.01	21.130
675.34	24.846
675.66	25.263
675.98	20.978
676.31	24.370
676.63	24.204
676.95	20.964
677.28	23.832
677.60	23.516
677.92	25.949
678.25	24.641
678.57	24.104
678.89	23.246
679.22	23.379
679.54	22.519
679.86	22.018
680.18	21.646
680.51	22.163
680.83	20.819
681.15	21.698
681.48	24.575
681.80	24.178
682.12	21.073
682.44	20.116
682.77	23.218
683.09	24.249
683.41	22.838
683.73	22.958
684.06	22.314
684.38	24.266
684.70	22.093
685.02	24.203
685.34	21.612
685.67	21.154
685.99	22.852
686.31	19.795
686.63	19.965
686.96	20.179
687.28	19.314
687.60	23.007
687.92	22.121
688.24	24.144
688.56	22.691
688.89	24.274
689.21	25.328
689.53	23.591
689.85	22.838
690.17	20.911
690.49	23.142
690.82	22.196
691.14	22.991
691.46	22.785
691.78	24.297
692.10	25.207
692.42	25.749
692.74	21.162
693.06	22.979
693.39	23.614
693.71	24.017
694.03	23.579
694.35	21.861
694.67	24.027
694.99	22.683
695.31	24.510
695.63	24.163
695.95	22.983
696.27	20.558
696.59	25.648
696.91	26.425
697.23	21.362
697.56	24.307
697.88	17.791
698.20	22.500
698.52	23.226
698.84	22.940
699.16	22.811
699.48	23.040
699.80	23.913
700.12	27.013
700.44	26.260
700.76	25.414
701.08	24.138
701.40	26.257
701.72	28.863
702.04	30.966
702.36	23.229
702.68	24.363
703.00	25.208
703.32	24.468
703.64	24.933
703.96	23.120
704.28	27.035
704.60	29.912
704.91	27.003
705.23	26.686
705.55	26.246
705.87	29.568
706.19	25.795
706.51	30.530
706.83	27.576
707.15	26.611
707.47	25.000
707.79	24.324
708.11	23.973
708.43	23.333
708.74	21.429
709.06	27.013
709.38	26.247
709.70	24.709
710.02	27.300
710.34	24.545
710.66	26.866
710.98	29.830
711.29	26.744
711.61	27.729
711.93	25.641
712.25	28.939
712.57	28.309
712.89	27.336
713.20	30.395
713.52	26.974
713.84	25.949
714.16	26.524
714.48	24.138
714.80	29.787
715.11	24.784
715.43	24.036
715.75	28.116
716.07	24.601
716.39	22.571
716.70	29.236
717.02	32.374
717.34	30.035
717.66	28.731
717.97	29.880
718.29	30.000
718.61	25.912
718.93	33.088
719.24	27.682
719.56	27.119
719.88	31.525
720.20	30.743
720.51	29.965
720.83	29.368
721.15	25.373
721.46	29.078
721.78	34.409
722.10	31.698
722.42	31.579
722.73	29.588
723.05	27.869
723.37	27.530
723.68	31.660
724.00	29.268
724.32	31.048
724.63	34.553
724.95	32.218
725.27	36.437
725.58	29.297
725.90	30.657
726.22	32.453
726.53	25.694
726.85	28.669
727.16	33.096
727.48	27.660
727.80	33.712
728.11	31.884
728.43	29.615
728.74	31.541
729.06	29.927
729.38	30.515
729.69	33.096
730.01	30.717
730.32	29.514
730.64	27.759
730.96	23.762
731.27	29.801
731.59	30.581
731.90	27.114
732.22	27.019
732.53	27.864
732.85	28.205
733.16	26.688
733.48	26.578
733.80	26.948
734.11	28.025
734.43	27.515
734.74	25.143
735.06	25.788
735.37	28.902
735.69	25.478
736.00	28.758
736.32	29.283
736.63	25.879
736.95	28.115
737.26	25.510
737.58	25.806
737.89	30.100
738.21	27.304
738.52	30.714
738.83	29.434
739.15	31.538
739.46	28.102
739.78	27.431
740.09	29.231
740.41	29.677
740.72	27.526
741.04	29.259
741.35	28.333
741.66	38.222
741.98	27.830
742.29	34.450
742.61	36.207
742.92	32.127
743.23	34.615
743.55	31.600
743.86	31.579
744.18	32.301
744.49	34.450
744.80	36.150
745.12	30.909
745.43	33.040
745.74	37.387
746.06	34.862
746.37	31.390
746.68	32.127
747.00	36.574
747.31	35.714
747.62	30.531
747.94	29.515
748.25	31.489
748.56	40.969
748.88	31.683
749.19	42.000
749.50	35.814
749.82	31.707
750.13	32.245
750.44	28.102
750.75	28.772
751.07	34.727
751.38	34.495
751.69	30.325
752.01	29.699
752.32	28.881
752.63	33.333
752.94	31.967
753.26	32.400
753.57	31.707
753.88	35.156
754.19	28.214
754.51	30.903
754.82	22.744
755.13	33.585
755.44	25.564
755.75	27.372
756.07	29.787
756.38	22.993
756.69	28.188
757.00	27.246
757.31	24.926
757.63	22.807
757.94	25.201
758.25	22.304
758.56	23.951
758.87	25.269
759.18	28.485
759.50	26.019
759.81	28.349
760.12	20.938
760.43	23.496
760.74	25.543
761.05	25.989
761.36	24.332
761.67	28.409
761.99	26.398
762.30	29.167
762.61	27.481
762.92	31.641
763.23	30.252
763.54	32.800
763.85	27.734
764.16	35.000
764.47	34.221
764.78	25.442
765.10	27.215
765.41	29.794
765.72	29.042
766.03	26.019
766.34	28.333
766.65	31.915
766.96	31.197
767.27	40.609
767.58	40.625
767.89	44.211
768.20	39.655
768.51	34.010
768.82	36.239
769.13	28.862
769.44	30.364
769.75	33.047
770.06	32.569
770.37	33.484
770.68	37.037
770.99	31.111
771.30	27.459
771.61	33.184
771.92	36.475
772.23	33.613
772.54	37.949
772.85	41.885
773.16	38.830
773.47	40.761
773.78	44.162
774.09	39.286
774.39	38.012
774.70	41.358
775.01	38.406
775.32	50.980
775.63	46.053
775.94	48.921
776.25	48.819
776.56	47.761
776.87	53.279
777.18	46.094
777.48	55.725
777.79	45.455
778.10	54.074
778.41	58.929
778.72	40.146
779.03	40.940
779.34	44.966
779.65	36.486
779.95	43.558
780.26	45.098
780.57	40.690
780.88	53.906
781.19	44.361
781.50	50.676
781.80	45.912
782.11	40.678
782.42	33.544
782.73	39.264
783.04	41.892
783.34	43.662
783.65	59.589
783.96	49.254
784.27	47.552
784.57	43.165
784.88	50.000
785.19	46.032
785.50	50.000
785.81	58.209
786.11	53.279
786.42	48.062
786.73	49.558
787.04	50.943
787.34	59.821
787.65	59.000
787.96	56.757
788.26	49.587
788.57	57.627
788.88	56.198
789.19	50.000
789.49	56.818
789.80	44.275
790.11	50.476
790.41	65.347
790.72	51.807
791.03	67.391
791.33	58.140
791.64	68.041
791.95	72.277
792.25	73.333
792.56	72.727
792.87	78.205
793.17	84.810
793.48	78.161
793.79	68.966
794.09	64.773
794.40	49.580
794.70	61.029
795.01	55.556
795.32	49.640
795.62	52.756
795.93	56.034
796.23	53.982
796.54	65.882
796.85	74.324
797.15	104.225
797.46	74.242
797.76	77.108
798.07	72.152
798.37	76.923
798.68	89.394
798.99	70.423
799.29	77.922
799.60	65.909
799.90	91.781
800.21	82.090
800.51	100.000
800.82	107.018
801.12	83.607
801.43	93.939
801.73	87.838
802.04	98.413
802.34	71.605
802.65	73.438
802.95	96.610
803.26	114.063
803.56	71.429
803.87	61.538
804.17	95.588
804.48	127.778
804.78	93.103
805.09	83.824
805.39	105.769
805.70	103.571
806.00	100.000
806.30	87.879
806.61	73.171
806.91	69.620
807.22	80.263
807.52	79.104
807.83	84.507
808.13	110.938
808.43	103.333
808.74	78.947
809.04	97.101
809.35	104.478
809.65	82.895
809.95	116.129
810.26	81.356
810.56	92.063
810.86	131.818
811.17	130.952
811.47	108.333
811.77	85.185
812.08	129.091
812.38	112.000
812.69	150.000
812.99	150.000
813.29	116.327
813.59	121.429
813.90	126.531
814.20	118.182
814.50	69.231
814.81	100.000
815.11	100.000
815.41	88.525
815.72	135.714
816.02	96.364
816.32	123.810
816.62	122.500
816.93	119.512
817.23	135.714
817.53	109.091
817.84	154.545
818.14	128.261
818.44	146.667
818.74	185.294
819.04	152.500
819.35	151.429
819.65	185.294
819.95	189.286
820.25	225.000
820.56	169.231
820.86	147.727
821.16	130.233
821.46	146.154
821.76	122.000
822.07	180.000
822.37	125.000
822.67	190.909
822.97	109.804
823.27	185.714
823.57	140.541
823.88	165.000
824.18	193.333
824.48	157.143
824.78	224.000
825.08	191.667
825.38	172.973
825.69	139.024
825.99	216.667
826.29	162.069
826.59	163.158
826.89	160.526
827.19	164.706
827.49	206.452
827.79	159.091
828.09	131.818
828.39	125.532
828.70	134.694
829.00	174.074
829.30	148.387
829.60	120.000
829.90	260.000
830.20	135.714
830.50	152.174
830.80	217.391
831.10	210.000
831.40	173.333
831.70	195.652
832.00	203.846
832.30	192.593
832.60	306.250
832.90	183.333
833.20	407.143
833.50	196.774
833.80	189.655
834.10	212.500
834.40	215.385
834.70	327.778
835.00	242.857
835.30	185.714
835.60	292.308
835.90	203.448
836.20	328.571
836.50	172.414
836.80	200.000
837.10	180.556
837.40	252.381
837.70	329.412
838.00	233.333
838.30	176.190
838.60	319.048
838.90	196.154
839.19	270.000
839.49	378.571
839.79	320.000
840.09	250.000
840.39	271.429
840.69	291.304
840.99	300.000
841.29	580.000
841.59	325.000
841.88	268.750
842.18	144.828
842.48	266.667
842.78	210.000
843.08	273.913
843.38	168.750
843.68	883.333
843.97	284.615
844.27	179.310
844.57	300.000
844.87	381.250
845.17	203.704
845.47	1400.000
845.76	500.000
846.06	300.000
846.36	587.500
846.66	328.571
846.96	318.750
847.25	490.909
847.55	372.727
847.85	239.130
848.15	520.000
848.44	335.714
848.74	177.778
849.04	258.824
849.34	560.000
849.63	215.789
849.93	490.909
850.23	980.000
850.53	392.857
850.82	2350.000
851.12	-6100.000
851.42	4500.000
851.71	295.000
852.01	-1333.333
852.31	266.667
852.61	1600.000
852.90	261.905
853.20	236.000
853.50	311.765
853.79	247.619
854.09	183.333
854.39	331.250
854.68	172.973
854.98	209.677
855.28	170.000
855.57	200.000
855.87	192.593
856.17	252.632
856.46	320.000
856.76	247.059
857.05	206.897
857.35	250.000
857.65	380.000
857.94	169.565
858.24	226.923
858.53	285.000
858.83	250.000
859.13	366.667
859.42	0.000
859.72	588.889
860.01	463.636
860.31	259.091
860.60	305.263
860.90	243.478
861.20	555.556
861.49	516.667
861.79	-4700.000
862.08	650.000
862.38	247.619
862.67	346.154
862.97	347.059
863.26	488.889
863.56	250.000
863.85	441.667
864.15	637.500
864.44	393.333
864.74	983.333
865.03	587.500
865.33	284.211
865.62	400.000
865.92	376.923
866.21	408.333
866.51	0.000
866.80	481.818
867.10	1140.000
867.39	415.385
867.69	509.091
867.98	310.526
868.27	509.091
868.57	310.526
868.86	-4300.000
869.16	375.000
869.45	2200.000
869.75	-5100.000
870.04	450.000
870.33	657.143
870.63	1275.000
870.92	2250.000
871.22	900.000
871.51	323.529
871.80	266.667
872.10	421.429
>>>>>End Processed Spectral Data<<<<<
