SpectraSuite Data File
++++++++++++++++++++++++++++++++++++
Date: Wed May 13 19:23:26 PDT 2015
User: schluterlab
Dark Spectrum Present: Yes
Reference Spectrum Present: Yes
Number of Sampled Component Spectra: 1
Spectrometers: USB2E3373
Integration Time (usec): 3000 (USB2E3373)
Spectra Averaged: 3 (USB2E3373)
Boxcar Smoothing: 0 (USB2E3373)
Correct for Electrical Dark: No (USB2E3373)
Strobe/Lamp Enabled: No (USB2E3373)
Correct for Detector Non-linearity: No (USB2E3373)
Correct for Stray Light: No (USB2E3373)
Number of Pixels in Processed Spectrum: 2048
>>>>>Begin Processed Spectral Data<<<<<
178.53	0.000
178.91	-1400.000
179.29	-1375.000
179.67	-250.000
180.04	-1050.000
180.42	2900.000
180.80	1160.000
181.18	-1200.000
181.56	785.714
181.94	0.000
182.31	-757.143
182.69	1733.333
183.07	-650.000
183.45	-677.778
183.83	572.727
184.20	-440.000
184.58	2500.000
184.96	5500.000
185.34	-940.000
185.72	-725.000
186.09	-2900.000
186.47	2800.000
186.85	2150.000
187.23	5300.000
187.61	-1700.000
187.98	1525.000
188.36	536.364
188.74	536.364
189.12	-980.000
189.49	560.000
189.87	-5900.000
190.25	-1500.000
190.63	471.429
191.00	461.538
191.38	983.333
191.76	-1275.000
192.14	1575.000
192.51	587.500
192.89	950.000
193.27	700.000
193.65	-1275.000
194.02	500.000
194.40	1140.000
194.78	560.000
195.15	558.333
195.53	640.000
195.91	-2550.000
196.29	337.500
196.66	331.579
197.04	-470.000
197.42	0.000
197.79	680.000
198.17	-5000.000
198.55	614.286
198.92	775.000
199.30	1040.000
199.68	0.000
200.05	311.111
200.43	857.143
200.81	4700.000
201.18	1866.667
201.56	-2000.000
201.94	577.778
202.31	577.778
202.69	450.000
203.07	490.000
203.44	0.000
203.82	1425.000
204.19	785.714
204.57	500.000
204.95	550.000
205.32	1700.000
205.70	536.364
206.08	385.714
206.45	2550.000
206.83	362.500
207.20	1116.667
207.58	960.000
207.96	327.778
208.33	800.000
208.71	-1016.667
209.08	828.571
209.46	700.000
209.84	545.455
210.21	-1933.333
210.59	1250.000
210.96	-425.000
211.34	2550.000
211.71	640.000
212.09	850.000
212.46	0.000
212.84	1766.667
213.22	1300.000
213.59	-5600.000
213.97	1016.667
214.34	928.571
214.72	663.636
215.09	1120.000
215.47	-2450.000
215.84	-2850.000
216.22	2033.333
216.59	450.000
216.97	1675.000
217.34	572.727
217.72	-1033.333
218.09	0.000
218.47	-5000.000
218.84	666.667
219.22	757.143
219.59	2033.333
219.97	-671.429
220.34	1100.000
220.72	-2000.000
221.09	478.571
221.47	1500.000
221.84	-1016.667
222.22	0.000
222.59	1575.000
222.97	-2600.000
223.34	1060.000
223.72	453.846
224.09	1180.000
224.46	2650.000
224.84	-5100.000
225.21	-1240.000
225.59	-5700.000
225.96	610.000
226.34	340.000
226.71	2850.000
227.08	662.500
227.46	640.000
227.83	-1250.000
228.21	-2900.000
228.58	755.556
228.95	-2550.000
229.33	-2600.000
229.70	1966.667
230.08	771.429
230.45	-900.000
230.82	375.000
231.20	816.667
231.57	771.429
231.95	550.000
232.32	268.182
232.69	436.364
233.07	771.429
233.44	438.462
233.81	-1633.333
234.19	342.105
234.56	558.333
234.93	341.667
235.31	454.545
235.68	338.462
236.05	400.000
236.43	196.970
236.80	257.895
237.17	5100.000
237.55	200.000
237.92	228.571
238.29	300.000
238.67	187.097
239.04	231.034
239.41	166.667
239.79	117.391
240.16	142.857
240.53	143.182
240.91	107.843
241.28	120.000
241.65	110.000
242.02	111.594
242.40	100.000
242.77	110.000
243.14	81.720
243.51	89.888
243.89	76.471
244.26	61.111
244.63	79.570
245.00	58.511
245.38	69.307
245.75	66.355
246.12	66.972
246.49	64.964
246.87	64.000
247.24	57.692
247.61	61.429
247.98	55.556
248.36	43.919
248.73	51.592
249.10	57.325
249.47	43.503
249.84	53.476
250.22	42.781
250.59	55.030
250.96	45.455
251.33	46.445
251.70	44.554
252.08	39.048
252.45	39.013
252.82	39.565
253.19	41.702
253.56	41.569
253.94	43.154
254.31	43.359
254.68	36.154
255.05	38.745
255.42	36.179
255.79	37.132
256.16	39.350
256.54	35.336
256.91	38.078
257.28	36.331
257.65	34.983
258.02	32.919
258.39	36.278
258.76	33.445
259.14	36.905
259.51	34.043
259.88	32.919
260.25	34.139
260.62	32.659
260.99	36.957
261.36	34.234
261.73	31.805
262.10	31.686
262.47	31.268
262.85	32.033
263.22	27.920
263.59	34.473
263.96	33.242
264.33	33.159
264.70	32.368
265.07	31.714
265.44	30.808
265.81	29.440
266.18	30.905
266.55	31.220
266.92	30.467
267.29	31.250
267.66	28.899
268.03	28.409
268.40	28.738
268.77	28.640
269.14	26.802
269.51	28.894
269.88	30.070
270.25	30.700
270.62	27.640
270.99	30.753
271.36	29.185
271.73	28.037
272.10	26.522
272.47	28.817
272.84	30.303
273.21	31.027
273.58	28.166
273.95	25.786
274.32	26.033
274.69	28.051
275.06	26.181
275.43	28.936
275.80	26.253
276.17	25.662
276.54	30.769
276.91	24.704
277.28	27.539
277.65	26.692
278.02	27.536
278.39	26.758
278.76	27.091
279.13	27.736
279.50	24.767
279.87	27.888
280.23	25.749
280.60	26.112
280.97	25.323
281.34	28.142
281.71	26.909
282.08	28.983
282.45	23.818
282.82	25.400
283.19	22.103
283.56	24.912
283.92	25.042
284.29	25.044
284.66	27.949
285.03	24.593
285.40	24.824
285.77	25.421
286.14	26.079
286.51	24.500
286.87	24.444
287.24	24.430
287.61	24.238
287.98	24.513
288.35	23.138
288.72	24.611
289.08	25.039
289.45	22.570
289.82	24.715
290.19	23.077
290.56	24.502
290.93	22.810
291.29	23.773
291.66	22.566
292.03	25.145
292.40	22.761
292.77	22.337
293.13	21.343
293.50	22.303
293.87	22.963
294.24	19.556
294.60	18.923
294.97	21.221
295.34	21.439
295.71	22.585
296.08	21.083
296.44	20.220
296.81	20.079
297.18	22.222
297.55	18.602
297.91	19.657
298.28	20.080
298.65	20.366
299.02	19.895
299.38	20.584
299.75	17.116
300.12	18.774
300.48	19.625
300.85	19.975
301.22	19.745
301.59	20.076
301.95	19.647
302.32	19.127
302.69	19.235
303.05	19.273
303.42	18.765
303.79	18.460
304.15	19.114
304.52	16.802
304.89	19.164
305.25	17.633
305.62	19.026
305.99	17.710
306.35	18.904
306.72	18.834
307.09	18.757
307.45	19.257
307.82	17.299
308.19	18.764
308.55	18.986
308.92	18.367
309.29	18.374
309.65	18.770
310.02	18.710
310.38	18.387
310.75	20.275
311.12	18.321
311.48	18.391
311.85	19.916
312.22	19.147
312.58	19.647
312.95	19.113
313.31	19.320
313.68	17.983
314.05	21.598
314.41	21.407
314.78	20.242
315.14	20.258
315.51	21.524
315.87	20.693
316.24	20.556
316.61	20.468
316.97	22.701
317.34	20.548
317.70	22.371
318.07	22.329
318.43	22.994
318.80	22.587
319.16	23.258
319.53	23.171
319.89	24.000
320.26	26.300
320.62	25.000
320.99	26.465
321.35	26.263
321.72	25.770
322.08	26.259
322.45	27.960
322.81	27.326
323.18	28.227
323.54	28.015
323.91	28.396
324.27	29.063
324.64	28.798
325.00	29.847
325.37	30.846
325.73	31.508
326.10	31.156
326.46	31.093
326.83	32.959
327.19	32.195
327.56	33.275
327.92	33.683
328.29	33.718
328.65	35.083
329.01	33.935
329.38	33.765
329.74	34.903
330.11	35.438
330.47	35.721
330.84	36.213
331.20	36.066
331.56	36.330
331.93	36.481
332.29	36.025
332.66	35.841
333.02	36.106
333.38	36.043
333.75	37.611
334.11	36.477
334.48	37.977
334.84	37.224
335.20	37.455
335.57	36.355
335.93	35.446
336.29	37.271
336.66	36.790
337.02	36.833
337.38	39.444
337.75	36.364
338.11	36.168
338.47	37.937
338.84	38.222
339.20	37.339
339.56	39.416
339.93	38.455
340.29	37.409
340.65	36.988
341.02	37.347
341.38	38.879
341.74	36.579
342.11	37.118
342.47	38.150
342.83	37.243
343.20	37.922
343.56	37.489
343.92	36.930
344.28	38.520
344.65	38.865
345.01	36.616
345.37	36.535
345.73	37.563
346.10	37.681
346.46	36.610
346.82	36.573
347.19	37.009
347.55	36.700
347.91	37.540
348.27	37.880
348.63	37.542
349.00	38.026
349.36	37.274
349.72	38.653
350.08	37.763
350.45	37.998
350.81	37.530
351.17	37.763
351.53	37.674
351.89	37.789
352.26	38.674
352.62	37.690
352.98	37.277
353.34	37.880
353.70	36.825
354.07	38.710
354.43	37.381
354.79	37.490
355.15	37.191
355.51	38.609
355.87	38.041
356.24	38.111
356.60	38.011
356.96	38.777
357.32	38.757
357.68	38.189
358.04	38.480
358.40	39.272
358.77	38.263
359.13	38.279
359.49	38.667
359.85	38.095
360.21	38.915
360.57	39.533
360.93	38.077
361.29	39.002
361.66	38.854
362.02	38.433
362.38	38.935
362.74	39.360
363.10	37.676
363.46	38.151
363.82	40.212
364.18	37.739
364.54	38.113
364.90	38.669
365.26	38.750
365.62	39.299
365.98	37.619
366.35	37.822
366.71	39.696
367.07	39.330
367.43	38.824
367.79	39.971
368.15	39.511
368.51	38.953
368.87	38.330
369.23	39.868
369.59	39.319
369.95	39.044
370.31	39.031
370.67	39.203
371.03	40.375
371.39	39.723
371.75	38.897
372.11	38.691
372.47	40.396
372.83	39.841
373.19	39.523
373.55	40.503
373.91	40.648
374.27	39.794
374.63	39.855
374.99	38.701
375.35	39.358
375.71	38.657
376.07	40.398
376.42	39.546
376.78	40.225
377.14	40.909
377.50	39.603
377.86	38.364
378.22	40.076
378.58	38.722
378.94	39.786
379.30	39.885
379.66	39.784
380.02	39.435
380.38	38.494
380.74	40.516
381.09	40.281
381.45	39.766
381.81	40.848
382.17	40.573
382.53	38.805
382.89	40.062
383.25	39.525
383.61	40.892
383.97	41.088
384.32	39.988
384.68	40.087
385.04	39.951
385.40	39.814
385.76	39.619
386.12	40.285
386.48	42.102
386.83	41.501
387.19	41.373
387.55	40.569
387.91	40.810
388.27	39.424
388.62	40.565
388.98	40.725
389.34	39.862
389.70	40.527
390.06	41.255
390.42	40.986
390.77	39.949
391.13	41.161
391.49	41.117
391.85	40.420
392.20	38.612
392.56	39.773
392.92	40.024
393.28	39.882
393.64	40.588
393.99	40.073
394.35	41.129
394.71	39.649
395.07	40.374
395.42	41.286
395.78	41.158
396.14	40.844
396.50	40.288
396.85	41.449
397.21	40.444
397.57	40.360
397.92	41.166
398.28	39.462
398.64	39.964
399.00	40.067
399.35	40.327
399.71	39.873
400.07	40.568
400.42	40.307
400.78	40.470
401.14	39.024
401.49	41.254
401.85	39.685
402.21	39.461
402.57	40.592
402.92	40.984
403.28	40.600
403.63	39.480
403.99	39.936
404.35	40.182
404.70	39.748
405.06	39.546
405.42	40.549
405.77	38.914
406.13	38.883
406.49	39.326
406.84	39.988
407.20	38.830
407.55	40.204
407.91	40.467
408.27	40.459
408.62	39.314
408.98	38.971
409.34	38.253
409.69	40.065
410.05	39.839
410.40	40.061
410.76	38.650
411.11	38.963
411.47	39.233
411.83	39.585
412.18	39.147
412.54	40.535
412.89	39.217
413.25	40.024
413.60	39.716
413.96	38.130
414.31	38.761
414.67	39.797
415.03	40.000
415.38	40.077
415.74	38.778
416.09	40.105
416.45	39.290
416.80	39.194
417.16	39.812
417.51	39.748
417.87	38.471
418.22	39.495
418.58	38.670
418.93	40.111
419.29	38.638
419.64	39.987
420.00	39.390
420.35	39.014
420.71	39.868
421.06	38.783
421.42	39.123
421.77	39.070
422.12	39.921
422.48	37.453
422.83	39.546
423.19	39.006
423.54	38.712
423.90	38.783
424.25	39.084
424.61	39.226
424.96	39.125
425.31	39.258
425.67	38.820
426.02	38.400
426.38	40.537
426.73	39.087
427.09	39.574
427.44	39.390
427.79	39.505
428.15	38.988
428.50	39.672
428.85	38.915
429.21	38.432
429.56	38.673
429.92	39.356
430.27	38.232
430.62	37.942
430.98	38.038
431.33	38.505
431.68	39.162
432.04	38.765
432.39	40.091
432.74	38.719
433.10	39.728
433.45	39.767
433.80	40.355
434.16	39.797
434.51	39.053
434.86	39.339
435.22	39.689
435.57	39.757
435.92	39.672
436.28	40.688
436.63	39.790
436.98	40.698
437.34	40.072
437.69	40.665
438.04	39.348
438.39	39.582
438.75	40.151
439.10	40.391
439.45	40.968
439.81	39.879
440.16	40.147
440.51	39.719
440.86	40.475
441.22	39.433
441.57	40.764
441.92	40.686
442.27	40.258
442.63	40.232
442.98	41.070
443.33	39.674
443.68	40.165
444.03	40.312
444.39	39.241
444.74	40.043
445.09	40.539
445.44	39.584
445.79	39.386
446.15	39.915
446.50	39.634
446.85	39.466
447.20	39.776
447.55	40.592
447.91	40.541
448.26	40.401
448.61	41.153
448.96	40.089
449.31	39.989
449.66	40.180
450.02	39.889
450.37	39.853
450.72	40.666
451.07	38.696
451.42	39.331
451.77	40.986
452.12	40.416
452.47	40.112
452.83	40.967
453.18	39.976
453.53	41.435
453.88	39.752
454.23	39.689
454.58	40.703
454.93	41.704
455.28	39.900
455.63	39.927
455.98	41.488
456.34	40.578
456.69	41.390
457.04	40.000
457.39	38.925
457.74	39.118
458.09	39.908
458.44	40.992
458.79	38.449
459.14	40.181
459.49	39.288
459.84	40.277
460.19	39.423
460.54	39.294
460.89	39.440
461.24	40.741
461.59	41.139
461.94	40.382
462.29	41.128
462.64	38.928
462.99	38.712
463.34	40.467
463.69	39.775
464.04	39.246
464.39	39.710
464.74	39.929
465.09	39.204
465.44	39.114
465.79	38.814
466.14	39.956
466.49	38.543
466.84	39.054
467.19	37.960
467.54	39.938
467.89	39.136
468.24	38.569
468.59	39.621
468.94	38.485
469.29	38.882
469.64	41.700
469.99	39.783
470.34	39.498
470.68	40.014
471.03	38.571
471.38	40.375
471.73	39.241
472.08	39.211
472.43	39.573
472.78	39.697
473.13	39.153
473.48	38.889
473.83	39.085
474.17	37.088
474.52	38.648
474.87	39.054
475.22	38.654
475.57	38.098
475.92	38.343
476.27	38.670
476.61	37.948
476.96	39.032
477.31	36.944
477.66	38.567
478.01	37.219
478.36	38.974
478.70	37.591
479.05	37.327
479.40	38.025
479.75	37.722
480.10	37.177
480.45	36.554
480.79	36.980
481.14	38.258
481.49	38.016
481.84	36.763
482.19	36.483
482.53	37.018
482.88	37.645
483.23	36.402
483.58	37.352
483.92	37.254
484.27	35.904
484.62	36.164
484.97	35.278
485.31	36.027
485.66	34.587
486.01	33.585
486.36	32.275
486.70	32.376
487.05	33.085
487.40	34.065
487.75	34.584
488.09	35.547
488.44	35.023
488.79	36.347
489.13	36.669
489.48	35.808
489.83	35.261
490.17	36.826
490.52	36.182
490.87	35.866
491.22	35.880
491.56	35.171
491.91	35.877
492.26	35.508
492.60	35.899
492.95	34.986
493.30	35.421
493.64	35.371
493.99	35.376
494.34	35.430
494.68	35.256
495.03	36.137
495.37	36.110
495.72	36.209
496.07	35.638
496.41	34.248
496.76	34.960
497.11	34.804
497.45	35.165
497.80	35.125
498.14	34.493
498.49	35.707
498.84	35.187
499.18	34.810
499.53	35.043
499.87	35.275
500.22	34.715
500.56	35.340
500.91	35.240
501.26	35.088
501.60	34.789
501.95	34.326
502.29	35.520
502.64	34.404
502.98	35.063
503.33	34.186
503.67	33.875
504.02	34.284
504.36	35.049
504.71	34.343
505.06	33.976
505.40	34.759
505.75	34.089
506.09	33.673
506.44	33.892
506.78	33.415
507.13	35.184
507.47	34.293
507.82	33.891
508.16	34.904
508.51	34.855
508.85	33.764
509.19	33.622
509.54	34.031
509.88	34.467
510.23	33.728
510.57	35.088
510.92	34.231
511.26	33.967
511.61	34.025
511.95	33.246
512.30	33.987
512.64	33.477
512.98	34.620
513.33	34.047
513.67	33.565
514.02	33.387
514.36	33.315
514.70	33.094
515.05	34.021
515.39	34.268
515.74	34.065
516.08	34.209
516.42	34.295
516.77	33.946
517.11	32.519
517.46	34.029
517.80	34.843
518.14	33.758
518.49	34.189
518.83	34.034
519.17	33.834
519.52	33.899
519.86	34.284
520.20	34.162
520.55	33.932
520.89	33.577
521.23	33.112
521.58	33.854
521.92	34.170
522.26	32.764
522.61	33.645
522.95	33.026
523.29	33.414
523.64	33.232
523.98	33.580
524.32	32.992
524.66	33.434
525.01	32.414
525.35	32.776
525.69	32.081
526.04	32.897
526.38	33.435
526.72	33.558
527.06	33.208
527.41	31.559
527.75	33.055
528.09	33.590
528.43	32.951
528.78	33.374
529.12	32.000
529.46	32.762
529.80	33.478
530.15	33.209
530.49	32.000
530.83	32.342
531.17	32.963
531.51	32.555
531.86	32.968
532.20	33.442
532.54	32.223
532.88	32.798
533.22	31.668
533.57	31.111
533.91	30.945
534.25	31.713
534.59	31.605
534.93	31.469
535.27	31.141
535.62	31.868
535.96	31.701
536.30	31.596
536.64	32.003
536.98	31.652
537.32	32.456
537.66	33.267
538.01	32.456
538.35	31.933
538.69	32.929
539.03	30.929
539.37	31.757
539.71	30.590
540.05	31.569
540.39	31.429
540.73	31.242
541.07	31.538
541.42	31.963
541.76	31.935
542.10	31.177
542.44	30.993
542.78	31.686
543.12	30.326
543.46	31.672
543.80	32.141
544.14	29.910
544.48	31.365
544.82	31.687
545.16	31.165
545.50	30.656
545.84	31.586
546.18	30.505
546.52	31.177
546.86	31.615
547.20	31.288
547.54	30.661
547.88	30.676
548.22	30.075
548.56	30.252
548.90	30.026
549.24	30.505
549.58	30.969
549.92	30.495
550.26	31.463
550.60	30.705
550.94	30.845
551.28	30.578
551.62	31.129
551.96	30.316
552.30	30.922
552.64	31.237
552.98	30.644
553.32	30.681
553.66	30.470
554.00	31.229
554.34	29.538
554.68	30.544
555.02	30.677
555.36	29.993
555.69	28.890
556.03	30.081
556.37	29.536
556.71	30.150
557.05	31.583
557.39	30.861
557.73	30.769
558.07	30.964
558.41	29.667
558.75	30.272
559.08	29.679
559.42	29.630
559.76	30.147
560.10	29.622
560.44	29.909
560.78	30.007
561.12	28.430
561.45	30.117
561.79	29.202
562.13	29.376
562.47	29.440
562.81	29.219
563.15	29.298
563.48	28.183
563.82	28.963
564.16	29.169
564.50	28.451
564.84	28.382
565.17	28.507
565.51	28.626
565.85	28.871
566.19	27.865
566.52	29.006
566.86	28.210
567.20	27.712
567.54	28.139
567.88	27.051
568.21	27.989
568.55	27.654
568.89	27.140
569.23	26.693
569.56	26.073
569.90	25.736
570.24	25.870
570.57	25.638
570.91	25.016
571.25	25.232
571.59	25.184
571.92	24.770
572.26	24.321
572.60	24.414
572.93	24.648
573.27	25.377
573.61	24.428
573.95	24.651
574.28	24.623
574.62	24.028
574.96	23.632
575.29	23.982
575.63	24.136
575.97	24.317
576.30	24.243
576.64	23.983
576.98	24.210
577.31	24.191
577.65	23.996
577.98	23.683
578.32	23.272
578.66	23.732
578.99	23.648
579.33	24.014
579.67	23.109
580.00	23.855
580.34	24.134
580.67	23.753
581.01	23.679
581.35	23.624
581.68	23.303
582.02	22.652
582.35	23.128
582.69	23.309
583.02	23.289
583.36	23.519
583.70	23.801
584.03	24.321
584.37	24.611
584.70	23.981
585.04	23.679
585.37	23.835
585.71	24.107
586.04	23.436
586.38	24.269
586.72	24.717
587.05	23.581
587.39	23.720
587.72	23.731
588.06	23.986
588.39	23.923
588.73	24.113
589.06	24.400
589.40	24.478
589.73	25.026
590.07	24.520
590.40	24.954
590.73	24.746
591.07	25.682
591.40	24.800
591.74	26.277
592.07	24.738
592.41	24.473
592.74	24.644
593.08	24.017
593.41	24.011
593.75	23.111
594.08	23.936
594.41	23.895
594.75	24.658
595.08	23.658
595.42	24.413
595.75	24.110
596.09	25.009
596.42	24.519
596.75	25.201
597.09	25.022
597.42	24.536
597.75	25.097
598.09	25.130
598.42	24.613
598.76	23.997
599.09	23.641
599.42	23.581
599.76	23.829
600.09	22.805
600.42	23.996
600.76	23.357
601.09	23.716
601.42	23.592
601.76	24.288
602.09	24.387
602.42	23.925
602.76	24.587
603.09	23.997
603.42	24.209
603.76	23.399
604.09	23.924
604.42	24.134
604.76	25.137
605.09	24.596
605.42	24.498
605.75	24.007
606.09	24.075
606.42	24.193
606.75	24.430
607.09	23.734
607.42	23.663
607.75	23.671
608.08	24.186
608.42	24.966
608.75	24.031
609.08	24.514
609.41	24.560
609.75	23.869
610.08	24.788
610.41	24.441
610.74	23.888
611.07	24.654
611.41	24.975
611.74	25.138
612.07	25.259
612.40	25.079
612.73	25.053
613.07	26.293
613.40	25.329
613.73	24.279
614.06	24.570
614.39	24.279
614.72	24.474
615.06	24.895
615.39	24.045
615.72	24.489
616.05	24.136
616.38	25.236
616.71	25.653
617.05	25.559
617.38	25.316
617.71	25.646
618.04	25.361
618.37	25.724
618.70	25.887
619.03	26.776
619.36	26.205
619.69	26.690
620.03	25.962
620.36	26.003
620.69	25.890
621.02	26.696
621.35	26.077
621.68	26.947
622.01	25.774
622.34	25.946
622.67	26.084
623.00	25.752
623.33	24.946
623.66	26.662
623.99	26.289
624.32	25.820
624.65	25.494
624.99	25.354
625.32	25.489
625.65	25.845
625.98	26.826
626.31	26.983
626.64	26.857
626.97	26.600
627.30	26.933
627.63	27.646
627.96	26.997
628.29	27.209
628.62	27.447
628.95	29.057
629.28	26.642
629.61	28.139
629.94	27.143
630.26	27.169
630.59	28.503
630.92	28.352
631.25	26.950
631.58	29.329
631.91	26.978
632.24	26.266
632.57	27.807
632.90	27.412
633.23	28.747
633.56	30.169
633.89	28.199
634.22	29.512
634.55	30.296
634.88	28.144
635.20	29.271
635.53	28.434
635.86	30.693
636.19	29.059
636.52	28.374
636.85	28.637
637.18	29.147
637.51	29.433
637.83	26.757
638.16	28.900
638.49	29.597
638.82	29.836
639.15	29.625
639.48	30.424
639.81	30.027
640.13	30.339
640.46	28.859
640.79	31.176
641.12	29.023
641.45	29.190
641.77	30.928
642.10	30.556
642.43	30.330
642.76	29.876
643.09	32.209
643.41	31.715
643.74	32.870
644.07	31.250
644.40	31.902
644.73	33.228
645.05	31.379
645.38	30.174
645.71	30.757
646.04	30.897
646.36	34.391
646.69	32.274
647.02	31.633
647.35	31.787
647.67	33.097
648.00	31.057
648.33	32.013
648.66	30.909
648.98	33.283
649.31	30.493
649.64	29.596
649.96	30.104
650.29	31.122
650.62	31.068
650.94	31.767
651.27	32.939
651.60	30.782
651.92	31.629
652.25	32.248
652.58	30.062
652.90	31.122
653.23	29.122
653.56	27.874
653.88	31.537
654.21	30.964
654.54	31.188
654.86	29.751
655.19	26.351
655.52	19.665
655.84	16.338
656.17	21.228
656.49	28.596
656.82	29.834
657.15	22.456
657.47	16.828
657.80	12.944
658.13	13.645
658.45	20.384
658.78	20.931
659.10	22.172
659.43	23.281
659.75	24.833
660.08	27.089
660.41	29.143
660.73	30.877
661.06	30.732
661.38	31.636
661.71	32.308
662.03	35.108
662.36	32.406
662.68	34.137
663.01	34.545
663.33	31.847
663.66	33.403
663.98	33.045
664.31	32.983
664.63	31.984
664.96	35.211
665.28	35.861
665.61	31.969
665.93	29.175
666.26	33.671
666.58	31.381
666.91	36.786
667.23	35.281
667.56	31.749
667.88	36.752
668.21	34.328
668.53	34.273
668.86	31.602
669.18	34.542
669.50	34.130
669.83	35.948
670.15	33.556
670.48	33.551
670.80	33.836
671.13	32.696
671.45	33.191
671.77	32.790
672.10	31.238
672.42	28.269
672.75	29.022
673.07	29.049
673.39	31.465
673.72	32.617
674.04	31.765
674.37	30.680
674.69	31.902
675.01	29.707
675.34	34.292
675.66	36.000
675.98	31.772
676.31	34.244
676.63	31.635
676.95	31.447
677.28	34.112
677.60	33.846
677.92	32.068
678.25	32.238
678.57	33.865
678.89	31.864
679.22	30.648
679.54	32.061
679.86	31.193
680.18	30.769
680.51	33.156
680.83	30.605
681.15	32.453
681.48	32.703
681.80	33.075
682.12	31.992
682.44	29.207
682.77	32.383
683.09	35.193
683.41	36.142
683.73	33.996
684.06	33.471
684.38	31.115
684.70	30.814
685.02	33.208
685.34	30.037
685.67	28.497
685.99	28.351
686.31	27.645
686.63	28.799
686.96	29.643
687.28	32.671
687.60	29.891
687.92	31.993
688.24	30.989
688.56	30.924
688.89	32.365
689.21	33.843
689.53	30.898
689.85	33.703
690.17	31.056
690.49	34.183
690.82	32.944
691.14	29.018
691.46	31.857
691.78	32.932
692.10	31.612
692.42	31.737
692.74	30.913
693.06	32.128
693.39	33.881
693.71	33.188
694.03	32.632
694.35	32.900
694.67	32.494
694.99	34.390
695.31	33.824
695.63	34.450
695.95	36.430
696.27	32.234
696.59	34.456
696.91	34.197
697.23	33.099
697.56	32.836
697.88	30.470
698.20	30.000
698.52	29.462
698.84	32.294
699.16	29.032
699.48	31.829
699.80	35.749
700.12	38.961
700.44	32.891
700.76	36.464
701.08	31.034
701.40	34.637
701.72	36.735
702.04	42.614
702.36	35.411
702.68	34.561
703.00	37.950
703.32	34.574
703.64	33.244
703.96	33.705
704.28	32.849
704.60	39.296
704.91	37.685
705.23	37.537
705.55	42.857
705.87	39.203
706.19	38.869
706.51	34.891
706.83	36.061
707.15	36.975
707.47	32.323
707.79	36.364
708.11	32.192
708.43	33.095
708.74	31.888
709.06	34.026
709.38	34.908
709.70	37.209
710.02	36.499
710.34	37.879
710.66	35.522
710.98	36.648
711.29	37.500
711.61	35.103
711.93	34.615
712.25	38.264
712.57	41.176
712.89	36.332
713.20	39.210
713.52	37.171
713.84	36.076
714.16	33.841
714.48	36.207
714.80	38.298
715.11	36.888
715.43	36.499
715.75	37.391
716.07	35.144
716.39	38.558
716.70	40.199
717.02	38.849
717.34	39.929
717.66	39.925
717.97	40.239
718.29	37.778
718.61	41.606
718.93	42.279
719.24	38.062
719.56	36.271
719.88	41.017
720.20	35.473
720.51	42.857
720.83	39.405
721.15	35.448
721.46	37.589
721.78	41.219
722.10	38.868
722.42	42.105
722.73	38.202
723.05	38.525
723.37	39.271
723.68	42.857
724.00	41.057
724.32	42.339
724.63	41.463
724.95	41.841
725.27	43.725
725.58	35.547
725.90	40.876
726.22	35.472
726.53	39.236
726.85	37.884
727.16	40.214
727.48	35.816
727.80	39.773
728.11	38.406
728.43	35.769
728.74	40.860
729.06	38.686
729.38	42.279
729.69	38.434
730.01	37.543
730.32	37.153
730.64	34.783
730.96	34.653
731.27	37.417
731.59	34.862
731.90	36.443
732.22	36.335
732.53	33.437
732.85	36.218
733.16	32.476
733.48	36.213
733.80	36.364
734.11	39.809
734.43	31.953
734.74	32.571
735.06	28.080
735.37	38.439
735.69	34.395
736.00	36.601
736.32	35.202
736.63	37.380
736.95	37.380
737.26	34.694
737.58	32.903
737.89	35.452
738.21	37.884
738.52	35.714
738.83	38.491
739.15	41.154
739.46	40.876
739.78	38.194
740.09	34.462
740.41	38.065
740.72	35.889
741.04	38.519
741.35	37.083
741.66	46.222
741.98	41.981
742.29	44.976
742.61	46.983
742.92	37.557
743.23	41.880
743.55	43.600
743.86	35.088
744.18	42.478
744.49	48.325
744.80	47.418
745.12	47.273
745.43	39.207
745.74	50.000
746.06	46.789
746.37	42.152
746.68	44.796
747.00	49.074
747.31	43.333
747.62	41.150
747.94	40.969
748.25	38.723
748.56	48.458
748.88	45.545
749.19	49.000
749.50	44.651
749.82	37.805
750.13	38.776
750.44	38.321
750.75	35.789
751.07	38.585
751.38	40.418
751.69	41.516
752.01	39.850
752.32	34.657
752.63	36.525
752.94	37.705
753.26	43.600
753.57	36.585
753.88	38.672
754.19	39.286
754.51	39.583
754.82	35.740
755.13	37.358
755.44	35.338
755.75	37.591
756.07	37.943
756.38	37.226
756.69	37.584
757.00	32.335
757.31	31.157
757.63	31.579
757.94	31.099
758.25	30.637
758.56	28.148
758.87	29.839
759.18	36.364
759.50	36.991
759.81	34.579
760.12	30.000
760.43	33.524
760.74	30.978
761.05	32.768
761.36	33.422
761.67	34.091
761.99	34.472
762.30	35.069
762.61	37.786
762.92	40.234
763.23	39.916
763.54	44.800
763.85	37.500
764.16	40.000
764.47	39.924
764.78	33.569
765.10	32.595
765.41	35.103
765.72	32.335
766.03	32.602
766.34	32.000
766.65	39.574
766.96	42.308
767.27	45.178
767.58	48.958
767.89	50.000
768.20	48.276
768.51	42.640
768.82	41.743
769.13	38.211
769.44	39.271
769.75	41.631
770.06	38.991
770.37	37.104
770.68	42.130
770.99	43.111
771.30	33.197
771.61	43.498
771.92	40.574
772.23	44.958
772.54	45.128
772.85	47.644
773.16	46.277
773.47	46.739
773.78	56.345
774.09	42.857
774.39	45.614
774.70	52.469
775.01	54.348
775.32	50.980
775.63	54.605
775.94	47.482
776.25	70.866
776.56	59.701
776.87	56.557
777.18	58.594
777.48	64.885
777.79	62.879
778.10	50.370
778.41	66.964
778.72	48.905
779.03	53.691
779.34	51.678
779.65	50.676
779.95	53.988
780.26	51.634
780.57	51.724
780.88	57.031
781.19	49.624
781.50	58.784
781.80	49.686
782.11	46.328
782.42	50.000
782.73	44.785
783.04	52.703
783.34	54.225
783.65	62.329
783.96	54.478
784.27	51.049
784.57	51.799
784.88	62.037
785.19	56.349
785.50	62.264
785.81	55.970
786.11	63.115
786.42	62.016
786.73	61.947
787.04	63.208
787.34	67.857
787.65	60.000
787.96	55.856
788.26	63.636
788.57	66.949
788.88	71.901
789.19	59.722
789.49	59.848
789.80	60.305
790.11	74.286
790.41	70.297
790.72	71.084
791.03	86.957
791.33	80.233
791.64	69.072
791.95	73.267
792.25	77.778
792.56	83.117
792.87	83.333
793.17	88.608
793.48	87.356
793.79	75.862
794.09	69.318
794.40	65.546
794.70	65.441
795.01	56.296
795.32	53.957
795.62	53.543
795.93	56.897
796.23	67.257
796.54	78.824
796.85	67.568
797.15	108.451
797.46	103.030
797.76	81.928
798.07	84.810
798.37	86.154
798.68	100.000
798.99	85.915
799.29	94.805
799.60	79.545
799.90	95.890
800.21	98.507
800.51	115.517
800.82	124.561
801.12	93.443
801.43	92.424
801.73	86.486
802.04	101.587
802.34	100.000
802.65	92.188
802.95	120.339
803.26	100.000
803.56	87.143
803.87	100.000
804.17	97.059
804.48	120.370
804.78	118.966
805.09	97.059
805.39	105.769
805.70	107.143
806.00	116.393
806.30	83.333
806.61	87.805
806.91	81.013
807.22	72.368
807.52	89.552
807.83	95.775
808.13	109.375
808.43	88.333
808.74	88.158
809.04	92.754
809.35	97.015
809.65	97.368
809.95	120.968
810.26	94.915
810.56	95.238
810.86	138.636
811.17	145.238
811.47	110.000
811.77	109.259
812.08	125.455
812.38	130.000
812.69	158.333
812.99	161.364
813.29	126.531
813.59	123.810
813.90	142.857
814.20	120.000
814.50	96.923
814.81	100.000
815.11	120.408
815.41	109.836
815.72	152.381
816.02	136.364
816.32	159.524
816.62	132.500
816.93	146.341
817.23	157.143
817.53	152.273
817.84	181.818
818.14	139.130
818.44	122.222
818.74	182.353
819.04	177.500
819.35	185.714
819.65	161.765
819.95	171.429
820.25	270.000
820.56	153.846
820.86	152.273
821.16	134.884
821.46	166.667
821.76	150.000
822.07	171.429
822.37	140.000
822.67	190.909
822.97	109.804
823.27	210.714
823.57	154.054
823.88	162.500
824.18	216.667
824.48	154.762
824.78	224.000
825.08	241.667
825.38	178.378
825.69	148.780
825.99	258.333
826.29	196.552
826.59	165.789
826.89	171.053
827.19	188.235
827.49	190.323
827.79	165.909
828.09	143.182
828.39	148.936
828.70	153.061
829.00	200.000
829.30	187.097
829.60	152.500
829.90	373.333
830.20	235.714
830.50	204.348
830.80	200.000
831.10	223.333
831.40	210.000
831.70	213.043
832.00	238.462
832.30	222.222
832.60	356.250
832.90	193.333
833.20	442.857
833.50	206.452
833.80	196.552
834.10	196.875
834.40	211.538
834.70	294.444
835.00	295.238
835.30	182.857
835.60	323.077
835.90	244.828
836.20	378.571
836.50	200.000
836.80	192.000
837.10	163.889
837.40	314.286
837.70	300.000
838.00	192.593
838.30	247.619
838.60	328.571
838.90	246.154
839.19	310.000
839.49	450.000
839.79	335.000
840.09	300.000
840.39	304.762
840.69	278.261
840.99	283.333
841.29	600.000
841.59	450.000
841.88	325.000
842.18	189.655
842.48	285.714
842.78	246.667
843.08	260.870
843.38	156.250
843.68	983.333
843.97	223.077
844.27	220.690
844.57	261.905
844.87	300.000
845.17	240.741
845.47	1733.333
845.76	444.444
846.06	335.294
846.36	625.000
846.66	378.571
846.96	356.250
847.25	427.273
847.55	390.909
847.85	273.913
848.15	570.000
848.44	364.286
848.74	261.111
849.04	264.706
849.34	590.000
849.63	242.105
849.93	445.455
850.23	960.000
850.53	450.000
850.82	2500.000
851.12	-5100.000
851.42	4800.000
851.71	315.000
852.01	-1800.000
852.31	266.667
852.61	2033.333
852.90	309.524
853.20	268.000
853.50	400.000
853.79	319.048
854.09	233.333
854.39	275.000
854.68	167.568
854.98	206.452
855.28	203.333
855.57	241.379
855.87	266.667
856.17	252.632
856.46	273.333
856.76	300.000
857.05	203.448
857.35	212.500
857.65	366.667
857.94	260.870
858.24	234.615
858.53	310.000
858.83	254.545
859.13	360.000
859.42	0.000
859.72	655.556
860.01	472.727
860.31	295.455
860.60	284.211
860.90	217.391
861.20	588.889
861.49	533.333
861.79	-5200.000
862.08	737.500
862.38	328.571
862.67	315.385
862.97	370.588
863.26	522.222
863.56	266.667
863.85	391.667
864.15	612.500
864.44	380.000
864.74	916.667
865.03	700.000
865.33	326.316
865.62	600.000
865.92	492.308
866.21	533.333
866.51	0.000
866.80	518.182
867.10	1340.000
867.39	407.692
867.69	563.636
867.98	315.789
868.27	481.818
868.57	336.842
868.86	-4400.000
869.16	381.250
869.45	2350.000
869.75	-4900.000
870.04	441.667
870.33	742.857
870.63	1350.000
870.92	2750.000
871.22	700.000
871.51	364.706
871.80	261.905
872.10	328.571
>>>>>End Processed Spectral Data<<<<<
