SpectraSuite Data File
++++++++++++++++++++++++++++++++++++
Date: Wed May 13 19:30:16 PDT 2015
User: schluterlab
Dark Spectrum Present: Yes
Reference Spectrum Present: Yes
Number of Sampled Component Spectra: 1
Spectrometers: USB2E3373
Integration Time (usec): 3000 (USB2E3373)
Spectra Averaged: 3 (USB2E3373)
Boxcar Smoothing: 0 (USB2E3373)
Correct for Electrical Dark: No (USB2E3373)
Strobe/Lamp Enabled: No (USB2E3373)
Correct for Detector Non-linearity: No (USB2E3373)
Correct for Stray Light: No (USB2E3373)
Number of Pixels in Processed Spectrum: 2048
>>>>>Begin Processed Spectral Data<<<<<
178.53	0.000
178.91	-1100.000
179.29	-1425.000
179.67	-227.778
180.04	-1325.000
180.42	2750.000
180.80	960.000
181.18	-1250.000
181.56	728.571
181.94	0.000
182.31	-728.571
182.69	1833.333
183.07	-525.000
183.45	-522.222
183.83	536.364
184.20	-480.000
184.58	2350.000
184.96	5100.000
185.34	-980.000
185.72	-525.000
186.09	-2300.000
186.47	3250.000
186.85	2450.000
187.23	5100.000
187.61	-1633.333
187.98	1350.000
188.36	627.273
188.74	527.273
189.12	-860.000
189.49	550.000
189.87	-5700.000
190.25	-1325.000
190.63	428.571
191.00	515.385
191.38	966.667
191.76	-1200.000
192.14	1525.000
192.51	562.500
192.89	1083.333
193.27	737.500
193.65	-1225.000
194.02	600.000
194.40	1020.000
194.78	570.000
195.15	491.667
195.53	580.000
195.91	-2550.000
196.29	381.250
196.66	289.474
197.04	-340.000
197.42	0.000
197.79	600.000
198.17	-4400.000
198.55	800.000
198.92	675.000
199.30	1020.000
199.68	0.000
200.05	333.333
200.43	842.857
200.81	5100.000
201.18	1833.333
201.56	-1366.667
201.94	466.667
202.31	511.111
202.69	525.000
203.07	550.000
203.44	0.000
203.82	1400.000
204.19	685.714
204.57	435.714
204.95	625.000
205.32	1666.667
205.70	563.636
206.08	371.429
206.45	2900.000
206.83	343.750
207.20	966.667
207.58	700.000
207.96	305.556
208.33	812.500
208.71	-916.667
209.08	885.714
209.46	633.333
209.84	490.909
210.21	-1600.000
210.59	1500.000
210.96	-462.500
211.34	2800.000
211.71	610.000
212.09	866.667
212.46	0.000
212.84	1400.000
213.22	1200.000
213.59	-5400.000
213.97	1000.000
214.34	800.000
214.72	518.182
215.09	1220.000
215.47	-2550.000
215.84	-3000.000
216.22	1766.667
216.59	392.857
216.97	1225.000
217.34	554.545
217.72	-816.667
218.09	0.000
218.47	-5400.000
218.84	733.333
219.22	685.714
219.59	1766.667
219.97	-657.143
220.34	1040.000
220.72	-1666.667
221.09	428.571
221.47	1525.000
221.84	-966.667
222.22	0.000
222.59	1525.000
222.97	-2500.000
223.34	1300.000
223.72	384.615
224.09	1180.000
224.46	2200.000
224.84	-4400.000
225.21	-960.000
225.59	-4800.000
225.96	690.000
226.34	310.000
226.71	2600.000
227.08	750.000
227.46	660.000
227.83	-1075.000
228.21	-2550.000
228.58	644.444
228.95	-2600.000
229.33	-3050.000
229.70	1800.000
230.08	885.714
230.45	-1000.000
230.82	441.667
231.20	900.000
231.57	728.571
231.95	483.333
232.32	227.273
232.69	400.000
233.07	628.571
233.44	292.308
233.81	-1600.000
234.19	347.368
234.56	500.000
234.93	458.333
235.31	581.818
235.68	369.231
236.05	385.714
236.43	163.636
236.80	294.737
237.17	5200.000
237.55	295.238
237.92	242.857
238.29	276.190
238.67	222.581
239.04	200.000
239.41	147.222
239.79	154.348
240.16	159.524
240.53	170.455
240.91	123.529
241.28	164.000
241.65	144.000
242.02	126.087
242.40	122.581
242.77	155.000
243.14	92.473
243.51	113.483
243.89	110.588
244.26	88.889
244.63	101.075
245.00	97.872
245.38	101.980
245.75	87.850
246.12	88.073
246.49	83.942
246.87	86.400
247.24	83.077
247.61	75.000
247.98	72.549
248.36	70.946
248.73	75.159
249.10	81.529
249.47	80.226
249.84	70.588
250.22	68.449
250.59	73.964
250.96	71.717
251.33	70.142
251.70	74.257
252.08	68.095
252.45	66.816
252.82	66.522
253.19	64.255
253.56	66.275
253.94	68.880
254.31	69.922
254.68	63.462
255.05	61.993
255.42	64.228
255.79	67.279
256.16	65.343
256.54	60.071
256.91	63.345
257.28	59.353
257.65	59.406
258.02	60.559
258.39	59.306
258.76	59.866
259.14	58.333
259.51	58.055
259.88	58.075
260.25	58.912
260.62	58.671
260.99	58.385
261.36	57.958
261.73	57.880
262.10	54.942
262.47	59.437
262.85	57.103
263.22	56.125
263.59	63.248
263.96	54.396
264.33	57.180
264.70	56.316
265.07	54.476
265.44	54.545
265.81	53.041
266.18	54.523
266.55	54.390
266.92	57.248
267.29	53.704
267.66	50.688
268.03	53.409
268.40	54.206
268.77	52.029
269.14	52.703
269.51	54.402
269.88	55.245
270.25	54.853
270.62	54.831
270.99	56.344
271.36	53.004
271.73	52.804
272.10	52.391
272.47	52.903
272.84	51.732
273.21	52.830
273.58	50.437
273.95	51.572
274.32	51.033
274.69	52.677
275.06	49.409
275.43	52.766
275.80	51.303
276.17	53.971
276.54	53.846
276.91	50.395
277.28	48.047
277.65	51.838
278.02	50.311
278.39	53.906
278.76	48.364
279.13	49.245
279.50	50.279
279.87	50.199
280.23	51.098
280.60	49.710
280.97	49.723
281.34	51.858
281.71	48.909
282.08	51.440
282.45	49.273
282.82	49.556
283.19	46.524
283.56	47.719
283.92	49.915
284.29	48.325
284.66	49.002
285.03	47.740
285.40	50.176
285.77	46.633
286.14	49.568
286.51	47.167
286.87	43.419
287.24	47.557
287.61	45.425
287.98	47.078
288.35	43.899
288.72	45.327
289.08	45.227
289.45	45.470
289.82	43.740
290.19	43.799
290.56	43.338
290.93	41.390
291.29	44.325
291.66	40.560
292.03	43.169
292.40	43.319
292.77	42.604
293.13	43.284
293.50	39.796
293.87	40.889
294.24	41.185
294.60	41.048
294.97	39.535
295.34	40.903
295.71	41.335
296.08	40.883
296.44	40.028
296.81	37.649
297.18	41.599
297.55	34.565
297.91	37.863
298.28	38.956
298.65	39.164
299.02	37.418
299.38	37.716
299.75	37.601
300.12	35.121
300.48	36.250
300.85	35.758
301.22	36.051
301.59	33.712
301.95	36.650
302.32	36.842
302.69	36.081
303.05	34.667
303.42	32.716
303.79	34.881
304.15	32.401
304.52	34.878
304.89	35.889
305.25	33.063
305.62	32.616
305.99	34.002
306.35	33.781
306.72	33.969
307.09	34.184
307.45	34.797
307.82	32.478
308.19	32.892
308.55	34.088
308.92	34.264
309.29	32.524
309.65	32.450
310.02	34.038
310.38	33.656
310.75	32.841
311.12	32.344
311.48	31.975
311.85	34.067
312.22	32.778
312.58	32.432
312.95	33.791
313.31	31.748
313.68	32.432
314.05	32.939
314.41	31.256
314.78	32.427
315.14	30.785
315.51	33.265
315.87	31.683
316.24	31.579
316.61	31.287
316.97	31.605
317.34	30.528
317.70	31.931
318.07	31.858
318.43	31.507
318.80	32.615
319.16	31.638
319.53	31.707
319.89	32.476
320.26	30.800
320.62	31.845
320.99	32.525
321.35	31.414
321.72	31.930
322.08	33.366
322.45	33.134
322.81	31.492
323.18	31.888
323.54	32.653
323.91	30.943
324.27	30.880
324.64	31.500
325.00	30.568
325.37	31.301
325.73	31.329
326.10	30.274
326.46	30.914
326.83	31.752
327.19	30.145
327.56	29.965
327.92	31.671
328.29	31.411
328.65	32.689
329.01	31.588
329.38	30.990
329.74	31.394
330.11	31.385
330.47	29.936
330.84	31.158
331.20	30.965
331.56	31.284
331.93	30.463
332.29	29.902
332.66	31.681
333.02	30.439
333.38	31.527
333.75	30.392
334.11	30.783
334.48	30.967
334.84	30.515
335.20	30.182
335.57	30.372
335.93	29.464
336.29	30.220
336.66	31.199
337.02	30.136
337.38	29.907
337.75	29.947
338.11	30.976
338.47	30.295
338.84	30.156
339.20	29.725
339.56	29.836
339.93	30.455
340.29	29.891
340.65	29.055
341.02	29.581
341.38	28.737
341.74	27.456
342.11	28.297
342.47	30.044
342.83	29.452
343.20	30.130
343.56	28.559
343.92	29.386
344.28	30.527
344.65	31.470
345.01	28.956
345.37	29.588
345.73	30.034
346.10	29.582
346.46	28.729
346.82	30.231
347.19	27.652
347.55	29.064
347.91	28.803
348.27	29.910
348.63	29.097
349.00	28.803
349.36	28.325
349.72	27.987
350.08	28.444
350.45	28.560
350.81	28.351
351.17	29.417
351.53	29.894
351.89	28.713
352.26	29.282
352.62	29.030
352.98	28.039
353.34	30.238
353.70	28.642
354.07	29.355
354.43	27.937
354.79	27.916
355.15	27.614
355.51	29.416
355.87	28.327
356.24	28.746
356.60	27.666
356.96	27.997
357.32	28.046
357.68	28.189
358.04	26.603
358.40	28.424
358.77	27.700
359.13	27.624
359.49	28.314
359.85	27.302
360.21	27.592
360.57	28.560
360.93	27.385
361.29	27.286
361.66	26.703
362.02	27.537
362.38	26.996
362.74	27.530
363.10	27.757
363.46	26.999
363.82	27.967
364.18	26.065
364.54	26.672
364.90	27.479
365.26	26.912
365.62	26.589
365.98	26.662
366.35	26.146
366.71	26.681
367.07	26.730
367.43	26.560
367.79	27.766
368.15	27.802
368.51	26.017
368.87	26.196
369.23	25.823
369.59	27.154
369.95	26.103
370.31	26.852
370.67	26.159
371.03	26.966
371.39	26.822
371.75	25.515
372.11	25.676
372.47	26.686
372.83	25.937
373.19	25.867
373.55	26.534
373.91	26.878
374.27	25.498
374.63	25.455
374.99	26.766
375.35	24.983
375.71	26.114
376.07	26.269
376.42	25.516
376.78	27.369
377.14	25.577
377.50	26.225
377.86	24.934
378.22	25.537
378.58	25.000
378.94	25.644
379.30	24.936
379.66	26.206
380.02	25.246
380.38	24.954
380.74	25.690
381.09	25.917
381.45	25.876
381.81	25.369
382.17	25.924
382.53	24.403
382.89	25.802
383.25	24.453
383.61	25.713
383.97	24.891
384.32	24.953
384.68	24.969
385.04	24.954
385.40	24.149
385.76	25.307
386.12	25.194
386.48	25.173
386.83	25.080
387.19	26.221
387.55	25.294
387.91	24.426
388.27	24.525
388.62	24.524
388.98	24.079
389.34	25.094
389.70	24.770
390.06	26.046
390.42	25.097
390.77	25.445
391.13	24.633
391.49	24.492
391.85	24.252
392.20	24.101
392.56	24.306
392.92	24.544
393.28	23.432
393.64	25.000
393.99	24.068
394.35	23.883
394.71	24.969
395.07	23.738
395.42	24.722
395.78	24.427
396.14	24.395
396.50	25.313
396.85	24.921
397.21	24.044
397.57	23.993
397.92	25.481
398.28	23.767
398.64	23.835
399.00	23.839
399.35	23.576
399.71	24.537
400.07	24.483
400.42	24.601
400.78	24.427
401.14	24.390
401.49	24.537
401.85	23.775
402.21	22.814
402.57	23.566
402.92	25.410
403.28	24.360
403.63	24.505
403.99	23.439
404.35	24.424
404.70	23.321
405.06	24.520
405.42	23.144
405.77	24.343
406.13	24.153
406.49	23.832
406.84	23.804
407.20	23.109
407.55	24.697
407.91	23.867
408.27	23.995
408.62	24.262
408.98	23.713
409.34	23.555
409.69	23.677
410.05	23.234
410.40	23.180
410.76	23.716
411.11	24.005
411.47	23.259
411.83	24.313
412.18	24.428
412.54	23.910
412.89	24.398
413.25	23.436
413.60	23.657
413.96	23.497
414.31	22.843
414.67	23.447
415.03	22.848
415.38	24.034
415.74	24.180
416.09	24.037
416.45	23.561
416.80	24.389
417.16	25.201
417.51	24.552
417.87	24.085
418.22	23.975
418.58	23.886
418.93	23.833
419.29	23.870
419.64	24.244
420.00	23.293
420.35	23.942
420.71	23.969
421.06	23.807
421.42	23.977
421.77	23.655
422.12	22.347
422.48	23.421
422.83	23.995
423.19	23.812
423.54	22.751
423.90	23.420
424.25	23.786
424.61	22.679
424.96	23.615
425.31	23.588
425.67	22.978
426.02	23.200
426.38	23.993
426.73	23.991
427.09	23.404
427.44	23.749
427.79	22.944
428.15	23.571
428.50	23.874
428.85	23.778
429.21	23.081
429.56	23.224
429.92	22.295
430.27	22.741
430.62	22.171
430.98	22.833
431.33	22.887
431.68	24.084
432.04	22.684
432.39	23.187
432.74	23.220
433.10	23.373
433.45	24.082
433.80	22.672
434.16	22.970
434.51	22.737
434.86	23.261
435.22	22.624
435.57	22.675
435.92	23.288
436.28	24.081
436.63	23.289
436.98	23.526
437.34	23.971
437.69	23.454
438.04	23.103
438.39	23.463
438.75	23.591
439.10	23.408
439.45	24.026
439.81	22.900
440.16	22.304
440.51	23.199
440.86	23.104
441.22	23.304
441.57	23.514
441.92	23.746
442.27	23.089
442.63	23.223
442.98	23.437
443.33	23.043
443.68	22.716
444.03	23.377
444.39	22.152
444.74	23.647
445.09	23.073
445.44	22.690
445.79	23.256
446.15	23.081
446.50	22.833
446.85	23.741
447.20	23.049
447.55	23.674
447.91	23.001
448.26	24.040
448.61	23.629
448.96	23.699
449.31	23.678
449.66	23.354
450.02	22.507
450.37	23.526
450.72	23.463
451.07	23.461
451.42	23.283
451.77	23.547
452.12	23.788
452.47	23.197
452.83	23.427
453.18	22.677
453.53	23.438
453.88	23.863
454.23	23.491
454.58	23.925
454.93	24.158
455.28	23.192
455.63	24.150
455.98	23.988
456.34	23.807
456.69	24.170
457.04	23.529
457.39	23.553
457.74	23.389
458.09	23.002
458.44	23.204
458.79	22.722
459.14	22.912
459.49	23.234
459.84	23.601
460.19	23.159
460.54	23.032
460.89	22.874
461.24	24.529
461.59	24.753
461.94	23.798
462.29	23.917
462.64	23.548
462.99	23.682
463.34	24.000
463.69	23.640
464.04	23.478
464.39	23.768
464.74	23.113
465.09	23.884
465.44	22.659
465.79	22.819
466.14	23.372
466.49	22.136
466.84	23.234
467.19	23.054
467.54	24.188
467.89	23.409
468.24	23.560
468.59	23.932
468.94	23.030
469.29	23.329
469.64	25.033
469.99	23.681
470.34	23.316
470.68	24.210
471.03	22.857
471.38	24.600
471.73	23.917
472.08	24.605
472.43	23.053
472.78	24.226
473.13	24.519
473.48	23.221
473.83	24.390
474.17	22.713
474.52	23.883
474.87	24.168
475.22	23.215
475.57	23.160
475.92	22.889
476.27	22.773
476.61	23.166
476.96	23.200
477.31	23.077
477.66	22.976
478.01	22.739
478.36	23.162
478.70	22.066
479.05	23.163
479.40	23.234
479.75	23.183
480.10	23.161
480.45	22.846
480.79	22.360
481.14	22.847
481.49	23.019
481.84	22.771
482.19	23.444
482.53	22.385
482.88	23.313
483.23	22.944
483.58	23.066
483.92	22.868
484.27	22.004
484.62	22.586
484.97	22.113
485.31	22.363
485.66	21.878
486.01	20.781
486.36	20.561
486.70	20.205
487.05	20.839
487.40	20.889
487.75	21.221
488.09	21.747
488.44	21.348
488.79	22.604
489.13	22.651
489.48	21.982
489.83	22.270
490.17	22.359
490.52	22.542
490.87	22.931
491.22	22.601
491.56	22.141
491.91	22.941
492.26	21.773
492.60	22.120
492.95	22.778
493.30	23.318
493.64	22.025
493.99	21.913
494.34	22.433
494.68	22.482
495.03	23.167
495.37	22.150
495.72	22.076
496.07	22.831
496.41	21.593
496.76	22.076
497.11	22.738
497.45	22.543
497.80	22.889
498.14	21.884
498.49	23.073
498.84	22.723
499.18	22.810
499.53	22.650
499.87	21.761
500.22	22.845
500.56	23.350
500.91	21.683
501.26	22.238
501.60	23.161
501.95	21.861
502.29	22.727
502.64	23.138
502.98	22.066
503.33	22.532
503.67	22.599
504.02	22.544
504.36	22.274
504.71	22.472
505.06	23.036
505.40	21.925
505.75	21.311
506.09	22.595
506.44	22.595
506.78	23.186
507.13	23.322
507.47	22.727
507.82	22.948
508.16	22.543
508.51	22.425
508.85	22.592
509.19	21.888
509.54	22.755
509.88	22.463
510.23	22.314
510.57	23.839
510.92	23.356
511.26	22.919
511.61	21.888
511.95	22.025
512.30	22.057
512.64	22.407
512.98	23.365
513.33	23.340
513.67	22.625
514.02	21.104
514.36	22.938
514.70	22.524
515.05	22.978
515.39	22.546
515.74	23.311
516.08	22.974
516.42	23.141
516.77	23.021
517.11	22.531
517.46	23.025
517.80	23.519
518.14	22.119
518.49	23.804
518.83	23.068
519.17	23.095
519.52	22.864
519.86	22.704
520.20	23.121
520.55	23.279
520.89	23.479
521.23	23.100
521.58	23.890
521.92	23.515
522.26	22.026
522.61	23.863
522.95	23.020
523.29	22.276
523.64	23.537
523.98	24.030
524.32	23.160
524.66	22.910
525.01	23.039
525.35	23.606
525.69	22.845
526.04	23.551
526.38	22.392
526.72	23.190
527.06	23.478
527.41	21.906
527.75	23.151
528.09	23.314
528.43	24.156
528.78	23.602
529.12	23.333
529.46	22.903
529.80	23.639
530.15	23.925
530.49	22.154
530.83	23.354
531.17	23.760
531.51	23.671
531.86	23.097
532.20	23.794
532.54	24.087
532.88	23.235
533.22	22.986
533.57	22.469
533.91	22.216
534.25	23.694
534.59	23.978
534.93	22.606
535.27	23.657
535.62	23.504
535.96	23.854
536.30	23.840
536.64	23.889
536.98	22.893
537.32	22.449
537.66	23.267
538.01	24.292
538.35	23.982
538.69	24.059
539.03	23.457
539.37	23.131
539.71	22.035
540.05	22.745
540.39	23.721
540.73	23.092
541.07	23.816
541.42	23.222
541.76	23.806
542.10	23.027
542.44	22.848
542.78	24.769
543.12	22.713
543.46	23.803
543.80	23.943
544.14	22.272
544.48	23.810
544.82	23.541
545.16	23.162
545.50	22.879
545.84	23.454
546.18	23.300
546.52	23.262
546.86	23.162
547.20	24.545
547.54	23.647
547.88	24.362
548.22	23.288
548.56	22.893
548.90	23.239
549.24	23.300
549.58	23.465
549.92	24.038
550.26	24.716
550.60	23.651
550.94	24.014
551.28	23.336
551.62	23.868
551.96	24.211
552.30	23.823
552.64	23.124
552.98	23.932
553.32	24.815
553.66	23.177
554.00	24.640
554.34	23.879
554.68	24.392
555.02	23.131
555.36	23.800
555.69	23.207
556.03	24.630
556.37	24.625
556.71	22.851
557.05	23.669
557.39	23.303
557.73	24.771
558.07	23.713
558.41	23.227
558.75	24.173
559.08	24.236
559.42	23.432
559.76	23.309
560.10	24.197
560.44	24.249
560.78	23.353
561.12	24.208
561.45	24.250
561.79	24.192
562.13	23.675
562.47	23.361
562.81	24.407
563.15	23.813
563.48	23.873
563.82	22.962
564.16	22.498
564.50	22.201
564.84	22.693
565.17	23.552
565.51	23.259
565.85	24.175
566.19	22.668
566.52	23.623
566.86	22.905
567.20	23.939
567.54	22.888
567.88	22.542
568.21	23.439
568.55	22.396
568.89	22.617
569.23	22.282
569.56	22.024
569.90	21.585
570.24	21.816
570.57	21.659
570.91	21.299
571.25	21.464
571.59	21.561
571.92	21.083
572.26	21.346
572.60	21.622
572.93	21.079
573.27	20.881
573.61	21.608
573.95	21.344
574.28	20.930
574.62	20.991
574.96	20.263
575.29	20.805
575.63	21.011
575.97	20.750
576.30	21.190
576.64	20.647
576.98	20.637
577.31	20.818
577.65	20.651
577.98	20.627
578.32	20.314
578.66	20.964
578.99	20.726
579.33	20.479
579.67	20.214
580.00	20.690
580.34	20.740
580.67	20.515
581.01	20.621
581.35	20.597
581.68	20.420
582.02	20.220
582.35	20.633
582.69	20.315
583.02	20.548
583.36	20.959
583.70	21.129
584.03	21.108
584.37	21.845
584.70	20.559
585.04	20.939
585.37	20.853
585.71	20.794
586.04	20.995
586.38	21.343
586.72	21.182
587.05	20.701
587.39	21.108
587.72	21.257
588.06	21.025
588.39	21.262
588.73	21.091
589.06	21.845
589.40	21.549
589.73	21.190
590.07	21.851
590.40	21.191
590.73	22.131
591.07	22.711
591.40	21.847
591.74	22.814
592.07	21.946
592.41	22.241
592.74	21.348
593.08	21.319
593.41	21.164
593.75	20.581
594.08	21.757
594.41	21.315
594.75	21.627
595.08	21.654
595.42	22.067
595.75	21.724
596.09	22.343
596.42	22.515
596.75	21.781
597.09	22.165
597.42	21.459
597.75	22.122
598.09	21.870
598.42	21.950
598.76	21.848
599.09	21.589
599.42	21.616
599.76	21.449
600.09	21.384
600.42	20.818
600.76	21.679
601.09	21.421
601.42	22.184
601.76	21.935
602.09	21.265
602.42	21.736
602.76	22.531
603.09	21.951
603.42	22.023
603.76	21.151
604.09	21.559
604.42	21.932
604.76	22.438
605.09	22.499
605.42	21.035
605.75	22.020
606.09	21.716
606.42	21.904
606.75	21.734
607.09	22.059
607.42	21.523
607.75	21.646
608.08	22.232
608.42	21.963
608.75	22.137
609.08	21.554
609.41	21.942
609.75	22.439
610.08	22.762
610.41	21.695
610.74	22.044
611.07	22.233
611.41	22.326
611.74	22.826
612.07	22.464
612.40	22.823
612.73	22.316
613.07	22.252
613.40	23.223
613.73	21.552
614.06	22.312
614.39	22.706
614.72	22.316
615.06	22.532
615.39	22.293
615.72	21.830
616.05	21.691
616.38	22.735
616.71	23.337
617.05	23.498
617.38	23.391
617.71	22.643
618.04	23.017
618.37	21.762
618.70	22.900
619.03	24.079
619.36	23.014
619.69	22.746
620.03	24.176
620.36	23.596
620.69	24.315
621.02	23.230
621.35	24.902
621.68	24.065
622.01	23.529
622.34	23.374
622.67	23.422
623.00	23.184
623.33	23.517
623.66	23.731
623.99	22.607
624.32	23.466
624.65	24.011
624.99	22.734
625.32	23.534
625.65	24.267
625.98	23.444
626.31	23.561
626.64	24.408
626.97	24.023
627.30	22.693
627.63	24.446
627.96	23.886
628.29	23.797
628.62	24.154
628.95	25.660
629.28	25.274
629.61	24.931
629.94	25.048
630.26	24.976
630.59	23.642
630.92	23.851
631.25	24.679
631.58	24.224
631.91	24.645
632.24	23.523
632.57	25.813
632.90	24.890
633.23	26.286
633.56	25.989
633.89	26.387
634.22	25.085
634.55	27.811
634.88	25.629
635.20	25.568
635.53	26.506
635.86	27.847
636.19	26.941
636.52	25.721
636.85	25.200
637.18	25.576
637.51	27.423
637.83	24.538
638.16	27.877
638.49	25.819
638.82	26.296
639.15	26.625
639.48	25.436
639.81	27.346
640.13	25.260
640.46	25.101
640.79	27.741
641.12	26.272
641.45	25.838
641.77	27.541
642.10	26.170
642.43	26.276
642.76	26.935
643.09	28.374
643.41	26.252
643.74	28.395
644.07	26.067
644.40	29.141
644.73	28.189
645.05	28.685
645.38	29.068
645.71	26.409
646.04	28.239
646.36	29.549
646.69	28.930
647.02	28.401
647.35	29.897
647.67	27.611
648.00	29.919
648.33	26.568
648.66	28.030
648.98	27.886
649.31	27.205
649.64	26.009
649.96	27.422
650.29	26.224
650.62	27.994
650.94	28.201
651.27	28.885
651.60	30.116
651.92	28.115
652.25	28.013
652.58	27.414
652.90	27.646
653.23	26.040
653.56	26.142
653.88	28.209
654.21	28.594
654.54	29.043
654.86	27.103
655.19	26.622
655.52	18.589
655.84	17.357
656.17	22.909
656.49	30.904
656.82	31.811
657.15	23.881
657.47	17.575
657.80	13.411
658.13	13.775
658.45	20.422
658.78	20.624
659.10	20.983
659.43	21.715
659.75	22.242
660.08	24.430
660.41	27.654
660.73	28.717
661.06	28.662
661.38	31.273
661.71	28.077
662.03	30.769
662.36	25.447
662.68	29.317
663.01	30.101
663.33	30.361
663.66	29.622
663.98	29.590
664.31	29.622
664.63	30.162
664.96	26.761
665.28	31.352
665.61	27.290
665.93	27.565
666.26	28.398
666.58	30.544
666.91	32.347
667.23	31.011
667.56	29.158
667.88	28.846
668.21	31.557
668.53	28.416
668.86	28.788
669.18	33.049
669.50	31.522
669.83	32.244
670.15	31.333
670.48	30.719
670.80	30.603
671.13	29.087
671.45	27.660
671.77	31.976
672.10	27.172
672.42	27.915
672.75	29.187
673.07	28.697
673.39	27.306
673.72	28.516
674.04	26.275
674.37	26.796
674.69	31.697
675.01	24.895
675.34	30.185
675.66	30.737
675.98	30.143
676.31	28.782
676.63	30.361
676.95	28.721
677.28	27.336
677.60	29.451
677.92	31.646
678.25	28.953
678.57	30.478
678.89	30.060
679.22	27.701
679.54	26.527
679.86	29.541
680.18	28.801
680.51	29.255
680.83	27.936
681.15	28.868
681.48	30.624
681.80	29.594
682.12	27.969
682.44	31.915
682.77	28.717
683.09	32.189
683.41	29.933
683.73	31.788
684.06	30.165
684.38	28.376
684.70	30.620
685.02	30.394
685.34	27.473
685.67	26.573
685.99	28.522
686.31	25.085
686.63	25.442
686.96	26.071
687.28	27.798
687.60	27.174
687.92	30.165
688.24	26.996
688.56	28.112
688.89	30.498
689.21	31.441
689.53	29.436
689.85	30.377
690.17	30.021
690.49	30.573
690.82	30.140
691.14	28.795
691.46	28.692
691.78	30.522
692.10	30.165
692.42	28.144
692.74	29.046
693.06	27.234
693.39	29.774
693.71	30.349
694.03	29.474
694.35	27.922
694.67	30.892
694.99	31.951
695.31	34.069
695.63	29.426
695.95	30.073
696.27	29.442
696.59	29.793
696.91	29.793
697.23	26.761
697.56	31.983
697.88	25.971
698.20	30.625
698.52	31.398
698.84	28.953
699.16	28.571
699.48	31.354
699.80	32.126
700.12	33.766
700.44	34.748
700.76	30.939
701.08	32.471
701.40	31.006
701.72	30.904
702.04	33.523
702.36	33.428
702.68	30.028
703.00	32.964
703.32	30.319
703.64	32.708
703.96	28.969
704.28	29.070
704.60	33.431
704.91	31.454
705.23	34.018
705.55	35.548
705.87	37.874
706.19	33.922
706.51	35.826
706.83	35.455
707.15	35.294
707.47	29.040
707.79	34.889
708.11	30.822
708.43	33.095
708.74	29.082
709.06	32.987
709.38	31.759
709.70	36.047
710.02	34.125
710.34	30.606
710.66	35.821
710.98	35.511
711.29	36.047
711.61	35.398
711.93	33.333
712.25	39.228
712.57	38.971
712.89	36.678
713.20	37.386
713.52	33.224
713.84	32.911
714.16	32.927
714.48	31.034
714.80	34.650
715.11	31.412
715.43	32.047
715.75	34.203
716.07	35.783
716.39	38.245
716.70	35.548
717.02	37.770
717.34	37.102
717.66	41.045
717.97	39.841
718.29	34.074
718.61	35.036
718.93	38.235
719.24	34.948
719.56	33.559
719.88	33.559
720.20	37.838
720.51	33.101
720.83	34.572
721.15	36.567
721.46	36.879
721.78	34.409
722.10	40.000
722.42	38.346
722.73	38.951
723.05	35.656
723.37	38.057
723.68	38.610
724.00	35.772
724.32	36.694
724.63	39.837
724.95	35.565
725.27	41.296
725.58	37.109
725.90	41.241
726.22	38.113
726.53	37.500
726.85	37.884
727.16	38.434
727.48	41.489
727.80	41.667
728.11	36.594
728.43	35.769
728.74	37.993
729.06	39.051
729.38	39.338
729.69	37.722
730.01	34.471
730.32	34.722
730.64	37.458
730.96	30.693
731.27	38.742
731.59	37.920
731.90	34.694
732.22	33.851
732.53	31.269
732.85	32.692
733.16	36.656
733.48	33.555
733.80	34.416
734.11	34.395
734.43	36.686
734.74	32.286
735.06	31.519
735.37	36.994
735.69	30.892
736.00	37.908
736.32	35.202
736.63	36.102
736.95	34.505
737.26	33.673
737.58	34.194
737.89	35.452
738.21	35.495
738.52	32.143
738.83	36.226
739.15	35.385
739.46	37.591
739.78	34.375
740.09	38.154
740.41	34.516
740.72	34.146
741.04	38.519
741.35	37.917
741.66	44.444
741.98	38.679
742.29	36.842
742.61	42.241
742.92	38.462
743.23	38.889
743.55	38.400
743.86	43.421
744.18	46.018
744.49	43.541
744.80	47.418
745.12	42.273
745.43	39.207
745.74	48.198
746.06	43.578
746.37	41.704
746.68	42.081
747.00	40.278
747.31	43.810
747.62	38.053
747.94	38.767
748.25	38.298
748.56	41.410
748.88	43.564
749.19	44.500
749.50	43.721
749.82	37.398
750.13	36.735
750.44	36.496
750.75	37.193
751.07	41.158
751.38	36.934
751.69	37.545
752.01	38.346
752.32	38.989
752.63	38.298
752.94	37.705
753.26	41.200
753.57	34.146
753.88	38.672
754.19	38.214
754.51	38.194
754.82	35.740
755.13	35.849
755.44	37.970
755.75	35.401
756.07	32.979
756.38	39.416
756.69	37.248
757.00	30.240
757.31	33.531
757.63	33.041
757.94	30.831
758.25	30.147
758.56	31.111
758.87	30.914
759.18	33.636
759.50	36.364
759.81	32.710
760.12	30.313
760.43	34.957
760.74	33.424
761.05	37.288
761.36	33.957
761.67	34.375
761.99	34.161
762.30	39.236
762.61	37.023
762.92	39.844
763.23	36.134
763.54	43.600
763.85	35.937
764.16	42.308
764.47	38.403
764.78	38.516
765.10	34.494
765.41	36.578
765.72	34.731
766.03	33.542
766.34	36.333
766.65	40.851
766.96	46.581
767.27	47.208
767.58	42.708
767.89	50.000
768.20	51.149
768.51	47.208
768.82	36.697
769.13	33.740
769.44	38.462
769.75	39.485
770.06	38.073
770.37	43.439
770.68	44.907
770.99	36.000
771.30	35.656
771.61	43.049
771.92	38.934
772.23	45.378
772.54	40.513
772.85	45.026
773.16	46.277
773.47	45.109
773.78	49.239
774.09	49.405
774.39	49.708
774.70	50.000
775.01	52.899
775.32	56.209
775.63	50.000
775.94	51.799
776.25	59.843
776.56	58.955
776.87	58.197
777.18	55.469
777.48	61.832
777.79	52.273
778.10	57.037
778.41	66.964
778.72	49.635
779.03	50.336
779.34	49.664
779.65	52.703
779.95	49.693
780.26	53.595
780.57	55.862
780.88	63.281
781.19	54.887
781.50	56.757
781.80	42.767
782.11	40.678
782.42	40.506
782.73	46.012
783.04	52.703
783.34	50.704
783.65	56.849
783.96	56.716
784.27	50.350
784.57	46.043
784.88	56.481
785.19	70.635
785.50	65.094
785.81	56.716
786.11	60.656
786.42	58.140
786.73	46.018
787.04	66.981
787.34	63.393
787.65	66.000
787.96	71.171
788.26	62.810
788.57	63.559
788.88	69.421
789.19	61.806
789.49	56.061
789.80	64.885
790.11	67.619
790.41	73.267
790.72	79.518
791.03	70.652
791.33	65.116
791.64	68.041
791.95	68.317
792.25	86.667
792.56	85.714
792.87	89.744
793.17	89.873
793.48	94.253
793.79	67.816
794.09	85.227
794.40	61.345
794.70	59.559
795.01	62.222
795.32	56.115
795.62	51.181
795.93	59.483
796.23	65.487
796.54	82.353
796.85	85.135
797.15	97.183
797.46	83.333
797.76	90.361
798.07	82.278
798.37	84.615
798.68	95.455
798.99	67.606
799.29	89.610
799.60	68.182
799.90	98.630
800.21	108.955
800.51	101.724
800.82	124.561
801.12	108.197
801.43	90.909
801.73	74.324
802.04	107.937
802.34	86.420
802.65	98.437
802.95	105.085
803.26	109.375
803.56	78.571
803.87	86.154
804.17	94.118
804.48	131.481
804.78	94.828
805.09	97.059
805.39	115.385
805.70	123.214
806.00	103.279
806.30	71.212
806.61	91.463
806.91	75.949
807.22	76.316
807.52	68.657
807.83	95.775
808.13	87.500
808.43	95.000
808.74	84.211
809.04	95.652
809.35	104.478
809.65	84.211
809.95	117.742
810.26	101.695
810.56	98.413
810.86	134.091
811.17	147.619
811.47	113.333
811.77	111.111
812.08	112.727
812.38	118.000
812.69	155.556
812.99	150.000
813.29	132.653
813.59	111.905
813.90	144.898
814.20	80.000
814.50	92.308
814.81	120.588
815.11	118.367
815.41	111.475
815.72	152.381
816.02	130.909
816.32	126.190
816.62	122.500
816.93	141.463
817.23	147.619
817.53	159.091
817.84	178.788
818.14	139.130
818.44	117.778
818.74	161.765
819.04	142.500
819.35	151.429
819.65	185.294
819.95	182.143
820.25	200.000
820.56	184.615
820.86	136.364
821.16	153.488
821.46	143.590
821.76	134.000
822.07	188.571
822.37	147.500
822.67	181.818
822.97	121.569
823.27	232.143
823.57	162.162
823.88	165.000
824.18	226.667
824.48	147.619
824.78	228.000
825.08	200.000
825.38	159.459
825.69	143.902
825.99	208.333
826.29	182.759
826.59	165.789
826.89	160.526
827.19	155.882
827.49	187.097
827.79	159.091
828.09	163.636
828.39	125.532
828.70	122.449
829.00	177.778
829.30	170.968
829.60	145.000
829.90	260.000
830.20	196.429
830.50	243.478
830.80	239.130
831.10	173.333
831.40	210.000
831.70	186.957
832.00	230.769
832.30	214.815
832.60	318.750
832.90	203.333
833.20	407.143
833.50	203.226
833.80	172.414
834.10	209.375
834.40	215.385
834.70	283.333
835.00	323.810
835.30	145.714
835.60	376.923
835.90	206.897
836.20	392.857
836.50	196.552
836.80	244.000
837.10	200.000
837.40	242.857
837.70	252.941
838.00	225.926
838.30	233.333
838.60	285.714
838.90	219.231
839.19	285.000
839.49	407.143
839.79	345.000
840.09	295.000
840.39	276.190
840.69	247.826
840.99	316.667
841.29	480.000
841.59	341.667
841.88	343.750
842.18	189.655
842.48	309.524
842.78	230.000
843.08	256.522
843.38	206.250
843.68	916.667
843.97	238.462
844.27	203.448
844.57	285.714
844.87	450.000
845.17	240.741
845.47	1433.333
845.76	477.778
846.06	305.882
846.36	562.500
846.66	407.143
846.96	287.500
847.25	409.091
847.55	436.364
847.85	260.870
848.15	450.000
848.44	400.000
848.74	316.667
849.04	341.176
849.34	550.000
849.63	326.316
849.93	436.364
850.23	900.000
850.53	414.286
850.82	2250.000
851.12	-5100.000
851.42	5500.000
851.71	235.000
852.01	-1433.333
852.31	216.667
852.61	1533.333
852.90	280.952
853.20	260.000
853.50	264.706
853.79	271.429
854.09	204.167
854.39	350.000
854.68	162.162
854.98	183.871
855.28	216.667
855.57	220.690
855.87	200.000
856.17	300.000
856.46	233.333
856.76	270.588
857.05	200.000
857.35	258.333
857.65	346.667
857.94	239.130
858.24	257.692
858.53	275.000
858.83	231.818
859.13	366.667
859.42	0.000
859.72	644.444
860.01	409.091
860.31	272.727
860.60	278.947
860.90	221.739
861.20	544.444
861.49	550.000
861.79	-4800.000
862.08	612.500
862.38	290.476
862.67	446.154
862.97	288.235
863.26	588.889
863.56	333.333
863.85	391.667
864.15	475.000
864.44	386.667
864.74	1033.333
865.03	812.500
865.33	300.000
865.62	409.091
865.92	415.385
866.21	400.000
866.51	0.000
866.80	481.818
867.10	980.000
867.39	469.231
867.69	427.273
867.98	315.789
868.27	545.455
868.57	315.789
868.86	-5500.000
869.16	387.500
869.45	2000.000
869.75	-4500.000
870.04	491.667
870.33	685.714
870.63	1050.000
870.92	3000.000
871.22	800.000
871.51	388.235
871.80	238.095
872.10	371.429
>>>>>End Processed Spectral Data<<<<<
