SpectraSuite Data File
++++++++++++++++++++++++++++++++++++
Date: Wed May 13 19:33:40 PDT 2015
User: schluterlab
Dark Spectrum Present: Yes
Reference Spectrum Present: Yes
Number of Sampled Component Spectra: 1
Spectrometers: USB2E3373
Integration Time (usec): 3000 (USB2E3373)
Spectra Averaged: 3 (USB2E3373)
Boxcar Smoothing: 0 (USB2E3373)
Correct for Electrical Dark: No (USB2E3373)
Strobe/Lamp Enabled: No (USB2E3373)
Correct for Detector Non-linearity: No (USB2E3373)
Correct for Stray Light: No (USB2E3373)
Number of Pixels in Processed Spectrum: 2048
>>>>>Begin Processed Spectral Data<<<<<
178.53	0.000
178.91	-1325.000
179.29	-1525.000
179.67	-250.000
180.04	-1150.000
180.42	2800.000
180.80	1040.000
181.18	-1250.000
181.56	942.857
181.94	0.000
182.31	-714.286
182.69	1900.000
183.07	-612.500
183.45	-577.778
183.83	554.545
184.20	-550.000
184.58	2650.000
184.96	5300.000
185.34	-1160.000
185.72	-712.500
186.09	-2350.000
186.47	3000.000
186.85	2700.000
187.23	5800.000
187.61	-2100.000
187.98	1425.000
188.36	554.545
188.74	554.545
189.12	-1020.000
189.49	570.000
189.87	-5200.000
190.25	-1375.000
190.63	414.286
191.00	515.385
191.38	1000.000
191.76	-1225.000
192.14	1250.000
192.51	850.000
192.89	1016.667
193.27	550.000
193.65	-1225.000
194.02	520.000
194.40	960.000
194.78	580.000
195.15	575.000
195.53	580.000
195.91	-2350.000
196.29	381.250
196.66	394.737
197.04	-350.000
197.42	0.000
197.79	690.000
198.17	-5100.000
198.55	771.429
198.92	687.500
199.30	900.000
199.68	0.000
200.05	327.778
200.43	871.429
200.81	4200.000
201.18	1733.333
201.56	-1466.667
201.94	622.222
202.31	577.778
202.69	391.667
203.07	560.000
203.44	0.000
203.82	1450.000
204.19	771.429
204.57	485.714
204.95	675.000
205.32	1666.667
205.70	454.545
206.08	400.000
206.45	2650.000
206.83	425.000
207.20	933.333
207.58	920.000
207.96	294.444
208.33	850.000
208.71	-900.000
209.08	700.000
209.46	511.111
209.84	490.909
210.21	-1600.000
210.59	1300.000
210.96	-512.500
211.34	3150.000
211.71	530.000
212.09	816.667
212.46	0.000
212.84	1933.333
213.22	1250.000
213.59	-4300.000
213.97	900.000
214.34	785.714
214.72	727.273
215.09	920.000
215.47	-1950.000
215.84	-2700.000
216.22	1866.667
216.59	471.429
216.97	1300.000
217.34	454.545
217.72	-683.333
218.09	0.000
218.47	-5800.000
218.84	655.556
219.22	771.429
219.59	2033.333
219.97	-642.857
220.34	1140.000
220.72	-1900.000
221.09	464.286
221.47	1575.000
221.84	-1066.667
222.22	0.000
222.59	1300.000
222.97	-2700.000
223.34	1060.000
223.72	438.462
224.09	1180.000
224.46	2400.000
224.84	-4700.000
225.21	-860.000
225.59	-4600.000
225.96	650.000
226.34	355.000
226.71	3100.000
227.08	650.000
227.46	570.000
227.83	-1225.000
228.21	-2350.000
228.58	655.556
228.95	-2600.000
229.33	-2400.000
229.70	2000.000
230.08	842.857
230.45	-920.000
230.82	450.000
231.20	816.667
231.57	714.286
231.95	433.333
232.32	277.273
232.69	427.273
233.07	814.286
233.44	415.385
233.81	-1666.667
234.19	315.789
234.56	491.667
234.93	375.000
235.31	518.182
235.68	346.154
236.05	364.286
236.43	145.455
236.80	263.158
237.17	4100.000
237.55	252.381
237.92	221.429
238.29	233.333
238.67	183.871
239.04	220.690
239.41	138.889
239.79	113.043
240.16	126.190
240.53	102.273
240.91	88.235
241.28	100.000
241.65	102.000
242.02	88.406
242.40	80.645
242.77	93.333
243.14	67.742
243.51	68.539
243.89	64.706
244.26	62.222
244.63	58.065
245.00	54.255
245.38	49.505
245.75	43.925
246.12	43.119
246.49	46.715
246.87	52.800
247.24	41.538
247.61	40.714
247.98	38.562
248.36	34.459
248.73	35.032
249.10	35.669
249.47	36.158
249.84	34.759
250.22	35.294
250.59	33.728
250.96	30.303
251.33	36.019
251.70	34.653
252.08	30.952
252.45	27.354
252.82	26.087
253.19	25.106
253.56	27.451
253.94	26.971
254.31	26.172
254.68	30.385
255.05	24.723
255.42	26.016
255.79	20.956
256.16	24.910
256.54	20.848
256.91	20.641
257.28	19.424
257.65	20.462
258.02	21.429
258.39	19.874
258.76	17.726
259.14	19.643
259.51	21.277
259.88	17.391
260.25	20.846
260.62	17.052
260.99	16.770
261.36	21.021
261.73	18.625
262.10	17.151
262.47	18.028
262.85	20.334
263.22	15.670
263.59	19.373
263.96	19.231
264.33	17.755
264.70	18.421
265.07	17.647
265.44	17.172
265.81	13.382
266.18	15.075
266.55	14.878
266.92	15.725
267.29	15.972
267.66	15.826
268.03	14.545
268.40	14.019
268.77	16.945
269.14	14.865
269.51	14.447
269.88	16.783
270.25	14.673
270.62	13.483
270.99	14.839
271.36	16.309
271.73	15.888
272.10	11.522
272.47	15.484
272.84	12.338
273.21	14.465
273.58	12.445
273.95	11.111
274.32	11.570
274.69	12.634
275.06	11.024
275.43	14.681
275.80	13.828
276.17	14.868
276.54	12.682
276.91	11.858
277.28	11.719
277.65	13.346
278.02	11.801
278.39	14.062
278.76	14.545
279.13	13.208
279.50	10.987
279.87	12.351
280.23	12.575
280.60	11.799
280.97	12.200
281.34	12.035
281.71	13.636
282.08	11.900
282.45	10.909
282.82	12.078
283.19	9.447
283.56	13.333
283.92	12.521
284.29	11.817
284.66	12.160
285.03	10.850
285.40	10.387
285.77	9.091
286.14	10.535
286.51	12.667
286.87	11.795
287.24	12.704
287.61	10.754
287.98	11.201
288.35	12.044
288.72	10.280
289.08	10.642
289.45	11.532
289.82	10.894
290.19	9.419
290.56	10.873
290.93	8.761
291.29	10.429
291.66	8.112
292.03	11.628
292.40	10.279
292.77	9.911
293.13	11.343
293.50	10.058
293.87	8.296
294.24	9.481
294.60	8.297
294.97	8.721
295.34	10.437
295.71	10.795
296.08	8.974
296.44	10.041
296.81	8.454
297.18	9.892
297.55	8.311
297.91	7.520
298.28	10.710
298.65	8.877
299.02	8.959
299.38	7.039
299.75	7.008
300.12	7.407
300.48	8.375
300.85	9.494
301.22	8.280
301.59	8.081
301.95	9.572
302.32	7.574
302.69	8.483
303.05	8.121
303.42	7.778
303.79	8.947
304.15	7.226
304.52	7.764
304.89	8.479
305.25	7.889
305.62	9.287
305.99	7.674
306.35	8.837
306.72	8.408
307.09	8.324
307.45	8.784
307.82	7.366
308.19	8.057
308.55	9.277
308.92	6.982
309.29	8.131
309.65	6.151
310.02	7.822
310.38	6.989
310.75	7.392
311.12	8.393
311.48	7.315
311.85	7.442
312.22	6.660
312.58	7.588
312.95	8.448
313.31	6.990
313.68	8.004
314.05	9.073
314.41	7.638
314.78	7.956
315.14	6.653
315.51	7.209
315.87	7.327
316.24	7.547
316.61	7.992
316.97	7.241
317.34	6.751
317.70	7.839
318.07	8.181
318.43	8.023
318.80	8.154
319.16	7.250
319.53	7.129
319.89	7.524
320.26	7.200
320.62	7.143
320.99	7.778
321.35	6.162
321.72	7.084
322.08	9.082
322.45	8.856
322.81	8.236
323.18	8.863
323.54	7.328
323.91	6.887
324.27	8.222
324.64	6.617
325.00	7.935
325.37	7.825
325.73	7.989
326.10	8.208
326.46	6.272
326.83	8.283
327.19	7.259
327.56	6.620
327.92	7.787
328.29	7.808
328.65	8.011
329.01	6.949
329.38	6.568
329.74	6.833
330.11	6.786
330.47	7.071
330.84	8.456
331.20	6.375
331.56	7.523
331.93	6.759
332.29	7.631
332.66	8.407
333.02	7.038
333.38	7.678
333.75	8.289
334.11	7.651
334.48	7.542
334.84	7.904
335.20	7.636
335.57	7.253
335.93	6.696
336.29	6.593
336.66	6.853
337.02	6.697
337.38	6.759
337.75	7.041
338.11	6.177
338.47	6.998
338.84	6.691
339.20	5.780
339.56	7.938
339.93	6.273
340.29	6.069
340.65	7.398
341.02	8.202
341.38	7.206
341.74	5.789
342.11	6.987
342.47	6.784
342.83	7.363
343.20	7.706
343.56	7.414
343.92	7.281
344.28	6.888
344.65	7.051
345.01	6.313
345.37	5.918
345.73	7.445
346.10	7.076
346.46	7.034
346.82	5.766
347.19	5.764
347.55	6.486
347.91	7.605
348.27	7.560
348.63	7.525
349.00	7.201
349.36	6.158
349.72	7.137
350.08	6.726
350.45	7.323
350.81	6.336
351.17	6.969
351.53	6.634
351.89	6.518
352.26	6.788
352.62	6.736
352.98	6.078
353.34	6.656
353.70	5.401
354.07	5.968
354.43	6.429
354.79	6.758
355.15	6.225
355.51	6.954
355.87	5.959
356.24	6.759
356.60	6.656
356.96	6.838
357.32	6.296
357.68	6.299
358.04	5.226
358.40	6.888
358.77	7.277
359.13	6.235
359.49	6.039
359.85	5.000
360.21	6.140
360.57	7.004
360.93	6.538
361.29	6.274
361.66	5.805
362.02	6.866
362.38	7.072
362.74	5.952
363.10	5.699
363.46	5.723
363.82	5.291
364.18	6.461
364.54	6.389
364.90	6.657
365.26	5.515
365.62	6.720
365.98	5.113
366.35	5.802
366.71	6.146
367.07	5.827
367.43	6.096
367.79	6.138
368.15	7.040
368.51	5.959
368.87	6.424
369.23	4.682
369.59	6.010
369.95	5.735
370.31	6.695
370.67	5.870
371.03	6.217
371.39	5.612
371.75	5.662
372.11	6.472
372.47	6.085
372.83	7.061
373.19	5.202
373.55	6.135
373.91	6.996
374.27	6.186
374.63	5.091
374.99	6.427
375.35	5.513
375.71	6.237
376.07	5.898
376.42	5.915
376.78	6.362
377.14	4.681
377.50	6.424
377.86	5.386
378.22	5.942
378.58	5.075
378.94	5.091
379.30	5.534
379.66	6.028
380.02	5.467
380.38	5.343
380.74	5.222
381.09	5.807
381.45	5.716
381.81	5.958
382.17	6.115
382.53	4.717
382.89	5.679
383.25	6.129
383.61	5.886
383.97	6.191
384.32	5.677
384.68	5.019
385.04	5.286
385.40	5.015
385.76	5.405
386.12	5.894
386.48	5.475
386.83	5.196
387.19	5.318
387.55	5.566
387.91	5.018
388.27	5.028
388.62	5.900
388.98	4.791
389.34	5.820
389.70	5.579
390.06	5.323
390.42	5.123
390.77	5.852
391.13	5.297
391.49	5.838
391.85	5.474
392.20	4.416
392.56	5.429
392.92	5.650
393.28	4.556
393.64	4.496
393.99	5.620
394.35	5.521
394.71	5.583
395.07	5.358
395.42	5.315
395.78	5.471
396.14	5.400
396.50	5.702
396.85	5.722
397.21	4.994
397.57	5.456
397.92	5.048
398.28	4.484
398.64	5.974
399.00	5.652
399.35	4.230
399.71	5.671
400.07	5.736
400.42	5.951
400.78	5.428
401.14	4.451
401.49	5.194
401.85	5.324
402.21	4.731
402.57	4.627
402.92	4.918
403.28	5.059
403.63	4.827
403.99	4.713
404.35	4.424
404.70	4.856
405.06	4.659
405.42	5.614
405.77	4.343
406.13	5.305
406.49	4.554
406.84	5.848
407.20	4.255
407.55	4.786
407.91	4.733
408.27	4.978
408.62	5.298
408.98	5.025
409.34	5.043
409.69	5.032
410.05	5.143
410.40	5.443
410.76	4.659
411.11	5.850
411.47	4.601
411.83	4.948
412.18	5.318
412.54	4.732
412.89	5.542
413.25	5.490
413.60	5.127
413.96	4.736
414.31	5.286
414.67	5.450
415.03	5.166
415.38	5.928
415.74	5.338
416.09	5.421
416.45	4.819
416.80	5.221
417.16	5.496
417.51	5.574
417.87	5.395
418.22	5.994
418.58	5.552
418.93	4.853
419.29	5.411
419.64	5.227
420.00	5.549
420.35	5.913
420.71	5.380
421.06	5.310
421.42	4.912
421.77	5.325
422.12	4.773
422.48	3.994
422.83	5.125
423.19	5.801
423.54	4.643
423.90	5.217
424.25	5.751
424.61	5.000
424.96	4.431
425.31	5.039
425.67	4.607
426.02	5.371
426.38	5.250
426.73	5.325
427.09	4.681
427.44	4.485
427.79	4.198
428.15	4.940
428.50	5.266
428.85	5.423
429.21	4.307
429.56	4.147
429.92	4.479
430.27	4.220
430.62	3.635
430.98	5.189
431.33	5.052
431.68	4.712
432.04	4.899
432.39	4.340
432.74	4.608
433.10	4.414
433.45	4.606
433.80	4.878
434.16	5.075
434.51	4.684
434.86	5.017
435.22	4.225
435.57	4.802
435.92	4.447
436.28	4.626
436.63	5.188
436.98	4.408
437.34	5.069
437.69	5.076
438.04	4.160
438.39	4.418
438.75	5.230
439.10	4.637
439.45	4.664
439.81	4.290
440.16	4.178
440.51	5.097
440.86	4.690
441.22	3.949
441.57	4.565
441.92	4.964
442.27	4.898
442.63	4.792
442.98	5.127
443.33	4.620
443.68	4.801
444.03	4.929
444.39	3.213
444.74	4.708
445.09	4.744
445.44	4.921
445.79	4.602
446.15	5.400
446.50	4.685
446.85	4.419
447.20	4.386
447.55	4.355
447.91	4.357
448.26	4.508
448.61	4.522
448.96	4.928
449.31	5.174
449.66	4.952
450.02	3.844
450.37	4.138
450.72	3.892
451.07	4.266
451.42	4.620
451.77	5.109
452.12	5.889
452.47	5.224
452.83	4.021
453.18	5.012
453.53	5.195
453.88	3.957
454.23	4.901
454.58	5.088
454.93	5.658
455.28	4.676
455.63	4.794
455.98	5.357
456.34	5.088
456.69	4.822
457.04	5.139
457.39	5.085
457.74	4.469
458.09	5.118
458.44	4.618
458.79	4.338
459.14	4.289
459.49	5.020
459.84	4.598
460.19	4.302
460.54	5.035
460.89	4.663
461.24	5.282
461.59	6.101
461.94	4.624
462.29	5.579
462.64	5.297
462.99	4.945
463.34	5.800
463.69	5.378
464.04	5.217
464.39	5.333
464.74	5.110
465.09	4.825
465.44	5.097
465.79	4.642
466.14	4.762
466.49	4.338
466.84	4.962
467.19	4.828
467.54	5.875
467.89	5.222
468.24	5.119
468.59	5.189
468.94	5.070
469.29	5.527
469.64	6.024
469.99	6.022
470.34	4.624
470.68	5.388
471.03	4.898
471.38	5.351
471.73	5.463
472.08	5.789
472.43	4.962
472.78	5.267
473.13	4.814
473.48	5.243
473.83	5.061
474.17	4.792
474.52	5.025
474.87	6.071
475.22	5.165
475.57	4.782
475.92	4.567
476.27	4.453
476.61	4.799
476.96	4.508
477.31	4.500
477.66	4.595
478.01	4.496
478.36	4.759
478.70	3.738
479.05	4.846
479.40	3.685
479.75	4.372
480.10	4.523
480.45	4.284
480.79	3.966
481.14	3.963
481.49	4.509
481.84	4.298
482.19	4.543
482.53	3.991
482.88	4.048
483.23	4.299
483.58	4.686
483.92	4.077
484.27	3.617
484.62	4.224
484.97	3.902
485.31	3.493
485.66	3.024
486.01	2.506
486.36	2.643
486.70	2.489
487.05	2.819
487.40	2.886
487.75	3.149
488.09	3.640
488.44	3.135
488.79	3.870
489.13	4.087
489.48	3.834
489.83	3.496
490.17	3.858
490.52	3.632
490.87	3.528
491.22	4.002
491.56	3.052
491.91	4.048
492.26	3.813
492.60	4.332
492.95	3.414
493.30	4.252
493.64	3.500
493.99	3.575
494.34	4.070
494.68	3.938
495.03	4.558
495.37	4.793
495.72	3.363
496.07	4.084
496.41	3.761
496.76	3.826
497.11	4.412
497.45	4.145
497.80	3.743
498.14	3.768
498.49	3.805
498.84	3.787
499.18	3.476
499.53	4.084
499.87	4.101
500.22	4.286
500.56	4.660
500.91	3.413
501.26	4.220
501.60	4.129
501.95	4.079
502.29	4.264
502.64	3.678
502.98	3.974
503.33	3.793
503.67	3.991
504.02	4.210
504.36	3.790
504.71	3.322
505.06	4.386
505.40	3.549
505.75	3.905
506.09	4.373
506.44	3.552
506.78	4.043
507.13	3.584
507.47	4.040
507.82	4.306
508.16	4.306
508.51	3.957
508.85	3.674
509.19	4.235
509.54	4.337
509.88	4.276
510.23	4.010
510.57	5.212
510.92	3.884
511.26	4.008
511.61	4.201
511.95	3.862
512.30	4.030
512.64	4.514
512.98	4.770
513.33	4.711
513.67	4.055
514.02	4.221
514.36	4.697
514.70	4.095
515.05	4.406
515.39	4.711
515.74	4.223
516.08	5.534
516.42	4.828
516.77	4.794
517.11	3.940
517.46	4.515
517.80	4.820
518.14	4.227
518.49	4.842
518.83	4.886
519.17	4.561
519.52	4.244
519.86	5.305
520.20	4.798
520.55	4.428
520.89	5.414
521.23	4.946
521.58	5.222
521.92	4.715
522.26	4.088
522.61	4.424
522.95	3.745
523.29	4.200
523.64	5.366
523.98	4.868
524.32	4.524
524.66	4.811
525.01	4.596
525.35	4.461
525.69	5.357
526.04	5.234
526.38	5.308
526.72	4.172
527.06	4.520
527.41	3.713
527.75	4.630
528.09	4.945
528.43	4.525
528.78	4.856
529.12	4.485
529.46	4.838
529.80	4.889
530.15	4.860
530.49	4.800
530.83	5.316
531.17	5.287
531.51	5.642
531.86	4.903
532.20	6.128
532.54	5.830
532.88	5.263
533.22	4.560
533.57	5.247
533.91	4.756
534.25	5.043
534.59	4.942
534.93	4.997
535.27	4.526
535.62	5.311
535.96	5.399
536.30	4.514
536.64	5.988
536.98	5.043
537.32	4.872
537.66	4.000
538.01	5.530
538.35	5.753
538.69	6.318
539.03	4.808
539.37	4.026
539.71	4.277
540.05	5.294
540.39	4.385
540.73	4.981
541.07	5.191
541.42	5.545
541.76	5.484
542.10	5.369
542.44	5.099
542.78	5.929
543.12	5.182
543.46	5.967
543.80	6.051
544.14	4.942
544.48	5.587
544.82	4.233
545.16	5.205
545.50	5.206
545.84	4.704
546.18	4.646
546.52	6.538
546.86	4.536
547.20	5.125
547.54	6.079
547.88	6.122
548.22	5.044
548.56	4.843
548.90	4.545
549.24	4.040
549.58	5.593
549.92	5.151
550.26	5.327
550.60	4.841
550.94	4.859
551.28	4.828
551.62	5.104
551.96	4.772
552.30	5.939
552.64	5.274
552.98	5.492
553.32	5.934
553.66	5.794
554.00	5.834
554.34	4.969
554.68	6.080
555.02	4.866
555.36	4.384
555.69	5.142
556.03	5.653
556.37	4.707
556.71	5.321
557.05	5.322
557.39	5.388
557.73	5.081
558.07	5.439
558.41	4.559
558.75	5.364
559.08	6.115
559.42	5.140
559.76	4.706
560.10	5.639
560.44	5.451
560.78	4.990
561.12	4.815
561.45	5.867
561.79	4.944
562.13	5.433
562.47	5.396
562.81	4.812
563.15	4.950
563.48	5.305
563.82	4.631
564.16	4.971
564.50	4.753
564.84	4.930
565.17	5.084
565.51	4.665
565.85	5.266
566.19	4.759
566.52	4.750
566.86	4.702
567.20	4.835
567.54	4.395
567.88	3.857
568.21	4.656
568.55	4.398
568.89	4.183
569.23	4.055
569.56	3.765
569.90	3.434
570.24	3.732
570.57	3.366
570.91	3.588
571.25	3.150
571.59	3.387
571.92	3.283
572.26	3.466
572.60	3.393
572.93	3.298
573.27	3.786
573.61	3.629
573.95	3.307
574.28	3.442
574.62	2.964
574.96	3.106
575.29	3.225
575.63	3.100
575.97	3.359
576.30	3.346
576.64	3.033
576.98	3.014
577.31	2.842
577.65	2.845
577.98	3.016
578.32	2.919
578.66	3.040
578.99	3.218
579.33	2.905
579.67	3.065
580.00	3.093
580.34	3.132
580.67	2.671
581.01	3.463
581.35	2.986
581.68	2.920
582.02	2.624
582.35	2.785
582.69	3.108
583.02	2.888
583.36	3.228
583.70	3.147
584.03	3.370
584.37	3.478
584.70	3.239
585.04	3.669
585.37	3.239
585.71	3.571
586.04	3.237
586.38	3.474
586.72	3.922
587.05	3.233
587.39	3.193
587.72	3.478
588.06	3.095
588.39	3.512
588.73	3.227
589.06	3.708
589.40	3.535
589.73	3.238
590.07	3.772
590.40	3.581
590.73	3.981
591.07	4.274
591.40	4.133
591.74	4.459
592.07	4.232
592.41	3.927
592.74	3.596
593.08	3.631
593.41	3.701
593.75	3.435
594.08	3.553
594.41	4.136
594.75	3.993
595.08	3.758
595.42	4.028
595.75	3.134
596.09	4.469
596.42	4.754
596.75	3.672
597.09	4.805
597.42	3.583
597.75	3.579
598.09	4.391
598.42	3.995
598.76	3.891
599.09	4.029
599.42	4.112
599.76	3.551
600.09	3.643
600.42	3.506
600.76	3.679
601.09	3.607
601.42	3.805
601.76	3.833
602.09	3.834
602.42	3.981
602.76	4.474
603.09	3.934
603.42	4.100
603.76	3.697
604.09	3.955
604.42	3.791
604.76	4.344
605.09	3.626
605.42	3.720
605.75	4.305
606.09	4.026
606.42	4.046
606.75	4.314
607.09	4.814
607.42	4.450
607.75	3.966
608.08	3.691
608.42	4.482
608.75	4.599
609.08	4.903
609.41	3.998
609.75	4.526
610.08	4.807
610.41	4.190
610.74	4.210
611.07	4.595
611.41	4.563
611.74	4.977
612.07	4.710
612.40	4.932
612.73	4.789
613.07	4.741
613.40	4.107
613.73	4.772
614.06	4.731
614.39	5.139
614.72	5.053
615.06	4.832
615.39	4.299
615.72	4.908
616.05	4.359
616.38	4.669
616.71	4.513
617.05	4.888
617.38	4.510
617.71	5.105
618.04	4.928
618.37	5.559
618.70	5.227
619.03	6.053
619.36	5.703
619.69	5.634
620.03	5.701
620.36	5.749
620.69	5.822
621.02	5.973
621.35	5.873
621.68	4.751
622.01	6.115
622.34	5.522
622.67	5.779
623.00	5.282
623.33	5.218
623.66	6.433
623.99	5.523
624.32	4.850
624.65	5.791
624.99	4.887
625.32	5.069
625.65	5.860
625.98	5.919
626.31	7.232
626.64	6.776
626.97	6.484
627.30	5.486
627.63	7.465
627.96	6.392
628.29	6.299
628.62	7.685
628.95	7.925
629.28	6.113
629.61	6.599
629.94	5.619
630.26	5.815
630.59	7.054
630.92	6.226
631.25	5.429
631.58	8.008
631.91	6.491
632.24	6.435
632.57	7.555
632.90	7.237
633.23	6.152
633.56	8.136
633.89	6.682
634.22	7.719
634.55	8.639
634.88	8.503
635.20	7.885
635.53	6.386
635.86	7.797
636.19	8.000
636.52	7.266
636.85	7.446
637.18	6.452
637.51	8.629
637.83	5.919
638.16	7.928
638.49	8.816
638.82	7.459
639.15	8.500
639.48	8.603
639.81	8.579
640.13	9.375
640.46	9.664
640.79	10.172
641.12	7.015
641.45	9.078
641.77	8.689
642.10	10.088
642.43	8.408
642.76	8.824
643.09	10.429
643.41	7.891
643.74	9.568
644.07	9.604
644.40	11.350
644.73	10.866
645.05	10.143
645.38	8.689
645.71	9.340
646.04	10.465
646.36	10.684
646.69	10.702
647.02	10.714
647.35	9.278
647.67	10.088
648.00	11.870
648.33	9.241
648.66	9.394
648.98	11.244
649.31	7.623
649.64	9.865
649.96	8.644
650.29	10.427
650.62	9.061
650.94	12.804
651.27	11.824
651.60	11.148
651.92	11.342
652.25	8.306
652.58	10.903
652.90	9.795
653.23	11.094
653.56	10.236
653.88	9.826
654.21	10.269
654.54	8.746
654.86	10.592
655.19	9.324
655.52	4.124
655.84	2.192
656.17	2.573
656.49	3.411
656.82	3.531
657.15	2.951
657.47	2.325
657.80	1.942
658.13	2.048
658.45	3.666
658.78	3.514
659.10	3.964
659.43	4.493
659.75	5.449
660.08	5.316
660.41	7.076
660.73	9.657
661.06	9.873
661.38	10.364
661.71	13.654
662.03	11.834
662.36	9.742
662.68	11.847
663.01	13.131
663.33	15.074
663.66	11.555
663.98	12.527
664.31	10.924
664.63	11.134
664.96	11.670
665.28	13.115
665.61	11.306
665.93	10.463
666.26	12.373
666.58	12.971
666.91	14.376
667.23	11.910
667.56	11.447
667.88	11.966
668.21	11.301
668.53	11.931
668.86	12.771
669.18	15.565
669.50	13.478
669.83	15.468
670.15	15.111
670.48	13.290
670.80	13.147
671.13	12.739
671.45	11.702
671.77	14.053
672.10	12.015
672.42	10.601
672.75	9.950
673.07	10.739
673.39	9.403
673.72	10.156
674.04	10.784
674.37	13.398
674.69	11.861
675.01	11.297
675.34	14.579
675.66	13.895
675.98	12.424
676.31	12.185
676.63	12.314
676.95	14.256
677.28	12.150
677.60	12.308
677.92	13.713
678.25	12.115
678.57	13.147
678.89	10.421
679.22	10.020
679.54	10.305
679.86	13.761
680.18	12.522
680.51	11.348
680.83	11.744
681.15	11.132
681.48	13.611
681.80	10.058
682.12	10.153
682.44	8.317
682.77	12.016
683.09	14.592
683.41	12.195
683.73	14.128
684.06	13.017
684.38	11.546
684.70	13.372
685.02	11.445
685.34	10.440
685.67	8.916
685.99	9.450
686.31	11.433
686.63	9.364
686.96	9.286
687.28	11.191
687.60	9.058
687.92	10.420
688.24	10.837
688.56	13.855
688.89	13.485
689.21	15.721
689.53	13.987
689.85	12.417
690.17	13.043
690.49	16.348
690.82	12.150
691.14	10.268
691.46	11.392
691.78	10.843
692.10	14.463
692.42	12.974
692.74	10.581
693.06	13.830
693.39	15.400
693.71	14.847
694.03	12.632
694.35	12.121
694.67	12.357
694.99	15.366
695.31	12.990
695.63	11.962
695.95	12.958
696.27	10.406
696.59	15.026
696.91	15.803
697.23	10.563
697.56	13.433
697.88	11.452
698.20	13.125
698.52	14.409
698.84	14.031
699.16	9.677
699.48	13.777
699.80	14.251
700.12	18.182
700.44	15.119
700.76	14.365
701.08	16.667
701.40	13.128
701.72	15.160
702.04	19.886
702.36	11.898
702.68	15.581
703.00	16.066
703.32	14.096
703.64	16.354
703.96	15.877
704.28	14.826
704.60	16.129
704.91	15.430
705.23	21.701
705.55	21.927
705.87	18.605
706.19	19.435
706.51	18.380
706.83	15.152
707.15	15.406
707.47	13.889
707.79	14.251
708.11	14.384
708.43	14.762
708.74	13.265
709.06	16.623
709.38	16.010
709.70	17.733
710.02	20.772
710.34	17.576
710.66	20.000
710.98	19.318
711.29	18.314
711.61	20.649
711.93	14.744
712.25	19.293
712.57	18.015
712.89	21.453
713.20	19.757
713.52	18.750
713.84	18.671
714.16	17.073
714.48	15.805
714.80	18.237
715.11	16.715
715.43	13.056
715.75	17.101
716.07	15.974
716.39	20.690
716.70	20.598
717.02	18.345
717.34	18.375
717.66	25.000
717.97	22.709
718.29	18.889
718.61	20.073
718.93	19.118
719.24	20.069
719.56	16.610
719.88	20.678
720.20	19.932
720.51	24.042
720.83	23.420
721.15	19.030
721.46	21.986
721.78	27.240
722.10	18.868
722.42	23.308
722.73	16.105
723.05	18.852
723.37	23.482
723.68	25.097
724.00	19.919
724.32	21.371
724.63	21.138
724.95	25.523
725.27	22.267
725.58	21.094
725.90	22.628
726.22	20.377
726.53	19.792
726.85	23.549
727.16	21.352
727.48	21.631
727.80	20.833
728.11	22.464
728.43	18.846
728.74	21.147
729.06	26.642
729.38	24.265
729.69	23.132
730.01	20.478
730.32	18.056
730.64	21.070
730.96	15.512
731.27	20.199
731.59	21.407
731.90	19.242
732.22	18.944
732.53	16.409
732.85	16.026
733.16	18.328
733.48	18.605
733.80	17.208
734.11	20.701
734.43	17.160
734.74	17.429
735.06	13.467
735.37	19.364
735.69	16.879
736.00	20.915
736.32	21.184
736.63	17.572
736.95	18.530
737.26	15.306
737.58	16.774
737.89	18.395
738.21	21.160
738.52	18.571
738.83	20.000
739.15	20.769
739.46	21.168
739.78	19.792
740.09	18.154
740.41	20.968
740.72	19.164
741.04	21.852
741.35	21.250
741.66	24.444
741.98	23.113
742.29	25.359
742.61	27.155
742.92	26.244
743.23	26.068
743.55	27.200
743.86	27.632
744.18	27.876
744.49	27.751
744.80	26.291
745.12	27.273
745.43	23.348
745.74	28.378
746.06	28.899
746.37	24.215
746.68	26.697
747.00	25.000
747.31	26.190
747.62	21.681
747.94	24.229
748.25	24.255
748.56	28.194
748.88	24.257
749.19	31.500
749.50	24.186
749.82	24.797
750.13	21.633
750.44	21.533
750.75	21.754
751.07	22.830
751.38	22.997
751.69	20.578
752.01	21.429
752.32	18.051
752.63	24.468
752.94	22.541
753.26	27.200
753.57	19.919
753.88	25.391
754.19	20.714
754.51	24.653
754.82	18.412
755.13	23.396
755.44	21.053
755.75	20.073
756.07	20.567
756.38	18.613
756.69	19.799
757.00	18.263
757.31	16.320
757.63	16.959
757.94	17.158
758.25	19.363
758.56	12.840
758.87	18.280
759.18	17.879
759.50	19.122
759.81	19.938
760.12	18.437
760.43	19.484
760.74	16.848
761.05	16.102
761.36	15.241
761.67	19.602
761.99	16.149
762.30	16.667
762.61	23.664
762.92	24.609
763.23	21.849
763.54	28.000
763.85	22.266
764.16	25.000
764.47	25.856
764.78	21.201
765.10	19.304
765.41	18.584
765.72	17.365
766.03	20.690
766.34	20.000
766.65	25.957
766.96	26.923
767.27	31.472
767.58	29.167
767.89	41.579
768.20	30.460
768.51	32.487
768.82	25.229
769.13	28.455
769.44	23.482
769.75	23.176
770.06	17.890
770.37	28.054
770.68	25.463
770.99	28.889
771.30	23.770
771.61	25.112
771.92	25.000
772.23	27.311
772.54	25.641
772.85	28.796
773.16	31.383
773.47	31.522
773.78	32.487
774.09	35.714
774.39	38.012
774.70	37.654
775.01	36.232
775.32	37.255
775.63	41.447
775.94	32.374
776.25	44.094
776.56	45.522
776.87	44.262
777.18	38.281
777.48	43.511
777.79	46.970
778.10	42.222
778.41	46.429
778.72	45.255
779.03	40.268
779.34	37.584
779.65	37.162
779.95	30.675
780.26	40.523
780.57	43.448
780.88	52.344
781.19	46.617
781.50	43.243
781.80	38.994
782.11	31.073
782.42	36.709
782.73	30.061
783.04	40.541
783.34	33.099
783.65	54.795
783.96	38.060
784.27	44.056
784.57	34.532
784.88	45.370
785.19	44.444
785.50	48.113
785.81	46.269
786.11	46.721
786.42	48.837
786.73	42.478
787.04	53.774
787.34	46.429
787.65	55.000
787.96	49.550
788.26	46.281
788.57	46.610
788.88	50.413
789.19	54.167
789.49	44.697
789.80	45.802
790.11	67.619
790.41	61.386
790.72	71.084
791.03	64.130
791.33	54.651
791.64	46.392
791.95	58.416
792.25	71.111
792.56	67.532
792.87	65.385
793.17	73.418
793.48	66.667
793.79	67.816
794.09	71.591
794.40	42.857
794.70	50.735
795.01	37.778
795.32	48.921
795.62	46.457
795.93	53.448
796.23	46.903
796.54	61.176
796.85	62.162
797.15	87.324
797.46	83.333
797.76	77.108
798.07	62.025
798.37	61.538
798.68	69.697
798.99	70.423
799.29	72.727
799.60	64.773
799.90	80.822
800.21	86.567
800.51	72.414
800.82	87.719
801.12	85.246
801.43	98.485
801.73	62.162
802.04	87.302
802.34	83.951
802.65	85.938
802.95	91.525
803.26	104.688
803.56	74.286
803.87	78.462
804.17	94.118
804.48	81.481
804.78	89.655
805.09	83.824
805.39	119.231
805.70	98.214
806.00	98.361
806.30	80.303
806.61	81.707
806.91	51.899
807.22	61.842
807.52	53.731
807.83	74.648
808.13	93.750
808.43	93.333
808.74	68.421
809.04	76.812
809.35	86.567
809.65	86.842
809.95	111.290
810.26	91.525
810.56	98.413
810.86	122.727
811.17	135.714
811.47	100.000
811.77	85.185
812.08	109.091
812.38	116.000
812.69	119.444
812.99	131.818
813.29	120.408
813.59	92.857
813.90	116.327
814.20	100.000
814.50	101.538
814.81	95.588
815.11	104.082
815.41	100.000
815.72	116.667
816.02	125.455
816.32	135.714
816.62	122.500
816.93	117.073
817.23	121.429
817.53	109.091
817.84	160.606
818.14	108.696
818.44	115.556
818.74	147.059
819.04	122.500
819.35	125.714
819.65	155.882
819.95	157.143
820.25	215.000
820.56	135.897
820.86	131.818
821.16	116.279
821.46	125.641
821.76	130.000
822.07	140.000
822.37	145.000
822.67	172.727
822.97	117.647
823.27	203.571
823.57	135.135
823.88	150.000
824.18	193.333
824.48	140.476
824.78	212.000
825.08	191.667
825.38	132.432
825.69	126.829
825.99	208.333
826.29	124.138
826.59	139.474
826.89	142.105
827.19	173.529
827.49	170.968
827.79	150.000
828.09	138.636
828.39	125.532
828.70	110.204
829.00	162.963
829.30	158.065
829.60	150.000
829.90	246.667
830.20	192.857
830.50	213.043
830.80	200.000
831.10	213.333
831.40	170.000
831.70	204.348
832.00	215.385
832.30	196.296
832.60	331.250
832.90	210.000
833.20	385.714
833.50	219.355
833.80	189.655
834.10	203.125
834.40	242.308
834.70	316.667
835.00	314.286
835.30	151.429
835.60	330.769
835.90	203.448
836.20	300.000
836.50	220.690
836.80	188.000
837.10	147.222
837.40	266.667
837.70	341.176
838.00	214.815
838.30	242.857
838.60	285.714
838.90	188.462
839.19	265.000
839.49	421.429
839.79	270.000
840.09	245.000
840.39	295.238
840.69	273.913
840.99	288.889
841.29	400.000
841.59	333.333
841.88	356.250
842.18	155.172
842.48	252.381
842.78	213.333
843.08	256.522
843.38	178.125
843.68	866.667
843.97	242.308
844.27	206.897
844.57	295.238
844.87	375.000
845.17	225.926
845.47	1566.667
845.76	444.444
846.06	311.765
846.36	612.500
846.66	357.143
846.96	306.250
847.25	436.364
847.55	472.727
847.85	239.130
848.15	440.000
848.44	421.429
848.74	266.667
849.04	305.882
849.34	600.000
849.63	289.474
849.93	445.455
850.23	960.000
850.53	457.143
850.82	2750.000
851.12	-3400.000
851.42	5400.000
851.71	315.000
852.01	-1000.000
852.31	237.500
852.61	1866.667
852.90	276.190
853.20	256.000
853.50	352.941
853.79	247.619
854.09	241.667
854.39	356.250
854.68	170.270
854.98	193.548
855.28	143.333
855.57	237.931
855.87	240.741
856.17	257.895
856.46	253.333
856.76	288.235
857.05	182.759
857.35	237.500
857.65	300.000
857.94	247.826
858.24	257.692
858.53	300.000
858.83	272.727
859.13	360.000
859.42	0.000
859.72	600.000
860.01	518.182
860.31	272.727
860.60	268.421
860.90	252.174
861.20	633.333
861.49	500.000
861.79	-4600.000
862.08	775.000
862.38	300.000
862.67	361.538
862.97	423.529
863.26	588.889
863.56	372.222
863.85	516.667
864.15	625.000
864.44	373.333
864.74	900.000
865.03	625.000
865.33	352.632
865.62	427.273
865.92	369.231
866.21	475.000
866.51	0.000
866.80	463.636
867.10	1100.000
867.39	507.692
867.69	427.273
867.98	310.526
868.27	490.909
868.57	300.000
868.86	-4000.000
869.16	412.500
869.45	2000.000
869.75	-4000.000
870.04	433.333
870.33	571.429
870.63	1225.000
870.92	2450.000
871.22	971.429
871.51	382.353
871.80	271.429
872.10	414.286
>>>>>End Processed Spectral Data<<<<<
