SpectraSuite Data File
++++++++++++++++++++++++++++++++++++
Date: Wed May 13 19:12:18 PDT 2015
User: schluterlab
Dark Spectrum Present: Yes
Reference Spectrum Present: Yes
Number of Sampled Component Spectra: 1
Spectrometers: USB2E3373
Integration Time (usec): 3000 (USB2E3373)
Spectra Averaged: 3 (USB2E3373)
Boxcar Smoothing: 0 (USB2E3373)
Correct for Electrical Dark: No (USB2E3373)
Strobe/Lamp Enabled: No (USB2E3373)
Correct for Detector Non-linearity: No (USB2E3373)
Correct for Stray Light: No (USB2E3373)
Number of Pixels in Processed Spectrum: 2048
>>>>>Begin Processed Spectral Data<<<<<
178.53	0.000
178.91	-1450.000
179.29	-1500.000
179.67	-277.778
180.04	-1550.000
180.42	3100.000
180.80	1280.000
181.18	-1125.000
181.56	742.857
181.94	0.000
182.31	-771.429
182.69	1833.333
183.07	-712.500
183.45	-611.111
183.83	536.364
184.20	-480.000
184.58	2400.000
184.96	6100.000
185.34	-940.000
185.72	-737.500
186.09	-2700.000
186.47	2900.000
186.85	3050.000
187.23	5300.000
187.61	-1933.333
187.98	1525.000
188.36	572.727
188.74	609.091
189.12	-960.000
189.49	630.000
189.87	-6000.000
190.25	-1375.000
190.63	435.714
191.00	592.308
191.38	950.000
191.76	-1300.000
192.14	1575.000
192.51	762.500
192.89	1100.000
193.27	800.000
193.65	-1350.000
194.02	640.000
194.40	1180.000
194.78	580.000
195.15	625.000
195.53	800.000
195.91	-2750.000
196.29	418.750
196.66	378.947
197.04	-490.000
197.42	0.000
197.79	740.000
198.17	-5000.000
198.55	857.143
198.92	737.500
199.30	1080.000
199.68	0.000
200.05	427.778
200.43	814.286
200.81	4600.000
201.18	1700.000
201.56	-2000.000
201.94	677.778
202.31	733.333
202.69	475.000
203.07	720.000
203.44	0.000
203.82	1600.000
204.19	857.143
204.57	521.429
204.95	762.500
205.32	1766.667
205.70	490.909
206.08	428.571
206.45	3150.000
206.83	506.250
207.20	1150.000
207.58	700.000
207.96	377.778
208.33	875.000
208.71	-866.667
209.08	928.571
209.46	700.000
209.84	536.364
210.21	-2000.000
210.59	1575.000
210.96	-600.000
211.34	2350.000
211.71	740.000
212.09	800.000
212.46	0.000
212.84	2200.000
213.22	1425.000
213.59	-4500.000
213.97	866.667
214.34	900.000
214.72	654.545
215.09	860.000
215.47	-2800.000
215.84	-2600.000
216.22	1933.333
216.59	407.143
216.97	1650.000
217.34	590.909
217.72	-766.667
218.09	0.000
218.47	-5200.000
218.84	711.111
219.22	785.714
219.59	2066.667
219.97	-714.286
220.34	1140.000
220.72	-1800.000
221.09	471.429
221.47	1650.000
221.84	-1150.000
222.22	0.000
222.59	1550.000
222.97	-2650.000
223.34	1420.000
223.72	507.692
224.09	1180.000
224.46	2950.000
224.84	-4700.000
225.21	-1160.000
225.59	-5100.000
225.96	680.000
226.34	335.000
226.71	3400.000
227.08	750.000
227.46	670.000
227.83	-1325.000
228.21	-2500.000
228.58	666.667
228.95	-3150.000
229.33	-3050.000
229.70	1800.000
230.08	814.286
230.45	-960.000
230.82	533.333
231.20	950.000
231.57	871.429
231.95	550.000
232.32	336.364
232.69	536.364
233.07	700.000
233.44	461.538
233.81	-1766.667
234.19	357.895
234.56	616.667
234.93	508.333
235.31	609.091
235.68	438.462
236.05	492.857
236.43	242.424
236.80	352.632
237.17	7300.000
237.55	342.857
237.92	317.857
238.29	347.619
238.67	254.839
239.04	289.655
239.41	236.111
239.79	176.087
240.16	207.143
240.53	209.091
240.91	172.549
241.28	174.000
241.65	170.000
242.02	157.971
242.40	154.839
242.77	155.000
243.14	124.731
243.51	123.596
243.89	129.412
244.26	113.333
244.63	115.054
245.00	117.021
245.38	114.851
245.75	119.626
246.12	103.670
246.49	112.409
246.87	110.400
247.24	102.308
247.61	100.714
247.98	101.307
248.36	97.297
248.73	93.631
249.10	98.726
249.47	87.006
249.84	84.492
250.22	87.166
250.59	98.817
250.96	88.889
251.33	90.521
251.70	91.089
252.08	93.810
252.45	85.650
252.82	82.174
253.19	88.085
253.56	82.745
253.94	80.498
254.31	83.203
254.68	84.231
255.05	80.074
255.42	83.333
255.79	78.309
256.16	82.671
256.54	75.265
256.91	81.495
257.28	76.619
257.65	78.548
258.02	75.776
258.39	75.710
258.76	80.268
259.14	73.214
259.51	76.900
259.88	72.981
260.25	74.320
260.62	75.145
260.99	76.708
261.36	75.075
261.73	74.212
262.10	71.802
262.47	74.085
262.85	72.702
263.22	72.650
263.59	77.208
263.96	69.780
264.33	69.713
264.70	70.789
265.07	70.588
265.44	71.212
265.81	68.856
266.18	71.106
266.55	70.976
266.92	71.499
267.29	70.833
267.66	69.725
268.03	68.409
268.40	69.159
268.77	66.587
269.14	68.468
269.51	68.623
269.88	69.930
270.25	67.946
270.62	70.562
270.99	67.742
271.36	65.021
271.73	71.495
272.10	65.652
272.47	68.387
272.84	67.532
273.21	67.296
273.58	63.537
273.95	65.828
274.32	65.083
274.69	66.809
275.06	63.189
275.43	68.298
275.80	64.128
276.17	65.784
276.54	68.607
276.91	63.043
277.28	61.914
277.65	64.797
278.02	65.839
278.39	67.773
278.76	62.545
279.13	64.717
279.50	62.756
279.87	63.347
280.23	64.072
280.60	61.122
280.97	63.031
281.34	63.186
281.71	62.727
282.08	63.724
282.45	64.545
282.82	60.213
283.19	59.893
283.56	61.930
283.92	60.068
284.29	61.728
284.66	61.706
285.03	58.590
285.40	59.507
285.77	59.428
286.14	58.204
286.51	60.167
286.87	60.342
287.24	58.795
287.61	58.427
287.98	57.305
288.35	56.735
288.72	56.231
289.08	57.746
289.45	56.837
289.82	54.472
290.19	54.474
290.56	54.364
290.93	50.000
291.29	54.294
291.66	53.540
292.03	53.198
292.40	56.094
292.77	52.367
293.13	52.239
293.50	54.665
293.87	51.259
294.24	50.963
294.60	51.965
294.97	50.727
295.34	52.609
295.71	51.562
296.08	50.427
296.44	48.418
296.81	47.952
297.18	50.542
297.55	47.230
297.91	48.417
298.28	49.398
298.65	47.781
299.02	47.826
299.38	48.473
299.75	44.609
300.12	47.765
300.48	45.000
300.85	48.089
301.22	44.968
301.59	44.697
301.95	47.985
302.32	46.727
302.69	45.878
303.05	45.212
303.42	44.938
303.79	44.960
304.15	44.522
304.52	44.496
304.89	44.948
305.25	43.271
305.62	43.941
305.99	45.573
306.35	43.848
306.72	43.834
307.09	44.062
307.45	44.369
307.82	43.192
308.19	44.260
308.55	43.581
308.92	44.576
309.29	41.394
309.65	42.948
310.02	42.812
310.38	44.624
310.75	45.407
311.12	43.501
311.48	44.514
311.85	45.597
312.22	44.537
312.58	45.010
312.95	45.935
313.31	43.592
313.68	46.778
314.05	47.140
314.41	47.337
314.78	46.928
315.14	47.170
315.51	48.610
315.87	48.812
316.24	49.652
316.61	50.097
316.97	49.413
317.34	49.902
317.70	52.008
318.07	53.513
318.43	53.914
318.80	55.576
319.16	55.650
319.53	53.096
319.89	57.238
320.26	58.300
320.62	59.425
320.99	59.899
321.35	63.131
321.72	63.963
322.08	65.647
322.45	68.557
322.81	69.186
323.18	71.098
323.54	71.336
323.91	74.623
324.27	76.386
324.64	78.751
325.00	79.982
325.37	83.258
325.73	86.355
326.10	87.202
326.46	90.502
326.83	91.890
327.19	92.827
327.56	97.648
327.92	99.038
328.29	102.130
328.65	104.972
329.01	102.798
329.38	108.881
329.74	107.572
330.11	112.064
330.47	111.938
330.84	113.419
331.20	113.115
331.56	112.844
331.93	118.981
332.29	115.617
332.66	117.080
333.02	119.561
333.38	120.596
333.75	118.806
334.11	123.754
334.48	123.336
334.84	123.805
335.20	126.091
335.57	123.844
335.93	124.196
336.29	126.740
336.66	128.043
337.02	124.434
337.38	126.759
337.75	126.025
338.11	126.052
338.47	130.663
338.84	132.172
339.20	129.450
339.56	133.394
339.93	129.818
340.29	129.620
340.65	129.590
341.02	129.058
341.38	130.872
341.74	130.351
342.11	131.179
342.47	132.511
342.83	129.195
343.20	133.074
343.56	129.739
343.92	131.667
344.28	130.612
344.65	133.190
345.01	131.061
345.37	130.017
345.73	130.711
346.10	131.628
346.46	134.068
346.82	132.043
347.19	132.414
347.55	131.527
347.91	131.877
348.27	132.046
348.63	132.609
349.00	132.848
349.36	134.811
349.72	131.034
350.08	131.686
350.45	131.896
350.81	132.088
351.17	131.767
351.53	131.450
351.89	130.281
352.26	131.255
352.62	132.799
352.98	130.389
353.34	132.457
353.70	133.552
354.07	133.226
354.43	130.714
354.79	128.721
355.15	131.524
355.51	134.373
355.87	135.020
356.24	131.759
356.60	131.997
356.96	135.157
357.32	133.034
357.68	133.307
358.04	130.958
358.40	130.245
358.77	131.064
359.13	130.939
359.49	130.667
359.85	132.143
360.21	132.456
360.57	132.840
360.93	133.538
361.29	132.124
361.66	132.353
362.02	132.910
362.38	133.460
362.74	133.333
363.10	132.346
363.46	131.181
363.82	133.409
364.18	130.764
364.54	133.358
364.90	131.586
365.26	133.971
365.62	133.528
365.98	132.652
366.35	129.585
366.71	134.056
367.07	133.722
367.43	133.672
367.79	134.404
368.15	131.897
368.51	131.613
368.87	134.904
369.23	132.772
369.59	133.020
369.95	132.868
370.31	131.624
370.67	130.362
371.03	132.659
371.39	133.528
371.75	131.985
372.11	131.294
372.47	132.185
372.83	135.231
373.19	133.382
373.55	135.107
373.91	135.788
374.27	129.622
374.63	135.055
374.99	132.486
375.35	133.147
375.71	130.980
376.07	133.539
376.42	135.351
376.78	130.484
377.14	132.225
377.50	132.914
377.86	133.112
378.22	131.985
378.58	131.767
378.94	130.861
379.30	133.461
379.66	135.596
380.02	131.143
380.38	131.208
380.74	131.513
381.09	131.357
381.45	132.145
381.81	130.958
382.17	132.548
382.53	133.396
382.89	132.963
383.25	132.395
383.61	133.209
383.97	131.395
384.32	129.070
384.68	129.306
385.04	130.977
385.40	131.765
385.76	130.405
386.12	131.477
386.48	132.536
386.83	134.317
387.19	133.271
387.55	131.664
387.91	131.499
388.27	130.227
388.62	131.162
388.98	130.958
389.34	129.912
389.70	129.675
390.06	130.608
390.42	131.453
390.77	128.880
391.13	133.121
391.49	131.472
391.85	129.854
392.20	131.924
392.56	132.702
392.92	131.430
393.28	131.243
393.64	129.197
393.99	128.833
394.35	129.342
394.71	128.670
395.07	127.352
395.42	131.150
395.78	128.372
396.14	127.685
396.50	128.947
396.85	130.261
397.21	126.880
397.57	128.766
397.92	129.147
398.28	126.794
398.64	127.001
399.00	128.092
399.35	126.904
399.71	127.836
400.07	125.015
400.42	127.362
400.78	127.081
401.14	129.390
401.49	129.313
401.85	127.526
402.21	126.228
402.57	126.589
402.92	126.293
403.28	126.546
403.63	125.928
403.99	128.662
404.35	126.061
404.70	126.978
405.06	125.568
405.42	127.823
405.77	125.486
406.13	122.348
406.49	126.020
406.84	122.918
407.20	124.113
407.55	125.399
407.91	125.667
408.27	128.653
408.62	122.517
408.98	124.387
409.34	124.723
409.69	125.161
410.05	122.800
410.40	124.709
410.76	124.492
411.11	122.979
411.47	122.428
411.83	123.335
412.18	122.140
412.54	122.665
412.89	120.843
413.25	122.432
413.60	124.645
413.96	120.522
414.31	122.783
414.67	122.053
415.03	124.040
415.38	122.036
415.74	123.087
416.09	125.212
416.45	124.431
416.80	123.463
417.16	123.727
417.51	122.495
417.87	121.323
418.22	122.587
418.58	120.142
418.93	123.403
419.29	121.133
419.64	120.403
420.00	120.061
420.35	120.696
420.71	121.160
421.06	120.644
421.42	119.825
421.77	121.525
422.12	121.561
422.48	121.587
422.83	122.481
423.19	118.840
423.54	122.461
423.90	119.942
424.25	120.659
424.61	119.643
424.96	121.516
425.31	120.210
425.67	117.640
426.02	119.371
426.38	121.123
426.73	119.895
427.09	118.723
427.44	121.162
427.79	120.069
428.15	119.345
428.50	119.544
428.85	119.547
429.21	119.934
429.56	120.529
429.92	118.420
430.27	119.762
430.62	119.406
430.98	120.083
431.33	118.247
431.68	120.838
432.04	117.891
432.39	121.759
432.74	121.963
433.10	121.505
433.45	120.875
433.80	119.900
434.16	120.353
434.51	118.421
434.86	118.130
435.22	120.011
435.57	121.033
435.92	119.836
436.28	120.463
436.63	119.371
436.98	119.061
437.34	121.348
437.69	121.587
438.04	121.866
438.39	119.343
438.75	121.092
439.10	120.279
439.45	120.366
439.81	120.785
440.16	118.069
440.51	120.094
440.86	120.324
441.22	118.576
441.57	121.072
441.92	122.671
442.27	118.999
442.63	119.695
442.98	122.141
443.33	120.870
443.68	120.599
444.03	120.205
444.39	120.594
444.74	121.212
445.09	121.132
445.44	119.792
445.79	119.990
446.15	117.734
446.50	120.679
446.85	120.452
447.20	121.163
447.55	122.948
447.91	119.912
448.26	119.922
448.61	122.329
448.96	120.875
449.31	120.979
449.66	119.865
450.02	120.557
450.37	121.088
450.72	120.530
451.07	121.633
451.42	118.480
451.77	120.317
452.12	118.476
452.47	120.274
452.83	121.562
453.18	118.643
453.53	120.161
453.88	120.614
454.23	121.100
454.58	120.230
454.93	123.395
455.28	118.703
455.63	118.750
455.98	122.619
456.34	119.849
456.69	120.914
457.04	122.663
457.39	119.345
457.74	119.849
458.09	119.206
458.44	119.897
458.79	118.004
459.14	118.736
459.49	118.214
459.84	118.837
460.19	119.682
460.54	115.336
460.89	118.760
461.24	121.190
461.59	119.407
461.94	118.989
462.29	119.228
462.64	118.826
462.99	117.567
463.34	119.333
463.69	118.949
464.04	118.493
464.39	117.681
464.74	118.776
465.09	118.516
465.44	118.726
465.79	118.009
466.14	116.256
466.49	117.019
466.84	118.214
467.19	116.295
467.54	117.438
467.89	117.107
468.24	115.939
468.59	119.109
468.94	116.371
469.29	117.288
469.64	117.336
469.99	119.418
470.34	119.089
470.68	119.684
471.03	117.211
471.38	118.624
471.73	115.789
472.08	118.684
472.43	116.897
472.78	116.656
473.13	115.276
473.48	115.481
473.83	117.622
474.17	116.926
474.52	116.873
474.87	115.587
475.22	116.019
475.57	115.046
475.92	116.038
476.27	116.291
476.61	115.003
476.96	116.987
477.31	114.966
477.66	115.810
478.01	112.284
478.36	115.918
478.70	116.199
479.05	115.442
479.40	115.404
479.75	116.218
480.10	115.109
480.45	113.613
480.79	113.951
481.14	115.117
481.49	115.615
481.84	114.861
482.19	115.448
482.53	113.624
482.88	115.216
483.23	115.047
483.58	113.785
483.92	114.948
484.27	113.072
484.62	114.353
484.97	112.889
485.31	116.507
485.66	114.036
486.01	113.357
486.36	109.829
486.70	107.467
487.05	108.931
487.40	112.360
487.75	112.651
488.09	113.831
488.44	114.710
488.79	114.973
489.13	115.852
489.48	114.927
489.83	113.423
490.17	114.730
490.52	112.976
490.87	113.116
491.22	111.141
491.56	113.121
491.91	112.517
492.26	111.530
492.60	111.843
492.95	111.366
493.30	110.607
493.64	112.692
493.99	111.931
494.34	112.072
494.68	111.584
495.03	111.278
495.37	110.144
495.72	113.304
496.07	112.343
496.41	110.000
496.76	111.434
497.11	110.356
497.45	112.110
497.80	111.132
498.14	111.063
498.49	111.902
498.84	112.320
499.18	111.333
499.53	111.728
499.87	110.485
500.22	109.562
500.56	112.233
500.91	110.529
501.26	109.720
501.60	112.340
501.95	108.708
502.29	112.371
502.64	110.056
502.98	110.566
503.33	107.998
503.67	110.302
504.02	110.337
504.36	107.955
504.71	110.259
505.06	110.554
505.40	110.209
505.75	108.390
506.09	108.795
506.44	110.557
506.78	109.791
507.13	110.399
507.47	109.596
507.82	109.574
508.16	109.625
508.51	111.060
508.85	109.930
509.19	110.153
509.54	108.724
509.88	108.964
510.23	109.357
510.57	109.288
510.92	110.202
511.26	108.684
511.61	107.417
511.95	107.046
512.30	108.378
512.64	107.577
512.98	109.325
513.33	108.458
513.67	106.297
514.02	106.818
514.36	109.066
514.70	108.522
515.05	108.422
515.39	107.740
515.74	108.671
516.08	108.049
516.42	107.714
516.77	109.420
517.11	107.214
517.46	107.449
517.80	109.756
518.14	106.312
518.49	107.935
518.83	107.159
519.17	106.582
519.52	106.904
519.86	107.302
520.20	107.572
520.55	107.720
520.89	108.394
521.23	108.022
521.58	107.743
521.92	109.124
522.26	104.881
522.61	107.290
522.95	104.850
523.29	106.452
523.64	104.939
523.98	108.996
524.32	105.609
524.66	105.412
525.01	106.863
525.35	106.320
525.69	105.049
526.04	105.421
526.38	107.077
526.72	102.945
527.06	107.972
527.41	103.960
527.75	107.138
528.09	106.551
528.43	106.437
528.78	104.917
529.12	106.061
529.46	107.410
529.80	106.869
530.15	105.670
530.49	104.123
530.83	105.949
531.17	109.073
531.51	107.198
531.86	107.677
532.20	106.258
532.54	105.317
532.88	105.392
533.22	103.748
533.57	104.259
533.91	104.214
534.25	104.921
534.59	105.247
534.93	103.450
535.27	106.337
535.62	105.739
535.96	106.591
536.30	105.213
536.64	104.765
536.98	105.109
537.32	104.872
537.66	106.333
538.01	106.320
538.35	103.685
538.69	104.978
539.03	105.458
539.37	104.473
539.71	103.305
540.05	104.771
540.39	105.183
540.73	104.140
541.07	106.360
541.42	105.414
541.76	105.290
542.10	103.881
542.44	105.960
542.78	105.072
543.12	103.007
543.46	105.443
543.80	105.270
544.14	103.530
544.48	105.143
544.82	104.169
545.16	105.465
545.50	103.213
545.84	104.435
546.18	105.253
546.52	105.024
546.86	104.880
547.20	105.192
547.54	104.342
547.88	103.316
548.22	104.857
548.56	104.151
548.90	102.881
549.24	104.444
549.58	103.547
549.92	103.846
550.26	105.966
550.60	101.383
550.94	105.000
551.28	103.731
551.62	104.673
551.96	104.281
552.30	103.959
552.64	104.801
552.98	103.322
553.32	101.821
553.66	103.749
554.00	104.530
554.34	104.072
554.68	105.651
555.02	102.186
555.36	103.897
555.69	102.706
556.03	103.499
556.37	104.366
556.71	103.274
557.05	103.151
557.39	100.770
557.73	101.482
558.07	105.439
558.41	102.460
558.75	103.380
559.08	104.400
559.42	103.099
559.76	102.868
560.10	101.999
560.44	102.446
560.78	101.796
561.12	102.441
561.45	101.043
561.79	100.791
562.13	103.555
562.47	102.937
562.81	103.138
563.15	100.803
563.48	103.249
563.82	102.348
564.16	102.354
564.50	102.148
564.84	100.506
565.17	101.866
565.51	103.514
565.85	101.967
566.19	101.190
566.52	103.103
566.86	101.929
567.20	102.535
567.54	104.224
567.88	101.901
568.21	102.487
568.55	103.033
568.89	103.356
569.23	102.629
569.56	100.162
569.90	101.660
570.24	102.583
570.57	101.632
570.91	100.129
571.25	99.969
571.59	100.442
571.92	102.218
572.26	101.300
572.60	101.712
572.93	100.150
573.27	101.390
573.61	101.535
573.95	101.654
574.28	101.030
574.62	100.243
574.96	100.478
575.29	100.291
575.63	100.711
575.97	100.130
576.30	100.584
576.64	101.188
576.98	100.219
577.31	100.809
577.65	99.848
577.98	100.905
578.32	99.404
578.66	99.853
578.99	100.639
579.33	100.266
579.67	100.219
580.00	100.312
580.34	101.875
580.67	100.213
581.01	100.270
581.35	101.166
581.68	99.777
582.02	99.248
582.35	99.783
582.69	100.000
583.02	100.481
583.36	101.476
583.70	101.748
584.03	101.228
584.37	102.134
584.70	102.638
585.04	100.758
585.37	100.023
585.71	100.070
586.04	100.411
586.38	102.038
586.72	102.265
587.05	99.701
587.39	100.290
587.72	100.335
588.06	100.961
588.39	99.918
588.73	100.557
589.06	102.057
589.40	102.761
589.73	101.760
590.07	100.996
590.40	100.329
590.73	102.849
591.07	102.808
591.40	101.054
591.74	102.338
592.07	100.305
592.41	101.116
592.74	100.300
593.08	98.934
593.41	100.475
593.75	97.439
594.08	98.760
594.41	99.929
594.75	100.776
595.08	99.320
595.42	100.385
595.75	100.748
596.09	101.051
596.42	100.314
596.75	101.224
597.09	101.212
597.42	98.019
597.75	100.906
598.09	99.565
598.42	100.215
598.76	100.122
599.09	98.404
599.42	98.472
599.76	99.195
600.09	98.470
600.42	99.708
600.76	97.893
601.09	98.616
601.42	100.761
601.76	99.507
602.09	99.447
602.42	100.199
602.76	100.443
603.09	100.944
603.42	99.727
603.76	98.666
604.09	99.806
604.42	99.959
604.76	100.127
605.09	99.738
605.42	98.247
605.75	98.303
606.09	99.349
606.42	101.144
606.75	99.336
607.09	97.865
607.42	97.989
607.75	96.624
608.08	97.872
608.42	99.507
608.75	98.557
609.08	99.121
609.41	96.859
609.75	98.761
610.08	98.586
610.41	100.140
610.74	99.196
611.07	99.852
611.41	97.939
611.74	98.894
612.07	99.224
612.40	99.423
612.73	98.579
613.07	99.677
613.40	98.947
613.73	97.588
614.06	100.000
614.39	97.483
614.72	96.474
615.06	98.214
615.39	97.665
615.72	97.648
616.05	97.236
616.38	98.555
616.71	100.119
617.05	101.531
617.38	97.054
617.71	98.619
618.04	99.219
618.37	95.979
618.70	98.755
619.03	98.158
619.36	98.167
619.69	98.944
620.03	100.000
620.36	98.529
620.69	99.863
621.02	100.442
621.35	97.572
621.68	96.651
622.01	99.303
622.34	96.823
622.67	99.772
623.00	96.552
623.33	95.997
623.66	99.500
623.99	98.454
624.32	96.862
624.65	96.751
624.99	98.300
625.32	95.510
625.65	98.197
625.98	100.692
626.31	97.745
626.64	98.041
626.97	97.340
627.30	98.337
627.63	97.129
627.96	98.402
628.29	96.500
628.62	96.249
628.95	97.642
629.28	97.080
629.61	96.700
629.94	99.143
630.26	97.521
630.59	97.140
630.92	97.797
631.25	96.742
631.58	96.797
631.91	96.450
632.24	98.312
632.57	95.803
632.90	98.246
633.23	96.868
633.56	96.271
633.89	95.696
634.22	97.162
634.55	99.408
634.88	96.168
635.20	96.774
635.53	97.952
635.86	99.752
636.19	97.059
636.52	94.925
636.85	97.251
637.18	94.009
637.51	97.991
637.83	94.698
638.16	98.849
638.49	98.363
638.82	100.885
639.15	97.125
639.48	95.761
639.81	100.804
640.13	95.312
640.46	96.779
640.79	96.301
641.12	96.011
641.45	96.648
641.77	101.178
642.10	97.515
642.43	96.997
642.76	97.368
643.09	98.313
643.41	95.599
643.74	97.222
644.07	96.341
644.40	93.712
644.73	98.898
645.05	98.098
645.38	95.735
645.71	98.229
646.04	97.342
646.36	103.005
646.69	99.164
647.02	97.449
647.35	97.079
647.67	97.345
648.00	95.447
648.33	99.340
648.66	95.909
648.98	95.502
649.31	98.505
649.64	96.562
649.96	96.125
650.29	97.314
650.62	94.822
650.94	97.083
651.27	100.676
651.60	98.835
651.92	95.367
652.25	96.743
652.58	95.327
652.90	97.788
653.23	94.145
653.56	95.433
653.88	96.355
654.21	99.368
654.54	100.990
654.86	96.885
655.19	95.405
655.52	76.330
655.84	78.749
656.17	100.000
656.49	100.000
656.82	100.000
657.15	100.000
657.47	100.000
657.80	100.000
658.13	84.361
658.45	99.126
658.78	99.363
659.10	102.378
659.43	105.820
659.75	107.012
660.08	112.658
660.41	114.432
660.73	106.607
661.06	103.981
661.38	104.000
661.71	102.308
662.03	97.633
662.36	94.831
662.68	97.189
663.01	97.576
663.33	96.603
663.66	97.059
663.98	101.512
664.31	99.160
664.63	91.093
664.96	93.561
665.28	96.721
665.61	94.932
665.93	94.769
666.26	96.755
666.58	98.326
666.91	97.886
667.23	97.978
667.56	94.600
667.88	95.940
668.21	94.670
668.53	94.360
668.86	98.268
669.18	94.456
669.50	96.087
669.83	97.168
670.15	96.000
670.48	94.118
670.80	97.845
671.13	94.904
671.45	96.383
671.77	99.796
672.10	93.346
672.42	91.873
672.75	91.874
673.07	97.887
673.39	94.937
673.72	94.531
674.04	95.294
674.37	94.757
674.69	97.751
675.01	100.418
675.34	94.661
675.66	97.474
675.98	93.075
676.31	90.126
676.63	98.726
676.95	93.501
677.28	100.000
677.60	94.725
677.92	99.156
678.25	95.277
678.57	96.016
678.89	98.597
679.22	94.303
679.54	92.748
679.86	93.028
680.18	91.950
680.51	94.149
680.83	91.815
681.15	98.302
681.48	92.439
681.80	94.584
682.12	95.594
682.44	94.197
682.77	98.982
683.09	98.712
683.41	101.552
683.73	96.247
684.06	96.488
684.38	92.172
684.70	93.023
685.02	95.872
685.34	94.505
685.67	91.958
685.99	93.127
686.31	94.369
686.63	92.580
686.96	93.214
687.28	92.058
687.60	92.572
687.92	95.430
688.24	96.198
688.56	94.177
688.89	96.680
689.21	98.253
689.53	92.067
689.85	98.004
690.17	91.511
690.49	91.507
690.82	98.598
691.14	94.196
691.46	89.030
691.78	92.570
692.10	96.901
692.42	91.417
692.74	92.739
693.06	92.766
693.39	93.224
693.71	97.598
694.03	96.211
694.35	93.074
694.67	93.593
694.99	98.293
695.31	94.853
695.63	93.301
695.95	97.555
696.27	96.954
696.59	92.228
696.91	91.969
697.23	85.211
697.56	91.258
697.88	92.025
698.20	92.292
698.52	93.763
698.84	94.878
699.16	92.857
699.48	94.062
699.80	95.411
700.12	99.740
700.44	95.225
700.76	95.856
701.08	98.563
701.40	93.296
701.72	97.668
702.04	96.307
702.36	92.635
702.68	91.785
703.00	93.906
703.32	92.287
703.64	95.442
703.96	93.036
704.28	97.965
704.60	100.293
704.91	96.439
705.23	94.428
705.55	100.664
705.87	101.661
706.19	98.940
706.51	94.081
706.83	93.939
707.15	94.398
707.47	92.424
707.79	94.840
708.11	89.041
708.43	93.333
708.74	95.408
709.06	97.662
709.38	96.588
709.70	97.674
710.02	99.703
710.34	92.424
710.66	99.104
710.98	91.761
711.29	91.570
711.61	92.625
711.93	93.910
712.25	101.286
712.57	100.368
712.89	98.962
713.20	89.058
713.52	91.776
713.84	96.203
714.16	95.122
714.48	91.379
714.80	102.128
715.11	94.236
715.43	97.626
715.75	94.493
716.07	97.125
716.39	95.611
716.70	98.007
717.02	95.324
717.34	91.519
717.66	95.522
717.97	99.203
718.29	95.926
718.61	95.255
718.93	97.426
719.24	97.924
719.56	92.881
719.88	92.203
720.20	91.554
720.51	99.652
720.83	100.372
721.15	97.015
721.46	92.199
721.78	101.434
722.10	99.623
722.42	100.000
722.73	100.000
723.05	105.738
723.37	99.595
723.68	93.050
724.00	96.341
724.32	100.806
724.63	104.065
724.95	97.490
725.27	101.619
725.58	97.656
725.90	97.810
726.22	102.264
726.53	95.139
726.85	91.126
727.16	95.730
727.48	96.099
727.80	96.970
728.11	94.203
728.43	96.154
728.74	90.323
729.06	100.365
729.38	101.838
729.69	94.662
730.01	92.491
730.32	88.542
730.64	97.993
730.96	90.099
731.27	95.695
731.59	99.694
731.90	93.878
732.22	96.584
732.53	93.189
732.85	91.346
733.16	94.534
733.48	96.678
733.80	94.805
734.11	93.631
734.43	94.083
734.74	92.571
735.06	91.691
735.37	96.243
735.69	94.586
736.00	94.444
736.32	94.393
736.63	86.901
736.95	90.415
737.26	92.857
737.58	92.581
737.89	98.662
738.21	96.928
738.52	93.214
738.83	95.849
739.15	94.231
739.46	94.526
739.78	96.528
740.09	87.692
740.41	90.645
740.72	90.592
741.04	104.074
741.35	97.917
741.66	108.000
741.98	98.113
742.29	104.785
742.61	96.121
742.92	102.262
743.23	100.000
743.55	96.400
743.86	93.421
744.18	99.558
744.49	106.699
744.80	96.714
745.12	103.182
745.43	97.357
745.74	102.703
746.06	94.495
746.37	91.480
746.68	95.928
747.00	102.315
747.31	98.095
747.62	93.805
747.94	96.035
748.25	94.043
748.56	95.595
748.88	104.455
749.19	100.000
749.50	95.349
749.82	89.431
750.13	97.551
750.44	91.606
750.75	94.386
751.07	91.318
751.38	91.986
751.69	93.502
752.01	99.248
752.32	90.614
752.63	92.199
752.94	100.410
753.26	96.800
753.57	83.740
753.88	97.266
754.19	90.000
754.51	96.181
754.82	93.863
755.13	89.057
755.44	94.737
755.75	90.511
756.07	90.426
756.38	94.891
756.69	92.617
757.00	84.731
757.31	86.647
757.63	89.474
757.94	86.059
758.25	85.539
758.56	83.951
758.87	87.634
759.18	94.242
759.50	88.715
759.81	85.358
760.12	90.937
760.43	87.106
760.74	84.511
761.05	92.373
761.36	85.561
761.67	91.477
761.99	90.373
762.30	98.264
762.61	91.985
762.92	94.141
763.23	93.277
763.54	94.000
763.85	91.797
764.16	101.154
764.47	93.536
764.78	90.106
765.10	86.076
765.41	91.150
765.72	93.114
766.03	88.088
766.34	88.333
766.65	104.681
766.96	93.162
767.27	102.030
767.58	100.000
767.89	100.526
768.20	98.276
768.51	99.492
768.82	99.083
769.13	83.740
769.44	95.951
769.75	99.571
770.06	98.624
770.37	101.810
770.68	94.907
770.99	94.667
771.30	85.656
771.61	103.139
771.92	91.803
772.23	103.361
772.54	103.077
772.85	99.476
773.16	98.936
773.47	104.891
773.78	100.000
774.09	106.548
774.39	103.509
774.70	96.296
775.01	115.942
775.32	104.575
775.63	101.974
775.94	107.914
776.25	120.472
776.56	105.224
776.87	113.934
777.18	110.938
777.48	111.450
777.79	118.939
778.10	108.889
778.41	121.429
778.72	103.650
779.03	106.040
779.34	104.027
779.65	109.459
779.95	105.521
780.26	109.804
780.57	107.586
780.88	127.344
781.19	111.278
781.50	106.757
781.80	110.063
782.11	97.740
782.42	106.329
782.73	97.546
783.04	106.081
783.34	111.972
783.65	119.178
783.96	116.418
784.27	106.993
784.57	110.791
784.88	121.296
785.19	110.317
785.50	111.321
785.81	110.448
786.11	109.836
786.42	110.078
786.73	114.159
787.04	120.755
787.34	117.857
787.65	132.000
787.96	123.423
788.26	114.050
788.57	122.034
788.88	114.050
789.19	98.611
789.49	121.970
789.80	120.611
790.11	127.619
790.41	115.842
790.72	132.530
791.03	133.696
791.33	136.047
791.64	128.866
791.95	127.723
792.25	130.000
792.56	150.649
792.87	147.436
793.17	151.899
793.48	147.126
793.79	132.184
794.09	129.545
794.40	112.605
794.70	102.206
795.01	100.000
795.32	108.633
795.62	111.024
795.93	118.966
796.23	105.310
796.54	121.176
796.85	129.730
797.15	149.296
797.46	148.485
797.76	139.759
798.07	137.975
798.37	153.846
798.68	169.697
798.99	138.028
799.29	148.052
799.60	119.318
799.90	147.945
800.21	168.657
800.51	174.138
800.82	154.386
801.12	150.820
801.43	150.000
801.73	136.486
802.04	150.794
802.34	137.037
802.65	146.875
802.95	155.932
803.26	168.750
803.56	134.286
803.87	144.615
804.17	157.353
804.48	185.185
804.78	158.621
805.09	133.824
805.39	180.769
805.70	189.286
806.00	155.738
806.30	150.000
806.61	123.171
806.91	126.582
807.22	143.421
807.52	135.821
807.83	136.620
808.13	146.875
808.43	168.333
808.74	135.526
809.04	133.333
809.35	147.761
809.65	135.526
809.95	159.677
810.26	154.237
810.56	161.905
810.86	200.000
811.17	207.143
811.47	145.000
811.77	155.556
812.08	167.273
812.38	166.000
812.69	250.000
812.99	206.818
813.29	171.429
813.59	171.429
813.90	214.286
814.20	163.636
814.50	143.077
814.81	154.412
815.11	193.878
815.41	144.262
815.72	185.714
816.02	170.909
816.32	192.857
816.62	200.000
816.93	197.561
817.23	185.714
817.53	184.091
817.84	242.424
818.14	180.435
818.44	175.556
818.74	267.647
819.04	192.500
819.35	211.429
819.65	244.118
819.95	267.857
820.25	340.000
820.56	248.718
820.86	184.091
821.16	176.744
821.46	207.692
821.76	198.000
822.07	260.000
822.37	230.000
822.67	254.545
822.97	158.824
823.27	260.714
823.57	205.405
823.88	202.500
824.18	270.000
824.48	173.810
824.78	272.000
825.08	233.333
825.38	221.622
825.69	192.683
825.99	325.000
826.29	241.379
826.59	255.263
826.89	178.947
827.19	217.647
827.49	238.710
827.79	190.909
828.09	181.818
828.39	178.723
828.70	167.347
829.00	255.556
829.30	238.710
829.60	192.500
829.90	413.333
830.20	275.000
830.50	278.261
830.80	291.304
831.10	270.000
831.40	250.000
831.70	260.870
832.00	326.923
832.30	244.444
832.60	393.750
832.90	246.667
833.20	528.571
833.50	235.484
833.80	237.931
834.10	234.375
834.40	288.462
834.70	394.444
835.00	376.190
835.30	202.857
835.60	469.231
835.90	251.724
836.20	457.143
836.50	279.310
836.80	236.000
837.10	236.111
837.40	300.000
837.70	364.706
838.00	248.148
838.30	300.000
838.60	347.619
838.90	257.692
839.19	380.000
839.49	521.429
839.79	375.000
840.09	315.000
840.39	309.524
840.69	265.217
840.99	355.556
841.29	550.000
841.59	466.667
841.88	431.250
842.18	244.828
842.48	338.095
842.78	253.333
843.08	300.000
843.38	243.750
843.68	1216.667
843.97	288.462
844.27	210.345
844.57	342.857
844.87	450.000
845.17	285.185
845.47	1900.000
845.76	611.111
846.06	335.294
846.36	700.000
846.66	485.714
846.96	337.500
847.25	527.273
847.55	545.455
847.85	295.652
848.15	580.000
848.44	492.857
848.74	316.667
849.04	364.706
849.34	520.000
849.63	305.263
849.93	554.545
850.23	1060.000
850.53	578.571
850.82	3100.000
851.12	-5800.000
851.42	6400.000
851.71	295.000
852.01	-1600.000
852.31	312.500
852.61	2200.000
852.90	323.810
853.20	300.000
853.50	411.765
853.79	323.810
854.09	287.500
854.39	406.250
854.68	200.000
854.98	232.258
855.28	253.333
855.57	293.103
855.87	266.667
856.17	373.684
856.46	373.333
856.76	323.529
857.05	237.931
857.35	316.667
857.65	426.667
857.94	313.043
858.24	269.231
858.53	335.000
858.83	309.091
859.13	360.000
859.42	0.000
859.72	777.778
860.01	527.273
860.31	322.727
860.60	336.842
860.90	265.217
861.20	711.111
861.49	658.333
861.79	-5900.000
862.08	887.500
862.38	300.000
862.67	430.769
862.97	358.824
863.26	588.889
863.56	300.000
863.85	516.667
864.15	712.500
864.44	466.667
864.74	1116.667
865.03	812.500
865.33	363.158
865.62	572.727
865.92	484.615
866.21	475.000
866.51	0.000
866.80	518.182
867.10	1400.000
867.39	484.615
867.69	590.909
867.98	342.105
868.27	518.182
868.57	357.895
868.86	-5400.000
869.16	412.500
869.45	2350.000
869.75	-5500.000
870.04	591.667
870.33	828.571
870.63	1275.000
870.92	2800.000
871.22	757.143
871.51	411.765
871.80	276.190
872.10	435.714
>>>>>End Processed Spectral Data<<<<<
