SpectraSuite Data File
++++++++++++++++++++++++++++++++++++
Date: Wed May 13 19:10:38 PDT 2015
User: schluterlab
Dark Spectrum Present: Yes
Reference Spectrum Present: Yes
Number of Sampled Component Spectra: 1
Spectrometers: USB2E3373
Integration Time (usec): 3000 (USB2E3373)
Spectra Averaged: 3 (USB2E3373)
Boxcar Smoothing: 0 (USB2E3373)
Correct for Electrical Dark: No (USB2E3373)
Strobe/Lamp Enabled: No (USB2E3373)
Correct for Detector Non-linearity: No (USB2E3373)
Correct for Stray Light: No (USB2E3373)
Number of Pixels in Processed Spectrum: 2048
>>>>>Begin Processed Spectral Data<<<<<
178.53	0.000
178.91	-1600.000
179.29	-1475.000
179.67	-300.000
180.04	-1275.000
180.42	3150.000
180.80	1260.000
181.18	-1100.000
181.56	657.143
181.94	0.000
182.31	-757.143
182.69	1966.667
183.07	-675.000
183.45	-688.889
183.83	654.545
184.20	-500.000
184.58	2600.000
184.96	6200.000
185.34	-1020.000
185.72	-662.500
186.09	-3350.000
186.47	2900.000
186.85	2400.000
187.23	5600.000
187.61	-1800.000
187.98	1775.000
188.36	618.182
188.74	572.727
189.12	-1200.000
189.49	630.000
189.87	-6200.000
190.25	-1550.000
190.63	435.714
191.00	538.462
191.38	966.667
191.76	-1450.000
192.14	1575.000
192.51	825.000
192.89	1000.000
193.27	762.500
193.65	-1300.000
194.02	580.000
194.40	1200.000
194.78	610.000
195.15	625.000
195.53	700.000
195.91	-2400.000
196.29	412.500
196.66	357.895
197.04	-420.000
197.42	0.000
197.79	770.000
198.17	-5700.000
198.55	928.571
198.92	800.000
199.30	1040.000
199.68	0.000
200.05	388.889
200.43	757.143
200.81	5000.000
201.18	2200.000
201.56	-1900.000
201.94	722.222
202.31	688.889
202.69	541.667
203.07	650.000
203.44	0.000
203.82	1700.000
204.19	900.000
204.57	535.714
204.95	700.000
205.32	1933.333
205.70	627.273
206.08	457.143
206.45	3250.000
206.83	412.500
207.20	1150.000
207.58	860.000
207.96	350.000
208.33	837.500
208.71	-1000.000
209.08	871.429
209.46	711.111
209.84	581.818
210.21	-1833.333
210.59	1825.000
210.96	-612.500
211.34	2800.000
211.71	640.000
212.09	933.333
212.46	0.000
212.84	2166.667
213.22	1375.000
213.59	-5200.000
213.97	900.000
214.34	857.143
214.72	609.091
215.09	1200.000
215.47	-2750.000
215.84	-2800.000
216.22	1800.000
216.59	492.857
216.97	1425.000
217.34	554.545
217.72	-916.667
218.09	0.000
218.47	-6300.000
218.84	688.889
219.22	814.286
219.59	2000.000
219.97	-857.143
220.34	1180.000
220.72	-2066.667
221.09	535.714
221.47	1725.000
221.84	-983.333
222.22	0.000
222.59	1850.000
222.97	-3300.000
223.34	1240.000
223.72	476.923
224.09	1180.000
224.46	2900.000
224.84	-5500.000
225.21	-1180.000
225.59	-6500.000
225.96	740.000
226.34	410.000
226.71	2900.000
227.08	700.000
227.46	640.000
227.83	-1200.000
228.21	-2250.000
228.58	611.111
228.95	-2650.000
229.33	-2850.000
229.70	1666.667
230.08	1000.000
230.45	-1060.000
230.82	600.000
231.20	983.333
231.57	857.143
231.95	550.000
232.32	309.091
232.69	500.000
233.07	785.714
233.44	446.154
233.81	-2000.000
234.19	331.579
234.56	500.000
234.93	425.000
235.31	627.273
235.68	369.231
236.05	514.286
236.43	224.242
236.80	305.263
237.17	6500.000
237.55	295.238
237.92	250.000
238.29	319.048
238.67	219.355
239.04	248.276
239.41	219.444
239.79	167.391
240.16	178.571
240.53	161.364
240.91	143.137
241.28	138.000
241.65	156.000
242.02	108.696
242.40	117.742
242.77	128.333
243.14	98.925
243.51	103.371
243.89	94.118
244.26	93.333
244.63	86.022
245.00	86.170
245.38	81.188
245.75	85.981
246.12	83.486
246.49	81.022
246.87	86.400
247.24	81.538
247.61	75.714
247.98	63.399
248.36	65.541
248.73	61.146
249.10	70.064
249.47	63.842
249.84	64.171
250.22	63.636
250.59	60.947
250.96	62.121
251.33	60.664
251.70	66.337
252.08	51.905
252.45	54.260
252.82	54.348
253.19	58.298
253.56	52.941
253.94	56.017
254.31	54.297
254.68	51.923
255.05	53.506
255.42	54.878
255.79	55.882
256.16	53.430
256.54	51.590
256.91	52.313
257.28	49.640
257.65	48.515
258.02	47.516
258.39	49.211
258.76	46.823
259.14	49.107
259.51	44.681
259.88	43.789
260.25	50.453
260.62	45.087
260.99	49.068
261.36	46.847
261.73	42.693
262.10	45.930
262.47	44.507
262.85	43.175
263.22	43.590
263.59	46.154
263.96	45.879
264.33	44.125
264.70	43.947
265.07	45.013
265.44	42.424
265.81	43.066
266.18	44.975
266.55	44.634
266.92	44.717
267.29	45.602
267.66	42.431
268.03	41.818
268.40	40.421
268.77	40.334
269.14	41.441
269.51	41.084
269.88	45.688
270.25	41.761
270.62	42.472
270.99	40.215
271.36	42.704
271.73	43.692
272.10	42.826
272.47	39.785
272.84	40.260
273.21	40.042
273.58	37.773
273.95	37.945
274.32	40.289
274.69	38.758
275.06	39.764
275.43	41.489
275.80	39.679
276.17	40.530
276.54	39.917
276.91	40.711
277.28	40.430
277.65	39.652
278.02	39.752
278.39	41.406
278.76	38.000
279.13	39.811
279.50	38.734
279.87	40.438
280.23	40.120
280.60	41.006
280.97	39.187
281.34	38.407
281.71	38.364
282.08	40.115
282.45	37.273
282.82	37.478
283.19	34.938
283.56	38.246
283.92	39.425
284.29	36.861
284.66	37.568
285.03	37.251
285.40	35.387
285.77	36.532
286.14	36.788
286.51	37.667
286.87	37.265
287.24	36.319
287.61	34.029
287.98	36.851
288.35	35.341
288.72	33.801
289.08	34.272
289.45	35.750
289.82	35.772
290.19	33.752
290.56	35.222
290.93	33.384
291.29	33.589
291.66	33.186
292.03	33.866
292.40	33.333
292.77	33.284
293.13	33.134
293.50	30.904
293.87	32.444
294.24	31.407
294.60	30.422
294.97	28.634
295.34	32.299
295.71	32.528
296.08	29.772
296.44	30.949
296.81	29.194
297.18	32.656
297.55	27.573
297.91	28.760
298.28	30.254
298.65	30.026
299.02	30.435
299.38	28.552
299.75	28.032
300.12	27.842
300.48	29.125
300.85	27.497
301.22	28.662
301.59	28.030
301.95	30.605
302.32	29.140
302.69	27.240
303.05	28.242
303.42	27.284
303.79	27.407
304.15	27.389
304.52	25.840
304.89	27.178
305.25	24.014
305.62	26.614
305.99	27.981
306.35	26.957
306.72	25.448
307.09	27.192
307.45	27.477
307.82	26.339
308.19	27.704
308.55	26.645
308.92	25.994
309.29	26.610
309.65	25.239
310.02	25.370
310.38	26.774
310.75	25.766
311.12	27.021
311.48	27.586
311.85	26.939
312.22	26.119
312.58	25.364
312.95	27.350
313.31	26.408
313.68	27.131
314.05	27.318
314.41	27.035
314.78	28.399
315.14	26.514
315.51	29.351
315.87	28.020
316.24	28.004
316.61	27.583
316.97	28.963
317.34	29.256
317.70	30.019
318.07	30.991
318.43	32.290
318.80	31.959
319.16	33.051
319.53	32.083
319.89	33.810
320.26	35.800
320.62	35.913
320.99	36.667
321.35	38.182
321.72	39.938
322.08	39.388
322.45	41.393
322.81	42.733
323.18	43.064
323.54	43.599
323.91	43.774
324.27	47.801
324.64	49.208
325.00	51.037
325.37	54.049
325.73	55.027
326.10	56.575
326.46	58.871
326.83	61.777
327.19	61.913
327.56	64.286
327.92	66.142
328.29	69.565
328.65	70.258
329.01	70.939
329.38	71.600
329.74	73.130
330.11	77.474
330.47	76.860
330.84	76.930
331.20	78.142
331.56	80.642
331.93	83.056
332.29	80.479
332.66	83.009
333.02	83.547
333.38	83.830
333.75	85.561
334.11	85.943
334.48	86.247
334.84	88.419
335.20	86.636
335.57	86.854
335.93	87.679
336.29	90.018
336.66	91.794
337.02	90.407
337.38	91.389
337.75	89.305
338.11	89.973
338.47	92.449
338.84	92.301
339.20	91.743
339.56	93.978
339.93	92.273
340.29	93.025
340.65	92.692
341.02	95.550
341.38	96.530
341.74	93.860
342.11	94.148
342.47	94.185
342.83	93.065
343.20	94.113
343.56	92.923
343.92	94.561
344.28	94.218
344.65	95.873
345.01	94.865
345.37	95.111
345.73	95.601
346.10	97.528
346.46	95.678
346.82	93.987
347.19	93.066
347.55	95.484
347.91	95.227
348.27	95.645
348.63	96.990
349.00	96.278
349.36	95.484
349.72	93.986
350.08	96.353
350.45	97.884
350.81	95.938
351.17	94.489
351.53	97.543
351.89	97.607
352.26	98.185
352.62	96.953
352.98	94.895
353.34	99.178
353.70	97.300
354.07	96.694
354.43	95.556
354.79	95.736
355.15	98.164
355.51	98.721
355.87	98.857
356.24	99.349
356.60	96.391
356.96	99.759
357.32	100.000
357.68	97.480
358.04	98.179
358.40	96.912
358.77	98.044
359.13	99.842
359.49	97.647
359.85	98.889
360.21	100.399
360.57	99.222
360.93	101.385
361.29	99.395
361.66	97.988
362.02	97.910
362.38	98.707
362.74	99.330
363.10	99.038
363.46	99.633
363.82	98.564
364.18	97.210
364.54	100.966
364.90	99.858
365.26	100.515
365.62	100.584
365.98	100.292
366.35	99.499
366.71	100.000
367.07	101.238
367.43	101.524
367.79	103.498
368.15	101.940
368.51	98.910
368.87	100.785
369.23	101.244
369.59	102.245
369.95	102.353
370.31	99.715
370.67	99.855
371.03	100.974
371.39	102.405
371.75	102.132
372.11	100.782
372.47	102.273
372.83	102.305
373.19	100.434
373.55	103.252
373.91	104.860
374.27	99.725
374.63	102.836
374.99	102.189
375.35	101.954
375.71	101.371
376.07	102.949
376.42	105.433
376.78	101.325
377.14	102.171
377.50	103.709
377.86	102.660
378.22	105.373
378.58	102.256
378.94	102.766
379.30	104.517
379.66	106.599
380.02	103.440
380.38	102.429
380.74	104.442
381.09	104.401
381.45	105.286
381.81	104.177
382.17	105.159
382.53	105.346
382.89	105.617
383.25	106.379
383.61	106.877
383.97	103.877
384.32	102.558
384.68	104.461
385.04	103.626
385.40	105.201
385.76	103.440
386.12	105.635
386.48	105.664
386.83	106.671
387.19	106.679
387.55	104.947
387.91	105.623
388.27	105.212
388.62	106.822
388.98	104.730
389.34	106.258
389.70	106.622
390.06	106.844
390.42	106.420
390.77	105.344
391.13	106.828
391.49	105.901
391.85	106.556
392.20	106.246
392.56	106.124
392.92	106.357
393.28	105.621
393.64	107.134
393.99	104.337
394.35	105.955
394.71	106.274
395.07	105.919
395.42	107.231
395.78	104.707
396.14	105.525
396.50	109.211
396.85	107.247
397.21	106.658
397.57	105.890
397.92	108.834
398.28	105.717
398.64	104.839
399.00	105.876
399.35	105.866
399.71	105.035
400.07	104.080
400.42	105.644
400.78	105.428
401.14	107.561
401.49	107.164
401.85	106.413
402.21	103.772
402.57	105.614
402.92	106.683
403.28	108.057
403.63	106.931
403.99	108.025
404.35	105.030
404.70	105.995
405.06	105.183
405.42	106.550
405.77	105.714
406.13	103.612
406.49	106.742
406.84	104.843
407.20	105.615
407.55	107.849
407.91	107.667
408.27	107.275
408.62	105.298
408.98	106.556
409.34	107.011
409.69	106.774
410.05	106.753
410.40	104.832
410.76	105.556
411.11	103.920
411.47	104.409
411.83	105.070
412.18	106.432
412.54	107.347
412.89	105.361
413.25	105.254
413.60	106.177
413.96	103.886
414.31	105.589
414.67	104.880
415.03	105.430
415.38	104.961
415.74	104.373
416.09	107.185
416.45	106.225
416.80	105.023
417.16	105.094
417.51	105.375
417.87	103.211
418.22	106.372
418.58	104.777
418.93	105.160
419.29	104.710
419.64	105.164
420.00	105.427
420.35	103.826
420.71	104.363
421.06	104.535
421.42	105.146
421.77	102.466
422.12	104.941
422.48	104.425
422.83	105.882
423.19	103.370
423.54	105.862
423.90	104.522
424.25	102.178
424.61	103.393
424.96	105.656
425.31	105.150
425.67	102.022
426.02	103.714
426.38	105.128
426.73	104.154
427.09	104.498
427.44	104.370
427.79	103.853
428.15	104.940
428.50	104.506
428.85	104.648
429.21	103.313
429.56	104.717
429.92	103.976
430.27	104.270
430.62	102.560
430.98	102.906
431.33	102.062
431.68	102.723
432.04	101.171
432.39	103.883
432.74	104.788
433.10	104.810
433.45	107.638
433.80	103.548
434.16	102.938
434.51	102.474
434.86	103.535
435.22	105.170
435.57	105.167
435.92	103.686
436.28	105.931
436.63	103.863
436.98	105.610
437.34	105.486
437.69	105.659
438.04	104.778
438.39	104.896
438.75	106.159
439.10	106.034
439.45	105.372
439.81	105.740
440.16	104.800
440.51	104.979
440.86	106.022
441.22	105.228
441.57	105.042
441.92	105.476
442.27	105.167
442.63	104.265
442.98	105.746
443.33	103.750
443.68	106.298
444.03	105.954
444.39	104.869
444.74	105.357
445.09	104.744
445.44	106.014
445.79	105.047
446.15	105.188
446.50	106.300
446.85	105.858
447.20	106.272
447.55	108.654
447.91	105.736
448.26	106.344
448.61	106.501
448.96	106.866
449.31	108.211
449.66	106.922
450.02	106.908
450.37	105.159
450.72	106.825
451.07	106.459
451.42	105.714
451.77	105.461
452.12	105.254
452.47	105.784
452.83	107.692
453.18	104.707
453.53	109.462
453.88	106.202
454.23	105.977
454.58	107.874
454.93	109.345
455.28	106.546
455.63	106.432
455.98	108.393
456.34	107.286
456.69	108.704
457.04	108.235
457.39	107.773
457.74	106.674
458.09	106.498
458.44	106.157
458.79	105.586
459.14	106.490
459.49	105.254
459.84	105.429
460.19	106.246
460.54	103.530
460.89	107.021
461.24	107.165
461.59	106.973
461.94	104.994
462.29	106.291
462.64	105.743
462.99	105.075
463.34	107.200
463.69	106.129
464.04	105.739
464.39	104.986
464.74	105.466
465.09	105.609
465.44	104.377
465.79	105.761
466.14	103.394
466.49	104.561
466.84	104.962
467.19	104.768
467.54	106.688
467.89	103.962
468.24	104.363
468.59	106.654
468.94	105.864
469.29	106.555
469.64	107.028
469.99	106.834
470.34	106.275
470.68	107.399
471.03	106.122
471.38	107.366
471.73	104.330
472.08	106.250
472.43	105.402
472.78	106.715
473.13	105.327
473.48	106.242
473.83	105.793
474.17	104.543
474.52	105.893
474.87	105.604
475.22	105.223
475.57	103.493
475.92	105.204
476.27	104.171
476.61	105.185
476.96	104.618
477.31	103.140
477.66	104.923
478.01	103.555
478.36	106.610
478.70	105.244
479.05	104.313
479.40	104.145
479.75	105.491
480.10	103.231
480.45	103.046
480.79	102.580
481.14	103.767
481.49	103.560
481.84	103.795
482.19	104.407
482.53	102.294
482.88	103.025
483.23	104.393
483.58	102.775
483.92	104.920
484.27	101.481
484.62	102.543
484.97	101.774
485.31	104.041
485.66	102.040
486.01	97.992
486.36	95.069
486.70	93.576
487.05	95.647
487.40	97.625
487.75	98.111
488.09	100.576
488.44	100.000
488.79	103.219
489.13	104.011
489.48	102.488
489.83	103.453
490.17	104.866
490.52	101.594
490.87	103.935
491.22	103.092
491.56	102.916
491.91	103.211
492.26	102.435
492.60	102.535
492.95	101.497
493.30	100.234
493.64	102.893
493.99	101.346
494.34	103.238
494.68	103.251
495.03	102.397
495.37	100.791
495.72	103.168
496.07	102.320
496.41	100.575
496.76	101.891
497.11	100.270
497.45	101.490
497.80	102.447
498.14	101.498
498.49	101.854
498.84	101.582
499.18	102.571
499.53	103.704
499.87	100.513
500.22	100.141
500.56	102.573
500.91	102.019
501.26	100.996
501.60	102.088
501.95	100.367
502.29	102.109
502.64	101.676
502.98	101.730
503.33	101.417
503.67	101.485
504.02	100.000
504.36	100.702
504.71	101.368
505.06	100.337
505.40	102.285
505.75	98.939
506.09	101.555
506.44	102.516
506.78	101.754
507.13	102.928
507.47	101.061
507.82	102.938
508.16	102.584
508.51	102.588
508.85	101.639
509.19	101.122
509.54	102.551
509.88	101.803
510.23	102.314
510.57	102.632
510.92	102.434
511.26	102.210
511.61	101.193
511.95	101.200
512.30	101.538
512.64	101.505
512.98	101.768
513.33	100.964
513.67	100.374
514.02	101.623
514.36	103.714
514.70	101.162
515.05	101.840
515.39	103.758
515.74	102.252
516.08	100.279
516.42	102.386
516.77	103.344
517.11	100.610
517.46	102.370
517.80	104.355
518.14	102.374
518.49	104.376
518.83	101.818
519.17	102.771
519.52	102.264
519.86	101.882
520.20	102.139
520.55	103.351
520.89	103.285
521.23	104.704
521.58	103.301
521.92	104.225
522.26	101.464
522.61	104.174
522.95	101.473
523.29	102.678
523.64	101.951
523.98	103.882
524.32	101.809
524.66	101.383
525.01	102.512
525.35	102.230
525.69	100.554
526.04	102.243
526.38	101.891
526.72	100.552
527.06	102.825
527.41	99.691
527.75	104.373
528.09	103.725
528.43	103.697
528.78	100.553
529.12	100.424
529.46	102.817
529.80	103.218
530.15	101.807
530.49	98.954
530.83	100.443
531.17	103.982
531.51	103.437
531.86	102.516
532.20	101.760
532.54	102.370
532.88	101.990
533.22	98.938
533.57	99.815
533.91	98.916
534.25	100.061
534.59	100.671
534.93	100.119
535.27	100.845
535.62	100.000
535.96	100.188
536.30	99.428
536.64	101.223
536.98	101.327
537.32	100.987
537.66	99.467
538.01	99.342
538.35	100.840
538.69	101.468
539.03	99.545
539.37	98.083
539.71	98.380
540.05	99.804
540.39	100.133
540.73	98.318
541.07	100.130
541.42	98.630
541.76	99.097
542.10	98.642
542.44	102.450
542.78	100.593
543.12	96.353
543.46	99.541
543.80	99.219
544.14	97.818
544.48	100.254
544.82	96.280
545.16	99.414
545.50	96.658
545.84	100.000
546.18	99.327
546.52	101.032
546.86	99.863
547.20	99.730
547.54	97.194
547.88	99.235
548.22	95.392
548.56	98.113
548.90	96.479
549.24	99.933
549.58	100.000
549.92	97.596
550.26	99.787
550.60	96.819
550.94	99.155
551.28	98.391
551.62	100.216
551.96	98.175
552.30	96.860
552.64	98.445
552.98	97.153
553.32	96.763
553.66	98.296
554.00	99.863
554.34	98.068
554.68	101.144
555.02	100.000
555.36	98.260
555.69	95.670
556.03	96.433
556.37	97.681
556.71	95.703
557.05	98.810
557.39	96.081
557.73	97.107
558.07	98.767
558.41	98.698
558.75	99.853
559.08	98.658
559.42	101.285
559.76	98.456
560.10	98.358
560.44	97.973
560.78	95.542
561.12	95.844
561.45	96.154
561.79	96.177
562.13	98.927
562.47	97.541
562.81	97.978
563.15	96.522
563.48	96.950
563.82	95.695
564.16	95.095
564.50	97.135
564.84	95.891
565.17	94.852
565.51	95.911
565.85	95.939
566.19	94.803
566.52	97.847
566.86	93.369
567.20	94.281
567.54	95.320
567.88	93.265
568.21	94.074
568.55	92.518
568.89	93.482
569.23	90.330
569.56	89.069
569.90	89.698
570.24	89.630
570.57	88.575
570.91	86.975
571.25	86.658
571.59	86.775
571.92	86.982
572.26	87.291
572.60	87.898
572.93	86.267
573.27	86.957
573.61	86.767
573.95	86.253
574.28	85.980
574.62	86.395
574.96	85.926
575.29	86.130
575.63	85.976
575.97	86.045
576.30	86.431
576.64	86.151
576.98	85.926
577.31	85.421
577.65	85.299
577.98	84.741
578.32	83.300
578.66	84.319
578.99	85.711
579.33	86.420
579.67	84.675
580.00	84.896
580.34	85.738
580.67	85.724
581.01	85.001
581.35	85.171
581.68	84.992
582.02	83.470
582.35	83.544
582.69	83.172
583.02	84.327
583.36	85.197
583.70	85.415
584.03	85.972
584.37	86.509
584.70	86.181
585.04	84.320
585.37	84.343
585.71	85.268
586.04	84.731
586.38	86.181
586.72	86.109
587.05	84.569
587.39	84.485
587.72	84.901
588.06	85.432
588.39	86.036
588.73	85.069
589.06	87.099
589.40	86.364
589.73	87.610
590.07	86.263
590.40	85.751
590.73	88.095
591.07	87.871
591.40	88.148
591.74	88.658
592.07	88.176
592.41	88.301
592.74	86.030
593.08	85.243
593.41	86.112
593.75	84.510
594.08	84.546
594.41	85.719
594.75	86.839
595.08	85.827
595.42	86.305
595.75	85.613
596.09	86.819
596.42	87.348
596.75	86.914
597.09	88.052
597.42	86.256
597.75	87.753
598.09	86.652
598.42	87.371
598.76	86.664
599.09	85.253
599.42	84.825
599.76	85.029
600.09	84.699
600.42	84.916
600.76	84.500
601.09	84.772
601.42	86.530
601.76	84.516
602.09	85.929
602.42	85.072
602.76	86.739
603.09	85.995
603.42	86.490
603.76	83.880
604.09	85.111
604.42	86.343
604.76	87.347
605.09	84.447
605.42	85.165
605.75	87.293
606.09	85.197
606.42	87.045
606.75	85.068
607.09	84.177
607.42	86.008
607.75	83.797
608.08	85.280
608.42	85.164
608.75	84.806
609.08	84.644
609.41	86.245
609.75	85.136
610.08	86.852
610.41	86.732
610.74	86.613
611.07	87.253
611.41	85.329
611.74	87.632
612.07	87.940
612.40	87.093
612.73	87.316
613.07	89.494
613.40	87.520
613.73	87.048
614.06	88.118
614.39	86.104
614.72	85.684
615.06	87.868
615.39	86.943
615.72	85.941
616.05	86.603
616.38	87.215
616.71	88.955
617.05	89.576
617.38	87.733
617.71	88.048
618.04	88.221
618.37	86.931
618.70	88.239
619.03	89.474
619.36	87.916
619.69	89.859
620.03	89.080
620.36	89.572
620.69	90.822
621.02	90.560
621.35	90.838
621.68	89.408
622.01	91.176
622.34	89.864
622.67	90.875
623.00	90.022
623.33	88.277
623.66	89.993
623.99	89.396
624.32	90.157
624.65	88.206
624.99	89.589
625.32	88.993
625.65	90.458
625.98	91.391
626.31	89.502
626.64	91.510
626.97	91.854
627.30	92.685
627.63	90.730
627.96	92.178
628.29	92.388
628.62	92.955
628.95	95.000
629.28	92.518
629.61	92.392
629.94	96.476
630.26	93.804
630.59	92.278
630.92	91.379
631.25	93.189
631.58	91.391
631.91	93.915
632.24	93.882
632.57	95.173
632.90	93.421
633.23	95.749
633.56	97.062
633.89	94.790
634.22	96.254
634.55	100.592
634.88	99.042
635.20	95.341
635.53	95.783
635.86	98.639
636.19	94.941
636.52	93.656
636.85	94.158
637.18	95.392
637.51	95.390
637.83	95.191
638.16	98.210
638.49	97.229
638.82	97.724
639.15	97.250
639.48	96.384
639.81	100.000
640.13	94.141
640.46	97.584
640.79	95.905
641.12	97.524
641.45	95.950
641.77	101.915
642.10	95.760
642.43	99.700
642.76	98.916
643.09	98.006
643.41	96.662
643.74	101.698
644.07	98.476
644.40	99.080
644.73	99.055
645.05	98.891
645.38	97.156
645.71	99.839
646.04	99.336
646.36	104.674
646.69	102.843
647.02	100.680
647.35	100.687
647.67	103.186
648.00	97.886
648.33	101.155
648.66	96.212
648.98	95.202
649.31	96.114
649.64	94.918
649.96	95.529
650.29	98.104
650.62	98.706
650.94	95.948
651.27	102.872
651.60	98.170
651.92	94.569
652.25	97.720
652.58	94.237
652.90	100.790
653.23	94.761
653.56	94.803
653.88	97.464
654.21	96.367
654.54	99.505
654.86	94.548
655.19	91.081
655.52	67.723
655.84	64.565
656.17	83.222
656.49	100.000
656.82	100.000
657.15	98.999
657.47	66.446
657.80	49.555
658.13	51.498
658.45	77.755
658.78	76.697
659.10	79.915
659.43	83.867
659.75	86.556
660.08	92.848
660.41	100.931
660.73	100.127
661.06	100.000
661.38	102.000
661.71	103.269
662.03	103.156
662.36	100.199
662.68	101.807
663.01	101.212
663.33	103.609
663.66	101.261
663.98	104.320
664.31	101.681
664.63	97.166
664.96	95.976
665.28	99.385
665.61	96.491
665.93	97.384
666.26	102.028
666.58	102.510
666.91	101.691
667.23	103.820
667.56	100.648
667.88	100.000
668.21	103.838
668.53	98.265
668.86	101.299
669.18	101.066
669.50	99.130
669.83	104.357
670.15	103.333
670.48	101.743
670.80	100.862
671.13	98.726
671.45	98.936
671.77	101.018
672.10	94.824
672.42	91.519
672.75	92.206
673.07	94.894
673.39	93.852
673.72	98.828
674.04	100.784
674.37	97.476
674.69	98.364
675.01	99.582
675.34	95.893
675.66	98.105
675.98	96.945
676.31	96.639
676.63	95.117
676.95	97.904
677.28	101.869
677.60	95.604
677.92	100.211
678.25	96.099
678.57	97.012
678.89	97.996
679.22	92.927
679.54	94.466
679.86	92.661
680.18	92.665
680.51	92.553
680.83	92.349
681.15	93.585
681.48	96.408
681.80	93.617
682.12	94.061
682.44	94.391
682.77	95.723
683.09	98.069
683.41	100.665
683.73	99.779
684.06	95.868
684.38	91.977
684.70	93.411
685.02	94.747
685.34	91.209
685.67	91.259
685.99	89.003
686.31	91.297
686.63	87.456
686.96	90.000
687.28	90.072
687.60	90.036
687.92	93.784
688.24	89.163
688.56	96.185
688.89	94.191
689.21	97.598
689.53	92.693
689.85	96.896
690.17	91.097
690.49	92.994
690.82	99.766
691.14	93.527
691.46	92.194
691.78	90.161
692.10	93.802
692.42	90.419
692.74	89.419
693.06	93.404
693.39	91.376
693.71	94.105
694.03	93.263
694.35	88.961
694.67	92.220
694.99	98.049
695.31	99.265
695.63	96.651
695.95	96.822
696.27	97.208
696.59	95.596
696.91	95.855
697.23	89.671
697.56	89.765
697.88	83.845
698.20	93.958
698.52	92.258
698.84	95.546
699.16	91.244
699.48	96.912
699.80	94.203
700.12	97.922
700.44	94.695
700.76	98.619
701.08	102.874
701.40	97.207
701.72	103.499
702.04	101.136
702.36	96.034
702.68	98.867
703.00	97.230
703.32	91.223
703.64	92.225
703.96	94.708
704.28	94.186
704.60	96.774
704.91	97.329
705.23	97.654
705.55	106.977
705.87	100.000
706.19	102.473
706.51	91.900
706.83	96.970
707.15	95.798
707.47	88.636
707.79	91.892
708.11	89.269
708.43	88.571
708.74	91.071
709.06	91.429
709.38	92.913
709.70	98.837
710.02	97.923
710.34	95.455
710.66	98.209
710.98	94.034
711.29	94.186
711.61	94.395
711.93	95.192
712.25	98.071
712.57	101.838
712.89	100.346
713.20	93.313
713.52	96.382
713.84	92.405
714.16	96.037
714.48	87.931
714.80	99.696
715.11	92.795
715.43	90.801
715.75	89.855
716.07	96.486
716.39	93.417
716.70	96.346
717.02	100.719
717.34	95.760
717.66	100.000
717.97	103.187
718.29	100.741
718.61	98.175
718.93	101.838
719.24	94.810
719.56	96.271
719.88	95.932
720.20	90.541
720.51	93.380
720.83	102.974
721.15	98.507
721.46	97.518
721.78	97.133
722.10	98.113
722.42	101.880
722.73	100.749
723.05	103.689
723.37	97.166
723.68	97.683
724.00	100.813
724.32	102.016
724.63	96.341
724.95	97.908
725.27	101.215
725.58	100.000
725.90	95.620
726.22	95.094
726.53	94.792
726.85	90.785
727.16	94.662
727.48	92.199
727.80	98.106
728.11	92.029
728.43	96.154
728.74	91.398
729.06	94.891
729.38	101.838
729.69	97.865
730.01	86.007
730.32	90.625
730.64	94.983
730.96	87.789
731.27	93.709
731.59	93.272
731.90	89.504
732.22	89.441
732.53	90.093
732.85	89.423
733.16	86.495
733.48	89.701
733.80	90.584
734.11	88.854
734.43	88.757
734.74	86.571
735.06	84.527
735.37	91.040
735.69	91.083
736.00	94.118
736.32	88.785
736.63	86.262
736.95	88.498
737.26	87.755
737.58	83.226
737.89	91.304
738.21	89.761
738.52	88.571
738.83	90.566
739.15	92.692
739.46	93.431
739.78	90.972
740.09	84.000
740.41	88.387
740.72	88.153
741.04	95.185
741.35	95.833
741.66	101.778
741.98	95.755
742.29	99.522
742.61	93.966
742.92	100.905
743.23	97.009
743.55	93.200
743.86	96.930
744.18	98.230
744.49	100.478
744.80	100.939
745.12	98.182
745.43	99.119
745.74	103.153
746.06	101.376
746.37	100.897
746.68	97.738
747.00	101.389
747.31	102.381
747.62	93.805
747.94	97.357
748.25	98.298
748.56	103.084
748.88	96.535
749.19	103.000
749.50	101.860
749.82	92.276
750.13	95.510
750.44	89.051
750.75	89.123
751.07	87.460
751.38	88.850
751.69	90.975
752.01	90.977
752.32	89.170
752.63	88.298
752.94	97.541
753.26	96.000
753.57	87.805
753.88	88.672
754.19	87.143
754.51	91.319
754.82	85.560
755.13	91.698
755.44	89.098
755.75	88.321
756.07	87.234
756.38	85.766
756.69	87.248
757.00	79.641
757.31	84.570
757.63	80.994
757.94	80.429
758.25	78.676
758.56	74.815
758.87	80.645
759.18	81.212
759.50	83.386
759.81	78.816
760.12	82.812
760.43	80.229
760.74	76.087
761.05	82.203
761.36	79.144
761.67	80.398
761.99	83.230
762.30	85.069
762.61	86.641
762.92	88.672
763.23	92.437
763.54	92.400
763.85	91.016
764.16	88.077
764.47	91.635
764.78	85.866
765.10	78.481
765.41	79.351
765.72	82.934
766.03	82.132
766.34	80.000
766.65	91.915
766.96	88.462
767.27	105.076
767.58	101.042
767.89	97.895
768.20	102.299
768.51	91.371
768.82	90.826
769.13	85.366
769.44	88.259
769.75	93.991
770.06	92.202
770.37	94.570
770.68	95.370
770.99	88.000
771.30	79.098
771.61	100.000
771.92	88.115
772.23	91.597
772.54	92.821
772.85	97.906
773.16	96.277
773.47	91.848
773.78	97.462
774.09	100.595
774.39	108.187
774.70	99.383
775.01	111.594
775.32	103.922
775.63	105.921
775.94	106.475
776.25	113.386
776.56	108.955
776.87	118.033
777.18	112.500
777.48	115.267
777.79	112.879
778.10	103.704
778.41	123.214
778.72	105.839
779.03	109.396
779.34	106.711
779.65	103.378
779.95	102.454
780.26	106.536
780.57	107.586
780.88	115.625
781.19	110.526
781.50	106.081
781.80	107.547
782.11	92.655
782.42	105.696
782.73	100.000
783.04	105.405
783.34	97.183
783.65	102.055
783.96	114.925
784.27	104.895
784.57	108.633
784.88	106.481
785.19	105.556
785.50	118.868
785.81	100.746
786.11	122.131
786.42	105.426
786.73	114.159
787.04	121.698
787.34	117.857
787.65	131.000
787.96	121.622
788.26	117.355
788.57	119.492
788.88	121.488
789.19	104.861
789.49	110.606
789.80	114.504
790.11	140.000
790.41	125.743
790.72	130.120
791.03	131.522
791.33	123.256
791.64	119.588
791.95	119.802
792.25	126.667
792.56	142.857
792.87	161.538
793.17	146.835
793.48	136.782
793.79	137.931
794.09	120.455
794.40	115.966
794.70	103.676
795.01	110.370
795.32	96.403
795.62	111.811
795.93	100.862
796.23	114.159
796.54	132.941
796.85	132.432
797.15	152.113
797.46	146.970
797.76	138.554
798.07	134.177
798.37	155.385
798.68	139.394
798.99	115.493
799.29	131.169
799.60	127.273
799.90	154.795
800.21	147.761
800.51	155.172
800.82	168.421
801.12	154.098
801.43	151.515
801.73	120.270
802.04	158.730
802.34	124.691
802.65	145.312
802.95	161.017
803.26	153.125
803.56	141.429
803.87	132.308
804.17	157.353
804.48	179.630
804.78	162.069
805.09	130.882
805.39	151.923
805.70	176.786
806.00	157.377
806.30	137.879
806.61	121.951
806.91	132.911
807.22	148.684
807.52	146.269
807.83	145.070
808.13	162.500
808.43	170.000
808.74	126.316
809.04	150.725
809.35	158.209
809.65	144.737
809.95	159.677
810.26	154.237
810.56	138.095
810.86	206.818
811.17	214.286
811.47	168.333
811.77	187.037
812.08	174.545
812.38	192.000
812.69	241.667
812.99	220.455
813.29	187.755
813.59	173.810
813.90	177.551
814.20	152.727
814.50	130.769
814.81	150.000
815.11	202.041
815.41	155.738
815.72	171.429
816.02	170.909
816.32	195.238
816.62	172.500
816.93	209.756
817.23	197.619
817.53	190.909
817.84	251.515
818.14	189.130
818.44	188.889
818.74	238.235
819.04	212.500
819.35	214.286
819.65	276.471
819.95	296.429
820.25	360.000
820.56	233.333
820.86	197.727
821.16	190.698
821.46	210.256
821.76	194.000
822.07	234.286
822.37	205.000
822.67	221.212
822.97	168.627
823.27	278.571
823.57	240.541
823.88	210.000
824.18	283.333
824.48	207.143
824.78	356.000
825.08	279.167
825.38	213.514
825.69	187.805
825.99	329.167
826.29	231.034
826.59	239.474
826.89	228.947
827.19	241.176
827.49	267.742
827.79	195.455
828.09	190.909
828.39	182.979
828.70	163.265
829.00	266.667
829.30	219.355
829.60	207.500
829.90	446.667
830.20	314.286
830.50	308.696
830.80	317.391
831.10	253.333
831.40	216.667
831.70	295.652
832.00	284.615
832.30	237.037
832.60	418.750
832.90	273.333
833.20	535.714
833.50	219.355
833.80	255.172
834.10	262.500
834.40	288.462
834.70	350.000
835.00	442.857
835.30	222.857
835.60	484.615
835.90	248.276
836.20	521.429
836.50	237.931
836.80	280.000
837.10	216.667
837.40	314.286
837.70	441.176
838.00	281.481
838.30	285.714
838.60	309.524
838.90	319.231
839.19	430.000
839.49	550.000
839.79	405.000
840.09	340.000
840.39	357.143
840.69	330.435
840.99	333.333
841.29	540.000
841.59	583.333
841.88	437.500
842.18	227.586
842.48	328.571
842.78	293.333
843.08	321.739
843.38	256.250
843.68	1200.000
843.97	261.538
844.27	258.621
844.57	338.095
844.87	418.750
845.17	292.593
845.47	2000.000
845.76	666.667
846.06	452.941
846.36	737.500
846.66	464.286
846.96	425.000
847.25	527.273
847.55	609.091
847.85	291.304
848.15	630.000
848.44	528.571
848.74	355.556
849.04	470.588
849.34	650.000
849.63	305.263
849.93	509.091
850.23	1220.000
850.53	492.857
850.82	2900.000
851.12	-4900.000
851.42	4800.000
851.71	315.000
852.01	-2100.000
852.31	266.667
852.61	2166.667
852.90	295.238
853.20	300.000
853.50	382.353
853.79	347.619
854.09	220.833
854.39	381.250
854.68	205.405
854.98	229.032
855.28	233.333
855.57	248.276
855.87	251.852
856.17	373.684
856.46	346.667
856.76	370.588
857.05	268.966
857.35	308.333
857.65	406.667
857.94	278.261
858.24	261.538
858.53	335.000
858.83	318.182
859.13	346.667
859.42	0.000
859.72	677.778
860.01	536.364
860.31	313.636
860.60	347.368
860.90	317.391
861.20	766.667
861.49	658.333
861.79	-5100.000
862.08	825.000
862.38	352.381
862.67	438.462
862.97	441.176
863.26	655.556
863.56	377.778
863.85	608.333
864.15	825.000
864.44	486.667
864.74	816.667
865.03	875.000
865.33	368.421
865.62	481.818
865.92	484.615
866.21	441.667
866.51	0.000
866.80	463.636
867.10	1320.000
867.39	530.769
867.69	581.818
867.98	336.842
868.27	527.273
868.57	368.421
868.86	-5400.000
869.16	418.750
869.45	2700.000
869.75	-5200.000
870.04	516.667
870.33	885.714
870.63	1425.000
870.92	3150.000
871.22	857.143
871.51	394.118
871.80	304.762
872.10	457.143
>>>>>End Processed Spectral Data<<<<<
