SpectraSuite Data File
++++++++++++++++++++++++++++++++++++
Date: Wed May 13 19:26:48 PDT 2015
User: schluterlab
Dark Spectrum Present: Yes
Reference Spectrum Present: Yes
Number of Sampled Component Spectra: 1
Spectrometers: USB2E3373
Integration Time (usec): 3000 (USB2E3373)
Spectra Averaged: 3 (USB2E3373)
Boxcar Smoothing: 0 (USB2E3373)
Correct for Electrical Dark: No (USB2E3373)
Strobe/Lamp Enabled: No (USB2E3373)
Correct for Detector Non-linearity: No (USB2E3373)
Correct for Stray Light: No (USB2E3373)
Number of Pixels in Processed Spectrum: 2048
>>>>>Begin Processed Spectral Data<<<<<
178.53	0.000
178.91	-1375.000
179.29	-1400.000
179.67	-188.889
180.04	-1225.000
180.42	2800.000
180.80	1260.000
181.18	-1300.000
181.56	614.286
181.94	0.000
182.31	-700.000
182.69	1666.667
183.07	-587.500
183.45	-477.778
183.83	518.182
184.20	-380.000
184.58	2600.000
184.96	5900.000
185.34	-960.000
185.72	-612.500
186.09	-2650.000
186.47	2700.000
186.85	2700.000
187.23	4700.000
187.61	-1633.333
187.98	1200.000
188.36	581.818
188.74	472.727
189.12	-1080.000
189.49	540.000
189.87	-4900.000
190.25	-1400.000
190.63	507.143
191.00	415.385
191.38	783.333
191.76	-1050.000
192.14	1575.000
192.51	712.500
192.89	1166.667
193.27	687.500
193.65	-1275.000
194.02	500.000
194.40	820.000
194.78	720.000
195.15	566.667
195.53	640.000
195.91	-2900.000
196.29	362.500
196.66	326.316
197.04	-340.000
197.42	0.000
197.79	620.000
198.17	-6200.000
198.55	771.429
198.92	712.500
199.30	1040.000
199.68	0.000
200.05	355.556
200.43	785.714
200.81	5300.000
201.18	1533.333
201.56	-1533.333
201.94	566.667
202.31	622.222
202.69	458.333
203.07	600.000
203.44	0.000
203.82	1350.000
204.19	842.857
204.57	421.429
204.95	650.000
205.32	1633.333
205.70	609.091
206.08	400.000
206.45	3350.000
206.83	381.250
207.20	950.000
207.58	860.000
207.96	333.333
208.33	850.000
208.71	-1000.000
209.08	900.000
209.46	600.000
209.84	481.818
210.21	-1633.333
210.59	1425.000
210.96	-575.000
211.34	2750.000
211.71	590.000
212.09	883.333
212.46	0.000
212.84	1566.667
213.22	1375.000
213.59	-5000.000
213.97	900.000
214.34	814.286
214.72	627.273
215.09	1180.000
215.47	-2650.000
215.84	-2250.000
216.22	1733.333
216.59	442.857
216.97	1400.000
217.34	445.455
217.72	-733.333
218.09	0.000
218.47	-5800.000
218.84	666.667
219.22	642.857
219.59	1666.667
219.97	-742.857
220.34	980.000
220.72	-1833.333
221.09	450.000
221.47	1575.000
221.84	-866.667
222.22	0.000
222.59	1225.000
222.97	-2300.000
223.34	1280.000
223.72	461.538
224.09	1120.000
224.46	2650.000
224.84	-4600.000
225.21	-1040.000
225.59	-5300.000
225.96	660.000
226.34	290.000
226.71	2700.000
227.08	700.000
227.46	650.000
227.83	-1175.000
228.21	-2550.000
228.58	655.556
228.95	-2150.000
229.33	-2300.000
229.70	1866.667
230.08	885.714
230.45	-860.000
230.82	433.333
231.20	783.333
231.57	728.571
231.95	483.333
232.32	254.545
232.69	481.818
233.07	642.857
233.44	361.538
233.81	-1700.000
234.19	331.579
234.56	450.000
234.93	400.000
235.31	454.545
235.68	400.000
236.05	385.714
236.43	215.152
236.80	268.421
237.17	4500.000
237.55	228.571
237.92	217.857
238.29	295.238
238.67	216.129
239.04	234.483
239.41	191.667
239.79	139.130
240.16	135.714
240.53	159.091
240.91	129.412
241.28	128.000
241.65	126.000
242.02	114.493
242.40	108.065
242.77	116.667
243.14	96.774
243.51	92.135
243.89	92.941
244.26	85.556
244.63	91.398
245.00	78.723
245.38	88.119
245.75	85.047
246.12	83.486
246.49	81.022
246.87	79.200
247.24	89.231
247.61	67.857
247.98	73.203
248.36	66.892
248.73	68.153
249.10	73.885
249.47	66.102
249.84	69.519
250.22	62.567
250.59	71.006
250.96	67.677
251.33	64.929
251.70	70.297
252.08	57.619
252.45	55.157
252.82	60.000
253.19	53.617
253.56	56.863
253.94	58.506
254.31	57.031
254.68	58.462
255.05	55.720
255.42	62.602
255.79	57.353
256.16	59.567
256.54	55.830
256.91	55.516
257.28	48.561
257.65	56.436
258.02	54.969
258.39	48.896
258.76	48.829
259.14	52.083
259.51	48.936
259.88	48.447
260.25	56.193
260.62	49.711
260.99	51.863
261.36	51.952
261.73	45.845
262.10	49.419
262.47	54.648
262.85	50.975
263.22	49.288
263.59	51.567
263.96	49.451
264.33	47.781
264.70	49.737
265.07	49.616
265.44	46.970
265.81	45.012
266.18	48.995
266.55	46.585
266.92	49.877
267.29	48.611
267.66	45.183
268.03	47.955
268.40	46.495
268.77	45.823
269.14	47.748
269.51	48.984
269.88	50.583
270.25	44.921
270.62	48.315
270.99	47.957
271.36	45.708
271.73	48.131
272.10	44.565
272.47	47.527
272.84	48.052
273.21	45.702
273.58	46.288
273.95	43.816
274.32	42.149
274.69	47.109
275.06	41.929
275.43	47.660
275.80	45.691
276.17	42.566
276.54	48.233
276.91	44.664
277.28	43.164
277.65	42.940
278.02	44.720
278.39	45.703
278.76	43.818
279.13	43.774
279.50	44.693
279.87	42.032
280.23	44.112
280.60	43.714
280.97	45.102
281.34	43.363
281.71	43.091
282.08	44.722
282.45	41.091
282.82	42.806
283.19	39.929
283.56	42.456
283.92	41.117
284.29	41.446
284.66	42.831
285.03	41.591
285.40	40.493
285.77	39.731
286.14	40.933
286.51	38.667
286.87	41.709
287.24	41.042
287.61	39.968
287.98	39.773
288.35	39.778
288.72	38.006
289.08	37.715
289.45	37.891
289.82	37.724
290.19	36.421
290.56	37.213
290.93	34.894
291.29	37.883
291.66	35.398
292.03	39.244
292.40	38.179
292.77	35.503
293.13	34.478
293.50	36.297
293.87	33.481
294.24	35.259
294.60	33.479
294.97	32.849
295.34	33.992
295.71	33.239
296.08	34.473
296.44	33.012
296.81	32.100
297.18	35.230
297.55	31.530
297.91	34.565
298.28	32.664
298.65	32.637
299.02	32.279
299.38	32.802
299.75	30.593
300.12	31.162
300.48	31.500
300.85	30.949
301.22	32.229
301.59	30.177
301.95	31.486
302.32	30.680
302.69	30.466
303.05	30.788
303.42	30.741
303.79	30.578
304.15	30.070
304.52	29.316
304.89	28.920
305.25	29.118
305.62	31.597
305.99	31.759
306.35	30.984
306.72	29.036
307.09	30.966
307.45	30.518
307.82	28.348
308.19	28.918
308.55	29.342
308.92	28.034
309.29	27.878
309.65	28.102
310.02	28.541
310.38	29.355
310.75	29.567
311.12	30.297
311.48	29.154
311.85	30.398
312.22	29.344
312.58	27.755
312.95	31.573
313.31	28.155
313.68	29.730
314.05	30.572
314.41	29.548
314.78	31.118
315.14	29.295
315.51	30.999
315.87	29.703
316.24	30.487
316.61	29.435
316.97	31.115
317.34	29.256
317.70	30.688
318.07	31.376
318.43	31.703
318.80	30.647
319.16	30.414
319.53	29.831
319.89	31.810
320.26	32.900
320.62	32.044
320.99	30.707
321.35	31.919
321.72	34.086
322.08	34.748
322.45	35.423
322.81	35.659
323.18	35.645
323.54	34.230
323.91	34.434
324.27	34.799
324.64	34.762
325.00	33.814
325.37	35.123
325.73	35.907
326.10	36.275
326.46	34.498
326.83	35.116
327.19	35.354
327.56	36.847
327.92	38.933
328.29	37.178
328.65	37.661
329.01	36.913
329.38	37.465
329.74	36.657
330.11	38.266
330.47	38.843
330.84	39.063
331.20	38.434
331.56	39.174
331.93	38.333
332.29	39.219
332.66	38.407
333.02	39.580
333.38	38.482
333.75	39.394
334.11	38.879
334.48	39.485
334.84	40.165
335.20	39.091
335.57	38.803
335.93	39.196
336.29	39.927
336.66	39.675
337.02	37.919
337.38	40.556
337.75	39.661
338.11	39.033
338.47	40.700
338.84	40.605
339.20	38.807
339.56	41.423
339.93	39.545
340.29	39.312
340.65	39.840
341.02	40.052
341.38	41.192
341.74	39.298
342.11	40.524
342.47	40.529
342.83	40.240
343.20	40.087
343.56	39.174
343.92	40.877
344.28	40.391
344.65	41.359
345.01	40.236
345.37	39.194
345.73	41.371
346.10	41.773
346.46	40.339
346.82	39.292
347.19	40.852
347.55	41.544
347.91	41.424
348.27	41.578
348.63	40.552
349.00	40.615
349.36	40.805
349.72	40.738
350.08	40.032
350.45	41.253
350.81	40.861
351.17	41.005
351.53	41.933
351.89	40.512
352.26	41.910
352.62	41.379
352.98	40.924
353.34	41.249
353.70	39.689
354.07	41.935
354.43	40.952
354.79	40.306
355.15	40.702
355.51	41.966
355.87	42.286
356.24	41.450
356.60	39.455
356.96	42.156
357.32	42.764
357.68	41.654
358.04	41.647
358.40	42.043
358.77	41.002
359.13	41.358
359.49	41.255
359.85	40.238
360.21	41.148
360.57	41.790
360.93	42.385
361.29	41.270
361.66	40.248
362.02	41.716
362.38	41.597
362.74	41.518
363.10	41.377
363.46	41.159
363.82	41.648
364.18	41.630
364.54	42.348
364.90	41.643
365.26	40.735
365.62	43.389
365.98	41.782
366.35	40.759
366.71	42.082
367.07	42.462
367.43	42.888
367.79	42.541
368.15	42.672
368.51	42.078
368.87	42.113
369.23	43.599
369.59	42.361
369.95	42.353
370.31	42.094
370.67	40.942
371.03	42.772
371.39	44.096
371.75	42.647
372.11	42.390
372.47	43.695
372.83	43.228
373.19	43.064
373.55	44.198
373.91	43.594
374.27	41.581
374.63	42.400
374.99	42.514
375.35	42.708
375.71	42.426
376.07	42.867
376.42	42.847
376.78	43.738
377.14	43.080
377.50	43.377
377.86	42.886
378.22	42.668
378.58	42.356
378.94	42.363
379.30	43.321
379.66	44.099
380.02	43.489
380.38	43.655
380.74	43.818
381.09	43.704
381.45	43.577
381.81	43.857
382.17	44.713
382.53	43.082
382.89	43.519
383.25	44.090
383.61	44.610
383.97	44.028
384.32	42.233
384.68	42.441
385.04	42.963
385.40	43.220
385.76	43.243
386.12	43.977
386.48	43.109
386.83	44.965
387.19	44.651
387.55	44.280
387.91	43.470
388.27	43.041
388.62	44.069
388.98	44.042
389.34	42.553
389.70	42.612
390.06	43.093
390.42	44.423
390.77	43.003
391.13	43.969
391.49	44.036
391.85	42.521
392.20	43.659
392.56	42.929
392.92	43.437
393.28	43.018
393.64	43.285
393.99	44.105
394.35	43.672
394.71	43.350
395.07	43.738
395.42	43.943
395.78	43.384
396.14	43.451
396.50	44.549
396.85	44.183
397.21	42.725
397.57	43.335
397.92	43.690
398.28	41.200
398.64	44.205
399.00	43.313
399.35	42.583
399.71	42.882
400.07	42.992
400.42	43.374
400.78	43.908
401.14	42.988
401.49	42.567
401.85	43.255
402.21	42.096
402.57	41.209
402.92	43.127
403.28	43.348
403.63	42.327
403.99	42.930
404.35	42.121
404.70	41.847
405.06	41.002
405.42	42.483
405.77	40.971
406.13	41.140
406.49	41.336
406.84	41.760
407.20	42.967
407.55	42.948
407.91	42.067
408.27	41.417
408.62	40.999
408.98	41.789
409.34	42.066
409.69	41.806
410.05	40.768
410.40	41.407
410.76	40.621
411.11	41.074
411.47	40.639
411.83	41.417
412.18	40.445
412.54	41.407
412.89	40.542
413.25	40.083
413.60	41.631
413.96	40.316
414.31	41.009
414.67	42.712
415.03	41.722
415.38	40.657
415.74	40.386
416.09	41.411
416.45	40.897
416.80	41.771
417.16	41.220
417.51	41.539
417.87	40.591
418.22	41.767
418.58	39.380
418.93	40.479
419.29	39.975
419.64	39.987
420.00	40.122
420.35	39.478
420.71	40.108
421.06	39.320
421.42	40.058
421.77	40.247
422.12	39.023
422.48	38.748
422.83	39.429
423.19	40.055
423.54	40.801
423.90	40.348
424.25	40.536
424.61	39.464
424.96	39.825
425.31	39.756
425.67	38.820
426.02	38.686
426.38	40.965
426.73	39.380
427.09	39.453
427.44	39.045
427.79	38.988
428.15	39.048
428.50	39.029
428.85	39.273
429.21	38.487
429.56	38.466
429.92	38.450
430.27	37.686
430.62	38.095
430.98	38.661
431.33	37.990
431.68	38.743
432.04	37.700
432.39	38.949
432.74	38.719
433.10	38.936
433.45	38.484
433.80	38.525
434.16	38.248
434.51	37.789
434.86	37.457
435.22	38.466
435.57	38.541
435.92	38.970
436.28	39.265
436.63	37.748
436.98	37.207
437.34	38.521
437.69	37.923
438.04	38.111
438.39	37.433
438.75	38.757
439.10	37.933
439.45	37.957
439.81	37.825
440.16	38.396
440.51	37.551
440.86	38.159
441.22	37.430
441.57	36.783
441.92	37.666
442.27	37.191
442.63	36.756
442.98	37.577
443.33	37.772
443.68	37.739
444.03	37.042
444.39	37.050
444.74	37.662
445.09	37.143
445.44	36.249
445.79	36.368
446.15	36.845
446.50	36.941
446.85	36.434
447.20	37.073
447.55	37.186
447.91	36.624
448.26	37.173
448.61	36.179
448.96	36.489
449.31	36.727
449.66	37.029
450.02	35.766
450.37	35.488
450.72	35.815
451.07	35.466
451.42	35.502
451.77	36.348
452.12	35.797
452.47	36.754
452.83	36.480
453.18	34.719
453.53	36.425
453.88	35.913
454.23	35.565
454.58	36.281
454.93	36.682
455.28	34.788
455.63	35.983
455.98	36.667
456.34	36.369
456.69	36.569
457.04	35.975
457.39	35.184
457.74	34.881
458.09	34.273
458.44	35.519
458.79	33.839
459.14	35.553
459.49	35.260
459.84	34.460
460.19	34.473
460.54	34.201
460.89	34.504
461.24	34.244
461.59	35.851
461.94	34.279
462.29	34.837
462.64	34.716
462.99	32.726
463.34	35.333
463.69	34.146
464.04	34.377
464.39	33.913
464.74	34.284
465.09	33.896
465.44	33.352
465.79	33.166
466.14	33.662
466.49	33.426
466.84	34.326
467.19	34.098
467.54	34.688
467.89	33.133
468.24	33.159
468.59	34.188
468.94	32.682
469.29	34.383
469.64	33.936
469.99	33.965
470.34	33.421
470.68	32.399
471.03	33.469
471.38	34.190
471.73	33.911
472.08	33.289
472.43	32.161
472.78	31.929
473.13	32.092
473.48	32.647
473.83	32.744
474.17	32.047
474.52	32.692
474.87	32.107
475.22	32.501
475.57	31.918
475.92	30.749
476.27	31.454
476.61	33.039
476.96	32.216
477.31	31.136
477.66	32.549
478.01	30.842
478.36	32.099
478.70	30.945
479.05	31.629
479.40	31.781
479.75	31.418
480.10	30.268
480.45	30.652
480.79	30.339
481.14	30.773
481.49	31.134
481.84	31.733
482.19	30.804
482.53	30.734
482.88	30.991
483.23	30.607
483.58	30.619
483.92	30.834
484.27	29.412
484.62	30.905
484.97	29.641
485.31	30.034
485.66	28.245
486.01	28.132
486.36	27.183
486.70	27.873
487.05	28.372
487.40	29.137
487.75	29.737
488.09	30.755
488.44	30.821
488.79	32.007
489.13	31.551
489.48	30.261
489.83	29.607
490.17	30.513
490.52	29.052
490.87	29.896
491.22	29.195
491.56	29.112
491.91	28.618
492.26	28.939
492.60	29.171
492.95	28.204
493.30	29.299
493.64	28.931
493.99	28.552
494.34	29.186
494.68	29.487
495.03	28.900
495.37	28.013
495.72	28.460
496.07	28.956
496.41	27.743
496.76	28.364
497.11	27.960
497.45	28.225
497.80	28.599
498.14	27.971
498.49	29.073
498.84	28.236
499.18	28.286
499.53	28.205
499.87	27.726
500.22	28.309
500.56	29.369
500.91	28.317
501.26	27.833
501.60	28.619
501.95	27.635
502.29	28.538
502.64	28.771
502.98	28.237
503.33	27.422
503.67	28.260
504.02	27.035
504.36	28.170
504.71	28.676
505.06	27.807
505.40	28.002
505.75	27.724
506.09	27.600
506.44	27.528
506.78	27.667
507.13	27.865
507.47	28.283
507.82	28.116
508.16	27.862
508.51	27.752
508.85	27.210
509.19	27.092
509.54	27.398
509.88	27.872
510.23	26.632
510.57	28.793
510.92	28.017
511.26	27.133
511.61	27.282
511.95	26.566
512.30	26.670
512.64	28.372
512.98	28.028
513.33	28.373
513.67	27.641
514.02	26.190
514.36	28.291
514.70	27.283
515.05	26.882
515.39	26.192
515.74	27.421
516.08	27.725
516.42	27.192
516.77	27.592
517.11	27.580
517.46	27.991
517.80	27.933
518.14	26.462
518.49	28.005
518.83	26.875
519.17	27.598
519.52	27.165
519.86	26.982
520.20	27.977
520.55	27.409
520.89	27.433
521.23	27.624
521.58	27.131
521.92	27.495
522.26	27.517
522.61	26.916
522.95	25.967
523.29	27.511
523.64	27.073
523.98	26.802
524.32	26.417
524.66	26.639
525.01	26.777
525.35	26.890
525.69	26.539
526.04	26.231
526.38	26.846
526.72	25.583
527.06	27.119
527.41	25.928
527.75	26.559
528.09	26.846
528.43	26.514
528.78	26.613
529.12	26.909
529.46	27.006
529.80	27.104
530.15	25.732
530.49	25.785
530.83	26.392
531.17	28.133
531.51	27.432
531.86	26.065
532.20	27.249
532.54	27.226
532.88	26.380
533.22	25.359
533.57	26.667
533.91	26.731
534.25	26.367
534.59	27.029
534.93	25.640
535.27	26.856
535.62	26.496
535.96	26.114
536.30	25.747
536.64	26.014
536.98	26.211
537.32	26.070
537.66	25.600
538.01	26.399
538.35	26.632
538.69	26.611
539.03	25.601
539.37	25.815
539.71	24.433
540.05	26.275
540.39	25.714
540.73	25.291
541.07	26.801
541.42	25.636
541.76	26.774
542.10	26.585
542.44	26.159
542.78	26.153
543.12	24.760
543.46	25.639
543.80	25.634
544.14	25.802
544.48	26.540
544.82	25.529
545.16	26.220
545.50	25.643
545.84	25.672
546.18	26.330
546.52	26.290
546.86	25.498
547.20	26.433
547.54	25.184
547.88	25.893
548.22	25.218
548.56	26.352
548.90	25.288
549.24	24.781
549.58	26.194
549.92	26.030
550.26	26.278
550.60	26.210
550.94	25.845
551.28	23.994
551.62	26.096
551.96	24.912
552.30	26.007
552.64	25.287
552.98	25.695
553.32	25.017
553.66	25.290
554.00	25.395
554.34	25.397
554.68	26.466
555.02	25.458
555.36	26.374
555.69	24.966
556.03	25.707
556.37	25.716
556.71	24.966
557.05	24.720
557.39	25.332
557.73	25.053
558.07	24.946
558.41	24.602
558.75	25.863
559.08	25.503
559.42	25.321
559.76	24.926
560.10	24.768
560.44	25.087
560.78	24.418
561.12	24.538
561.45	25.489
561.79	25.115
562.13	25.285
562.47	24.454
562.81	24.686
563.15	25.552
563.48	24.668
563.82	25.245
564.16	25.703
564.50	23.307
564.84	24.463
565.17	25.676
565.51	24.920
565.85	24.746
566.19	24.358
566.52	24.509
566.86	23.629
567.20	24.410
567.54	24.315
567.88	23.248
568.21	25.185
568.55	24.166
568.89	23.833
569.23	23.752
569.56	23.482
569.90	23.170
570.24	22.856
570.57	23.359
570.91	23.368
571.25	23.317
571.59	23.004
571.92	23.704
572.26	23.310
572.60	23.844
572.93	23.718
573.27	23.573
573.61	23.897
573.95	23.463
574.28	23.241
574.62	23.372
574.96	22.772
575.29	23.181
575.63	23.323
575.97	23.093
576.30	23.659
576.64	22.947
576.98	23.238
577.31	23.105
577.65	22.910
577.98	22.839
578.32	22.677
578.66	23.082
578.99	23.260
579.33	23.457
579.67	23.182
580.00	23.783
580.34	23.422
580.67	23.517
581.01	23.184
581.35	22.827
581.68	22.689
582.02	22.547
582.35	22.387
582.69	22.987
583.02	23.624
583.36	23.634
583.70	23.876
584.03	23.537
584.37	24.427
584.70	24.138
585.04	23.557
585.37	22.880
585.71	23.167
586.04	23.436
586.38	23.276
586.72	24.027
587.05	23.173
587.39	22.982
587.72	23.113
588.06	23.906
588.39	23.978
588.73	23.643
589.06	24.151
589.40	24.175
589.73	24.111
590.07	24.164
590.40	24.224
590.73	23.731
591.07	24.990
591.40	24.378
591.74	24.978
592.07	24.433
592.41	24.308
592.74	22.285
593.08	22.818
593.41	22.714
593.75	22.423
594.08	23.265
594.41	22.976
594.75	23.142
595.08	23.622
595.42	23.327
595.75	23.219
596.09	24.071
596.42	24.676
596.75	24.483
597.09	24.416
597.42	23.103
597.75	23.458
598.09	23.783
598.42	23.926
598.76	23.105
599.09	22.083
599.42	22.707
599.76	22.694
600.09	22.514
600.42	22.754
600.76	22.821
601.09	22.951
601.42	22.717
601.76	23.150
602.09	23.281
602.42	23.846
602.76	24.426
603.09	23.997
603.42	23.428
603.76	22.713
604.09	23.265
604.42	23.196
604.76	24.336
605.09	23.547
605.42	22.873
605.75	23.386
606.09	22.041
606.42	23.089
606.75	23.683
607.09	22.813
607.42	23.320
607.75	22.405
608.08	23.274
608.42	23.577
608.75	23.129
609.08	22.849
609.41	23.560
609.75	23.440
610.08	22.950
610.41	23.743
610.74	23.463
611.07	24.061
611.41	23.258
611.74	23.831
612.07	23.654
612.40	23.924
612.73	23.368
613.07	23.922
613.40	23.433
613.73	22.863
614.06	23.441
614.39	22.968
614.72	23.158
615.06	22.847
615.39	22.665
615.72	23.313
616.05	23.232
616.38	24.180
616.71	23.575
617.05	24.735
617.38	23.271
617.71	24.505
618.04	23.618
618.37	23.891
618.70	23.771
619.03	25.395
619.36	24.711
619.69	24.296
620.03	25.069
620.36	24.131
620.69	24.110
621.02	24.336
621.35	24.041
621.68	23.832
622.01	24.613
622.34	24.508
622.67	24.791
623.00	23.258
623.33	23.660
623.66	24.089
623.99	23.049
624.32	22.397
624.65	24.082
624.99	22.521
625.32	23.751
625.65	24.343
625.98	24.058
626.31	24.806
626.64	24.327
626.97	24.273
627.30	24.439
627.63	24.036
627.96	25.063
628.29	24.147
628.62	24.703
628.95	26.321
629.28	24.453
629.61	25.298
629.94	25.429
630.26	24.881
630.59	24.309
630.92	24.234
631.25	23.100
631.58	23.423
631.91	23.834
632.24	23.523
632.57	25.289
632.90	24.123
633.23	23.826
633.56	24.746
633.89	24.689
634.22	24.745
634.55	27.337
634.88	25.389
635.20	24.134
635.53	25.904
635.86	25.990
636.19	24.000
636.52	25.490
636.85	25.544
637.18	23.387
637.51	26.241
637.83	25.154
638.16	25.192
638.49	25.819
638.82	26.422
639.15	25.500
639.48	27.431
639.81	26.273
640.13	27.083
640.46	26.174
640.79	26.024
641.12	25.034
641.45	24.022
641.77	27.393
642.10	24.561
642.43	26.877
642.76	26.625
643.09	27.607
643.41	24.583
643.74	27.006
644.07	25.915
644.40	28.528
644.73	25.984
645.05	25.674
645.38	27.330
645.71	26.409
646.04	24.419
646.36	28.381
646.69	27.592
647.02	25.510
647.35	29.210
647.67	28.319
648.00	28.130
648.33	25.578
648.66	24.242
648.98	26.837
649.31	23.169
649.64	26.607
649.96	27.124
650.29	25.276
650.62	25.405
650.94	25.446
651.27	28.885
651.60	26.789
651.92	28.275
652.25	25.081
652.58	26.480
652.90	27.962
653.23	25.886
653.56	26.772
653.88	28.526
654.21	28.752
654.54	25.908
654.86	26.324
655.19	24.730
655.52	18.051
655.84	15.912
656.17	21.058
656.49	29.818
656.82	32.507
657.15	25.619
657.47	19.696
657.80	15.548
658.13	16.609
658.45	25.513
658.78	26.334
659.10	28.039
659.43	29.918
659.75	30.862
660.08	32.532
660.41	32.495
660.73	30.623
661.06	30.096
661.38	31.455
661.71	29.615
662.03	29.389
662.36	26.839
662.68	26.506
663.01	29.495
663.33	28.450
663.66	32.983
663.98	29.158
664.31	28.151
664.63	25.506
664.96	25.956
665.28	29.098
665.61	26.901
665.93	27.565
666.26	28.803
666.58	29.707
666.91	30.233
667.23	30.787
667.56	25.918
667.88	28.846
668.21	30.917
668.53	29.935
668.86	27.922
669.18	28.571
669.50	27.391
669.83	30.283
670.15	29.556
670.48	26.797
670.80	28.017
671.13	29.087
671.45	28.085
671.77	28.921
672.10	27.357
672.42	26.678
672.75	26.534
673.07	26.761
673.39	27.306
673.72	28.125
674.04	27.451
674.37	27.379
674.69	29.652
675.01	28.870
675.34	29.774
675.66	33.263
675.98	28.717
676.31	28.992
676.63	28.450
676.95	29.140
677.28	28.505
677.60	30.110
677.92	28.481
678.25	28.747
678.57	30.677
678.89	27.856
679.22	24.558
679.54	27.672
679.86	28.991
680.18	28.801
680.51	26.950
680.83	25.979
681.15	28.491
681.48	32.514
681.80	27.079
682.12	28.544
682.44	25.338
682.77	28.717
683.09	32.833
683.41	29.712
683.73	30.243
684.06	30.165
684.38	28.376
684.70	28.295
685.02	29.644
685.34	27.473
685.67	25.524
685.99	25.258
686.31	25.768
686.63	25.795
686.96	25.893
687.28	25.451
687.60	27.899
687.92	28.336
688.24	26.046
688.56	29.116
688.89	29.461
689.21	30.131
689.53	30.689
689.85	31.264
690.17	27.536
690.49	29.087
690.82	29.439
691.14	25.223
691.46	26.371
691.78	27.309
692.10	29.959
692.42	28.144
692.74	27.801
693.06	28.511
693.39	28.337
693.71	31.004
694.03	28.211
694.35	28.788
694.67	29.748
694.99	31.707
695.31	26.716
695.63	25.359
695.95	31.051
696.27	29.695
696.59	29.275
696.91	29.534
697.23	27.700
697.56	28.998
697.88	26.380
698.20	28.958
698.52	27.097
698.84	28.508
699.16	28.111
699.48	30.404
699.80	30.193
700.12	32.468
700.44	34.483
700.76	31.492
701.08	31.034
701.40	30.168
701.72	33.528
702.04	37.216
702.36	30.312
702.68	31.728
703.00	27.978
703.32	29.255
703.64	28.686
703.96	32.312
704.28	33.140
704.60	32.845
704.91	31.751
705.23	34.018
705.55	33.223
705.87	38.206
706.19	33.216
706.51	31.776
706.83	33.636
707.15	32.773
707.47	27.273
707.79	28.256
708.11	29.224
708.43	30.000
708.74	28.827
709.06	32.727
709.38	33.333
709.70	33.721
710.02	33.234
710.34	31.818
710.66	34.925
710.98	35.795
711.29	30.523
711.61	35.693
711.93	31.090
712.25	35.048
712.57	37.868
712.89	31.834
713.20	37.386
713.52	34.211
713.84	31.646
714.16	31.098
714.48	33.908
714.80	39.818
715.11	34.006
715.43	29.970
715.75	32.754
716.07	33.227
716.39	34.483
716.70	32.226
717.02	33.094
717.34	36.042
717.66	38.060
717.97	40.239
718.29	35.556
718.61	34.307
718.93	34.926
719.24	34.948
719.56	31.186
719.88	30.508
720.20	37.162
720.51	36.585
720.83	38.662
721.15	36.567
721.46	35.106
721.78	34.050
722.10	35.094
722.42	35.338
722.73	32.959
723.05	37.295
723.37	34.413
723.68	37.838
724.00	35.772
724.32	35.484
724.63	39.431
724.95	35.565
725.27	40.891
725.58	36.328
725.90	40.511
726.22	36.981
726.53	35.417
726.85	35.154
727.16	35.587
727.48	37.589
727.80	37.121
728.11	36.232
728.43	32.692
728.74	35.842
729.06	41.241
729.38	38.603
729.69	37.367
730.01	31.399
730.32	35.764
730.64	35.786
730.96	28.383
731.27	34.768
731.59	37.920
731.90	31.195
732.22	33.230
732.53	32.198
732.85	32.692
733.16	33.762
733.48	35.548
733.80	35.390
734.11	34.076
734.43	36.391
734.74	33.143
735.06	28.940
735.37	36.127
735.69	33.439
736.00	34.967
736.32	37.383
736.63	34.185
736.95	32.907
737.26	27.891
737.58	31.290
737.89	34.448
738.21	35.836
738.52	35.714
738.83	36.226
739.15	34.231
739.46	34.307
739.78	35.764
740.09	31.692
740.41	37.097
740.72	32.753
741.04	35.926
741.35	39.167
741.66	44.889
741.98	40.094
742.29	44.019
742.61	39.655
742.92	39.367
743.23	35.897
743.55	39.600
743.86	41.228
744.18	43.363
744.49	38.278
744.80	43.662
745.12	45.455
745.43	38.326
745.74	47.297
746.06	41.743
746.37	41.256
746.68	42.081
747.00	42.593
747.31	40.952
747.62	38.496
747.94	37.004
748.25	39.574
748.56	45.815
748.88	37.624
749.19	47.000
749.50	42.326
749.82	36.179
750.13	35.102
750.44	35.036
750.75	36.842
751.07	38.585
751.38	40.767
751.69	40.072
752.01	36.466
752.32	35.018
752.63	36.170
752.94	39.754
753.26	41.600
753.57	31.301
753.88	40.625
754.19	35.000
754.51	38.542
754.82	34.296
755.13	37.358
755.44	34.586
755.75	32.847
756.07	36.879
756.38	36.496
756.69	32.550
757.00	32.934
757.31	32.344
757.63	30.409
757.94	28.954
758.25	31.373
758.56	32.099
758.87	30.914
759.18	31.212
759.50	34.169
759.81	33.956
760.12	30.313
760.43	30.659
760.74	33.152
761.05	35.311
761.36	31.818
761.67	36.932
761.99	32.298
762.30	31.944
762.61	33.206
762.92	33.984
763.23	38.655
763.54	40.000
763.85	36.719
764.16	42.692
764.47	37.262
764.78	35.336
765.10	31.646
765.41	33.038
765.72	33.533
766.03	31.348
766.34	37.667
766.65	42.979
766.96	44.444
767.27	44.670
767.58	42.708
767.89	45.263
768.20	41.954
768.51	44.670
768.82	47.248
769.13	36.585
769.44	36.437
769.75	37.768
770.06	33.028
770.37	45.701
770.68	43.056
770.99	34.667
771.30	36.066
771.61	39.910
771.92	35.656
772.23	42.857
772.54	41.026
772.85	45.026
773.16	45.745
773.47	44.022
773.78	48.223
774.09	42.857
774.39	49.123
774.70	43.210
775.01	52.174
775.32	56.209
775.63	53.947
775.94	51.799
776.25	58.268
776.56	63.433
776.87	54.098
777.18	53.125
777.48	58.779
777.79	54.545
778.10	60.000
778.41	58.929
778.72	54.745
779.03	42.282
779.34	53.020
779.65	43.919
779.95	52.147
780.26	45.752
780.57	54.483
780.88	68.750
781.19	59.398
781.50	54.730
781.80	49.057
782.11	46.328
782.42	50.000
782.73	43.558
783.04	44.595
783.34	52.113
783.65	62.329
783.96	58.955
784.27	50.350
784.57	50.360
784.88	55.556
785.19	64.286
785.50	62.264
785.81	56.716
786.11	61.475
786.42	62.791
786.73	67.257
787.04	70.755
787.34	61.607
787.65	72.000
787.96	59.459
788.26	64.463
788.57	72.034
788.88	60.331
789.19	60.417
789.49	64.394
789.80	59.542
790.11	72.381
790.41	79.208
790.72	75.904
791.03	77.174
791.33	75.581
791.64	62.887
791.95	72.277
792.25	82.222
792.56	89.610
792.87	96.154
793.17	87.342
793.48	80.460
793.79	77.011
794.09	71.591
794.40	57.983
794.70	66.912
795.01	51.111
795.32	53.957
795.62	54.331
795.93	62.069
796.23	61.062
796.54	69.412
796.85	67.568
797.15	94.366
797.46	72.727
797.76	81.928
798.07	78.481
798.37	76.923
798.68	93.939
798.99	81.690
799.29	76.623
799.60	72.727
799.90	75.342
800.21	86.567
800.51	93.103
800.82	96.491
801.12	90.164
801.43	96.970
801.73	79.730
802.04	119.048
802.34	92.593
802.65	104.688
802.95	110.169
803.26	117.188
803.56	80.000
803.87	86.154
804.17	98.529
804.48	116.667
804.78	84.483
805.09	91.176
805.39	115.385
805.70	112.500
806.00	104.918
806.30	87.879
806.61	81.707
806.91	78.481
807.22	84.211
807.52	86.567
807.83	80.282
808.13	96.875
808.43	105.000
808.74	72.368
809.04	95.652
809.35	85.075
809.65	90.789
809.95	119.355
810.26	94.915
810.56	98.413
810.86	136.364
811.17	133.333
811.47	118.333
811.77	100.000
812.08	121.818
812.38	118.000
812.69	158.333
812.99	156.818
813.29	128.571
813.59	109.524
813.90	134.694
814.20	112.727
814.50	86.154
814.81	104.412
815.11	114.286
815.41	109.836
815.72	145.238
816.02	138.182
816.32	142.857
816.62	122.500
816.93	151.220
817.23	133.333
817.53	134.091
817.84	196.970
818.14	130.435
818.44	126.667
818.74	191.176
819.04	167.500
819.35	137.143
819.65	185.294
819.95	203.571
820.25	235.000
820.56	171.795
820.86	125.000
821.16	141.860
821.46	128.205
821.76	138.000
822.07	154.286
822.37	157.500
822.67	163.636
822.97	94.118
823.27	167.857
823.57	154.054
823.88	165.000
824.18	206.667
824.48	140.476
824.78	204.000
825.08	191.667
825.38	167.568
825.69	136.585
825.99	250.000
826.29	158.621
826.59	181.579
826.89	136.842
827.19	182.353
827.49	193.548
827.79	143.182
828.09	140.909
828.39	125.532
828.70	138.776
829.00	207.407
829.30	174.194
829.60	135.000
829.90	340.000
830.20	207.143
830.50	221.739
830.80	226.087
831.10	180.000
831.40	183.333
831.70	191.304
832.00	223.077
832.30	214.815
832.60	368.750
832.90	223.333
833.20	407.143
833.50	174.194
833.80	165.517
834.10	240.625
834.40	234.615
834.70	311.111
835.00	280.952
835.30	165.714
835.60	423.077
835.90	193.103
836.20	342.857
836.50	224.138
836.80	204.000
837.10	205.556
837.40	285.714
837.70	341.176
838.00	229.630
838.30	271.429
838.60	314.286
838.90	230.769
839.19	275.000
839.49	492.857
839.79	345.000
840.09	285.000
840.39	242.857
840.69	234.783
840.99	327.778
841.29	500.000
841.59	408.333
841.88	362.500
842.18	200.000
842.48	338.095
842.78	186.667
843.08	256.522
843.38	171.875
843.68	833.333
843.97	234.615
844.27	189.655
844.57	338.095
844.87	362.500
845.17	188.889
845.47	1666.667
845.76	422.222
846.06	323.529
846.36	475.000
846.66	350.000
846.96	318.750
847.25	463.636
847.55	418.182
847.85	260.870
848.15	450.000
848.44	328.571
848.74	244.444
849.04	276.471
849.34	550.000
849.63	242.105
849.93	500.000
850.23	980.000
850.53	400.000
850.82	3000.000
851.12	-4700.000
851.42	4500.000
851.71	305.000
852.01	-1100.000
852.31	225.000
852.61	1966.667
852.90	266.667
853.20	252.000
853.50	364.706
853.79	285.714
854.09	195.833
854.39	337.500
854.68	170.270
854.98	200.000
855.28	176.667
855.57	227.586
855.87	222.222
856.17	273.684
856.46	280.000
856.76	323.529
857.05	203.448
857.35	220.833
857.65	313.333
857.94	286.957
858.24	253.846
858.53	275.000
858.83	272.727
859.13	400.000
859.42	0.000
859.72	700.000
860.01	463.636
860.31	304.545
860.60	294.737
860.90	269.565
861.20	677.778
861.49	483.333
861.79	-4800.000
862.08	575.000
862.38	257.143
862.67	400.000
862.97	341.176
863.26	488.889
863.56	283.333
863.85	516.667
864.15	575.000
864.44	386.667
864.74	900.000
865.03	737.500
865.33	252.632
865.62	454.545
865.92	453.846
866.21	441.667
866.51	0.000
866.80	554.545
867.10	960.000
867.39	538.462
867.69	436.364
867.98	273.684
868.27	445.455
868.57	326.316
868.86	-5200.000
869.16	381.250
869.45	2100.000
869.75	-4800.000
870.04	466.667
870.33	785.714
870.63	1200.000
870.92	2400.000
871.22	700.000
871.51	370.588
871.80	228.571
872.10	400.000
>>>>>End Processed Spectral Data<<<<<
