SpectraSuite Data File
++++++++++++++++++++++++++++++++++++
Date: Wed May 13 19:37:01 PDT 2015
User: schluterlab
Dark Spectrum Present: Yes
Reference Spectrum Present: Yes
Number of Sampled Component Spectra: 1
Spectrometers: USB2E3373
Integration Time (usec): 3000 (USB2E3373)
Spectra Averaged: 3 (USB2E3373)
Boxcar Smoothing: 0 (USB2E3373)
Correct for Electrical Dark: No (USB2E3373)
Strobe/Lamp Enabled: No (USB2E3373)
Correct for Detector Non-linearity: No (USB2E3373)
Correct for Stray Light: No (USB2E3373)
Number of Pixels in Processed Spectrum: 2048
>>>>>Begin Processed Spectral Data<<<<<
178.53	0.000
178.91	-1325.000
179.29	-1300.000
179.67	-255.556
180.04	-1250.000
180.42	2950.000
180.80	1340.000
181.18	-1200.000
181.56	800.000
181.94	0.000
182.31	-757.143
182.69	1566.667
183.07	-650.000
183.45	-600.000
183.83	527.273
184.20	-410.000
184.58	2700.000
184.96	6000.000
185.34	-880.000
185.72	-700.000
186.09	-2500.000
186.47	3150.000
186.85	2550.000
187.23	5400.000
187.61	-1666.667
187.98	1525.000
188.36	572.727
188.74	618.182
189.12	-1080.000
189.49	630.000
189.87	-4400.000
190.25	-1225.000
190.63	414.286
191.00	461.538
191.38	816.667
191.76	-1275.000
192.14	1425.000
192.51	625.000
192.89	1050.000
193.27	600.000
193.65	-975.000
194.02	490.000
194.40	1060.000
194.78	530.000
195.15	600.000
195.53	620.000
195.91	-2100.000
196.29	331.250
196.66	373.684
197.04	-410.000
197.42	0.000
197.79	610.000
198.17	-6400.000
198.55	828.571
198.92	712.500
199.30	1020.000
199.68	0.000
200.05	366.667
200.43	800.000
200.81	4900.000
201.18	1900.000
201.56	-1300.000
201.94	700.000
202.31	611.111
202.69	483.333
203.07	630.000
203.44	0.000
203.82	1125.000
204.19	842.857
204.57	385.714
204.95	700.000
205.32	1633.333
205.70	563.636
206.08	378.571
206.45	2700.000
206.83	412.500
207.20	916.667
207.58	920.000
207.96	316.667
208.33	825.000
208.71	-1033.333
209.08	914.286
209.46	666.667
209.84	509.091
210.21	-1866.667
210.59	1675.000
210.96	-500.000
211.34	2750.000
211.71	620.000
212.09	800.000
212.46	0.000
212.84	1800.000
213.22	1325.000
213.59	-5700.000
213.97	950.000
214.34	842.857
214.72	527.273
215.09	1360.000
215.47	-2850.000
215.84	-2750.000
216.22	1733.333
216.59	428.571
216.97	1325.000
217.34	518.182
217.72	-733.333
218.09	0.000
218.47	-5700.000
218.84	711.111
219.22	885.714
219.59	1933.333
219.97	-614.286
220.34	1120.000
220.72	-2000.000
221.09	428.571
221.47	1525.000
221.84	-1066.667
222.22	0.000
222.59	1300.000
222.97	-2950.000
223.34	1280.000
223.72	415.385
224.09	1300.000
224.46	2350.000
224.84	-5200.000
225.21	-1060.000
225.59	-5100.000
225.96	670.000
226.34	330.000
226.71	2800.000
227.08	650.000
227.46	580.000
227.83	-1150.000
228.21	-2250.000
228.58	611.111
228.95	-2600.000
229.33	-2400.000
229.70	1866.667
230.08	685.714
230.45	-940.000
230.82	433.333
231.20	750.000
231.57	728.571
231.95	508.333
232.32	281.818
232.69	472.727
233.07	742.857
233.44	384.615
233.81	-1933.333
234.19	384.211
234.56	566.667
234.93	341.667
235.31	518.182
235.68	423.077
236.05	385.714
236.43	193.939
236.80	284.211
237.17	5300.000
237.55	304.762
237.92	232.143
238.29	304.762
238.67	209.677
239.04	220.690
239.41	175.000
239.79	147.826
240.16	185.714
240.53	154.545
240.91	125.490
241.28	124.000
241.65	136.000
242.02	127.536
242.40	108.065
242.77	123.333
243.14	81.720
243.51	103.371
243.89	95.294
244.26	92.222
244.63	88.172
245.00	75.532
245.38	78.218
245.75	79.439
246.12	77.064
246.49	86.861
246.87	81.600
247.24	80.000
247.61	70.000
247.98	69.281
248.36	69.595
248.73	70.064
249.10	65.605
249.47	65.537
249.84	63.102
250.22	61.497
250.59	66.864
250.96	62.626
251.33	63.507
251.70	59.406
252.08	59.524
252.45	60.538
252.82	57.826
253.19	60.000
253.56	54.902
253.94	54.772
254.31	56.250
254.68	60.000
255.05	57.934
255.42	54.472
255.79	57.353
256.16	50.903
256.54	48.057
256.91	56.228
257.28	50.360
257.65	50.825
258.02	49.068
258.39	49.211
258.76	55.184
259.14	50.893
259.51	49.848
259.88	49.068
260.25	53.172
260.62	48.844
260.99	52.174
261.36	49.249
261.73	46.991
262.10	49.709
262.47	53.239
262.85	50.139
263.22	49.573
263.59	50.997
263.96	47.253
264.33	44.125
264.70	47.368
265.07	45.013
265.44	50.505
265.81	42.336
266.18	51.508
266.55	46.829
266.92	47.912
267.29	45.602
267.66	49.083
268.03	43.636
268.40	44.393
268.77	47.255
269.14	42.793
269.51	43.792
269.88	45.221
270.25	45.598
270.62	44.494
270.99	43.656
271.36	43.348
271.73	43.692
272.10	45.217
272.47	45.591
272.84	43.074
273.21	44.025
273.58	41.485
273.95	41.929
274.32	41.116
274.69	43.255
275.06	41.535
275.43	43.830
275.80	42.285
276.17	44.399
276.54	43.867
276.91	41.502
277.28	40.234
277.65	42.360
278.02	41.201
278.39	44.141
278.76	39.636
279.13	42.453
279.50	40.410
279.87	40.239
280.23	41.916
280.60	39.845
280.97	41.590
281.34	40.885
281.71	43.455
282.08	39.539
282.45	38.909
282.82	41.208
283.19	39.572
283.56	40.000
283.92	42.470
284.29	38.095
284.66	41.379
285.03	39.060
285.40	38.908
285.77	39.562
286.14	39.378
286.51	41.333
286.87	38.974
287.24	39.739
287.61	37.881
287.98	38.636
288.35	38.827
288.72	35.514
289.08	37.246
289.45	38.880
289.82	38.049
290.19	34.851
290.56	35.835
290.93	36.556
291.29	33.896
291.66	35.103
292.03	36.628
292.40	36.123
292.77	32.396
293.13	34.030
293.50	34.257
293.87	34.519
294.24	33.481
294.60	31.004
294.97	33.576
295.34	34.415
295.71	33.949
296.08	32.194
296.44	32.050
296.81	31.440
297.18	31.572
297.55	30.871
297.91	32.454
298.28	31.995
298.65	31.593
299.02	30.171
299.38	30.279
299.75	29.784
300.12	29.885
300.48	30.625
300.85	29.963
301.22	29.936
301.59	28.283
301.95	30.101
302.32	30.039
302.69	28.554
303.05	28.848
303.42	27.901
303.79	28.199
304.15	26.807
304.52	27.926
304.89	29.617
305.25	29.002
305.62	27.860
305.99	29.162
306.35	27.964
306.72	27.018
307.09	28.857
307.45	28.041
307.82	26.897
308.19	28.477
308.55	28.910
308.92	26.745
309.29	26.716
309.65	26.405
310.02	27.061
310.38	27.097
310.75	26.188
311.12	26.407
311.48	28.527
311.85	27.568
312.22	26.639
312.58	27.651
312.95	26.716
313.31	25.049
313.68	26.715
314.05	28.008
314.41	26.533
314.78	26.183
315.14	25.819
315.51	26.159
315.87	26.040
316.24	25.223
316.61	26.413
316.97	24.755
317.34	25.440
317.70	26.004
318.07	25.602
318.43	26.908
318.80	26.710
319.16	26.177
319.53	25.422
319.89	26.381
320.26	25.900
320.62	26.190
320.99	24.949
321.35	26.667
321.72	26.489
322.08	26.654
322.45	28.955
322.81	26.938
323.18	27.168
323.54	26.345
323.91	25.189
324.27	26.195
324.64	25.722
325.00	25.338
325.37	25.296
325.73	27.289
326.10	25.243
326.46	25.627
326.83	26.833
327.19	26.046
327.56	26.568
327.92	25.284
328.29	25.909
328.65	27.440
329.01	27.437
329.38	25.254
329.74	25.392
330.11	26.484
330.47	26.538
330.84	26.654
331.20	26.321
331.56	25.688
331.93	25.370
332.29	27.240
332.66	25.841
333.02	26.874
333.38	26.378
333.75	26.471
334.11	26.779
334.48	26.176
334.84	27.482
335.20	26.455
335.57	27.017
335.93	25.179
336.29	26.190
336.66	25.609
337.02	24.434
337.38	26.019
337.75	25.223
338.11	25.425
338.47	25.967
338.84	25.665
339.20	25.321
339.56	26.004
339.93	24.909
340.29	25.091
340.65	25.936
341.02	25.567
341.38	25.623
341.74	26.404
342.11	25.764
342.47	25.463
342.83	26.455
343.20	26.753
343.56	24.937
343.92	25.439
344.28	24.490
344.65	25.795
345.01	25.168
345.37	24.700
345.73	24.873
346.10	25.575
346.46	25.085
346.82	25.041
347.19	24.478
347.55	24.384
347.91	24.272
348.27	23.829
348.63	23.913
349.00	24.515
349.36	25.369
349.72	25.341
350.08	23.501
350.45	24.736
350.81	22.665
351.17	24.068
351.53	23.997
351.89	23.597
352.26	23.757
352.62	24.699
352.98	25.041
353.34	25.062
353.70	23.732
354.07	24.435
354.43	24.127
354.79	22.848
355.15	23.464
355.51	24.301
355.87	23.020
356.24	23.860
356.60	23.176
356.96	23.652
357.32	23.058
357.68	23.622
358.04	23.753
358.40	23.753
358.77	24.413
359.13	22.731
359.49	23.294
359.85	22.143
360.21	23.126
360.57	24.280
360.93	24.154
361.29	23.356
361.66	22.678
362.02	23.209
362.38	23.422
362.74	24.256
363.10	23.094
363.46	22.450
363.82	21.618
364.18	23.201
364.54	23.700
364.90	23.938
365.26	22.721
365.62	22.863
365.98	23.521
366.35	22.421
366.71	22.993
367.07	22.797
367.43	22.569
367.79	23.483
368.15	23.348
368.51	21.875
368.87	22.413
369.23	22.458
369.59	22.520
369.95	22.941
370.31	22.721
370.67	21.884
371.03	23.146
371.39	22.668
371.75	23.162
372.11	21.550
372.47	22.581
372.83	23.703
373.19	22.254
373.55	22.395
373.91	23.417
374.27	21.375
374.63	22.182
374.99	22.246
375.35	20.935
375.71	21.727
376.07	22.154
376.42	21.939
376.78	22.068
377.14	21.574
377.50	22.318
377.86	21.742
378.22	21.934
378.58	20.739
378.94	21.307
379.30	20.420
379.66	21.574
380.02	21.560
380.38	20.097
380.74	22.449
381.09	21.394
381.45	22.803
381.81	22.113
382.17	22.102
382.53	22.201
382.89	21.358
383.25	21.513
383.61	21.685
383.97	21.388
384.32	21.709
384.68	20.632
385.04	22.250
385.40	21.424
385.76	21.744
386.12	20.596
386.48	21.271
386.83	22.065
387.19	21.831
387.55	21.212
387.91	21.100
388.27	20.969
388.62	20.836
388.98	21.007
389.34	21.777
389.70	22.011
390.06	21.546
390.42	20.298
390.77	21.438
391.13	20.676
391.49	21.574
391.85	20.942
392.20	20.252
392.56	21.275
392.92	21.189
393.28	19.882
393.64	21.103
393.99	20.892
394.35	21.092
394.71	21.079
395.07	20.623
395.42	21.446
395.78	20.992
396.14	21.974
396.50	21.742
396.85	21.424
397.21	20.777
397.57	20.335
397.92	21.154
398.28	20.235
398.64	20.131
399.00	20.537
399.35	20.530
399.71	20.718
400.07	20.875
400.42	21.043
400.78	21.411
401.14	20.793
401.49	20.478
401.85	20.811
402.21	20.000
402.57	20.975
402.92	21.501
403.28	20.425
403.63	20.297
403.99	21.274
404.35	21.030
404.70	20.863
405.06	19.802
405.42	20.399
405.77	20.114
406.13	20.485
406.49	20.402
406.84	20.496
407.20	20.272
407.55	21.187
407.91	21.333
408.27	20.868
408.62	20.530
408.98	20.895
409.34	20.787
409.69	20.968
410.05	21.747
410.40	20.856
410.76	20.609
411.11	21.291
411.47	20.128
411.83	21.014
412.18	20.656
412.54	21.295
412.89	20.482
413.25	20.484
413.60	21.001
413.96	20.947
414.31	20.352
414.67	20.913
415.03	19.536
415.38	21.392
415.74	21.415
416.09	22.012
416.45	20.616
416.80	21.811
417.16	21.984
417.51	21.301
417.87	20.103
418.22	21.009
418.58	21.950
418.93	21.314
419.29	21.133
419.64	21.662
420.00	21.585
420.35	20.696
420.71	21.698
421.06	20.764
421.42	21.404
421.77	21.076
422.12	20.775
422.48	19.536
422.83	20.384
423.19	20.718
423.54	20.952
423.90	20.986
424.25	21.329
424.61	21.310
424.96	20.292
425.31	20.819
425.67	20.056
426.02	20.514
426.38	21.734
426.73	20.538
427.09	22.128
427.44	21.104
427.79	20.529
428.15	21.786
428.50	20.655
428.85	20.918
429.21	20.652
429.56	21.099
429.92	21.238
430.27	20.159
430.62	19.560
430.98	20.343
431.33	20.464
431.68	20.471
432.04	20.501
432.39	20.731
432.74	21.364
433.10	20.430
433.45	21.050
433.80	20.399
434.16	20.459
434.51	20.211
434.86	21.380
435.22	21.067
435.57	21.277
435.92	20.246
436.28	21.649
436.63	21.854
436.98	20.893
437.34	21.646
437.69	21.295
438.04	20.742
438.39	21.672
438.75	21.441
439.10	21.732
439.45	21.665
439.81	21.450
440.16	21.231
440.51	21.675
440.86	21.424
441.22	20.189
441.57	20.860
441.92	21.443
442.27	21.421
442.63	21.064
442.98	22.704
443.33	21.957
443.68	20.909
444.03	20.498
444.39	19.718
444.74	21.537
445.09	21.402
445.44	20.831
445.79	20.782
446.15	21.228
446.50	20.894
446.85	20.761
447.20	21.571
447.55	21.161
447.91	21.456
448.26	21.536
448.61	21.481
448.96	22.425
449.31	21.879
449.66	21.272
450.02	21.058
450.37	20.748
450.72	21.376
451.07	20.963
451.42	21.398
451.77	21.609
452.12	22.344
452.47	22.015
452.83	21.795
453.18	21.577
453.53	21.583
453.88	21.500
454.23	22.475
454.58	22.229
454.93	23.140
455.28	21.135
455.63	21.481
455.98	22.381
456.34	22.864
456.69	22.104
457.04	22.848
457.39	21.625
457.74	21.706
458.09	22.197
458.44	22.121
458.79	21.041
459.14	22.291
459.49	23.001
459.84	22.271
460.19	21.332
460.54	21.701
460.89	22.545
461.24	22.829
461.59	23.359
461.94	22.195
462.29	22.077
462.64	22.655
462.99	22.576
463.34	24.133
463.69	22.201
464.04	22.029
464.39	21.623
464.74	22.935
465.09	21.954
465.44	21.884
465.79	21.253
466.14	22.496
466.49	21.691
466.84	23.117
467.19	22.330
467.54	21.875
467.89	23.049
468.24	22.629
468.59	23.199
468.94	22.053
469.29	22.622
469.64	24.297
469.99	23.613
470.34	23.250
470.68	24.569
471.03	23.061
471.38	24.114
471.73	23.518
472.08	24.145
472.43	22.802
472.78	22.778
473.13	23.684
473.48	22.971
473.83	22.866
474.17	23.398
474.52	22.891
474.87	23.176
475.22	23.215
475.57	22.569
475.92	22.411
476.27	22.097
476.61	23.001
476.96	22.760
477.31	22.292
477.66	22.484
478.01	22.269
478.36	22.792
478.70	22.274
479.05	22.364
479.40	22.927
479.75	22.522
480.10	22.366
480.45	21.990
480.79	22.504
481.14	22.358
481.49	22.544
481.84	22.542
482.19	22.581
482.53	22.110
482.88	21.964
483.23	22.150
483.58	22.384
483.92	22.962
484.27	21.394
484.62	21.940
484.97	21.443
485.31	21.301
485.66	19.641
486.01	18.534
486.36	18.128
486.70	17.753
487.05	18.854
487.40	19.535
487.75	20.372
488.09	20.867
488.44	20.847
488.79	22.170
489.13	22.078
489.48	22.308
489.83	21.839
490.17	22.797
490.52	22.542
490.87	22.795
491.22	22.874
491.56	22.733
491.91	22.848
492.26	22.921
492.60	23.180
492.95	21.936
493.30	22.664
493.64	22.538
493.99	21.913
494.34	22.988
494.68	22.802
495.03	23.073
495.37	22.569
495.72	23.489
496.07	23.248
496.41	22.168
496.76	22.383
497.11	23.503
497.45	22.636
497.80	22.553
498.14	23.092
498.49	22.683
498.84	23.011
499.18	22.667
499.53	23.124
499.87	23.486
500.22	23.316
500.56	23.301
500.91	23.413
501.26	23.139
501.60	23.541
501.95	22.731
502.29	23.664
502.64	22.300
502.98	22.814
503.33	23.218
503.67	22.784
504.02	23.106
504.36	22.742
504.71	23.107
505.06	23.036
505.40	23.092
505.75	22.903
506.09	23.712
506.44	24.026
506.78	23.527
507.13	23.069
507.47	23.838
507.82	23.961
508.16	23.810
508.51	24.708
508.85	23.237
509.19	24.082
509.54	24.082
509.88	22.926
510.23	24.216
510.57	24.407
510.92	23.615
511.26	23.844
511.61	24.896
511.95	23.852
512.30	24.072
512.64	24.772
512.98	24.544
513.33	24.518
513.67	24.173
514.02	23.593
514.36	25.942
514.70	24.405
515.05	24.540
515.39	25.238
515.74	24.887
516.08	25.210
516.42	25.028
516.77	25.028
517.11	24.861
517.46	25.564
517.80	25.377
518.14	24.204
518.49	25.088
518.83	24.830
519.17	25.635
519.52	25.750
519.86	24.872
520.20	25.896
520.55	25.972
520.89	25.487
521.23	26.478
521.58	25.630
521.92	25.536
522.26	25.564
522.61	26.417
522.95	24.985
523.29	24.954
523.64	25.732
523.98	26.063
524.32	25.573
524.66	26.158
525.01	25.797
525.35	25.774
525.69	25.739
526.04	26.667
526.38	26.419
526.72	26.012
527.06	25.235
527.41	24.505
527.75	25.659
528.09	26.718
528.43	26.386
528.78	26.245
529.12	25.515
529.46	26.209
529.80	26.795
530.15	25.919
530.49	25.046
530.83	26.266
531.17	27.676
531.51	27.367
531.86	26.516
532.20	26.858
532.54	26.457
532.88	26.701
533.22	25.921
533.57	25.617
533.91	25.647
534.25	25.942
534.59	25.991
534.93	25.045
535.27	25.830
535.62	25.336
535.96	26.303
536.30	25.747
536.64	26.465
536.98	26.344
537.32	26.201
537.66	26.267
538.01	26.465
538.35	26.309
538.69	27.569
539.03	26.056
539.37	26.070
539.71	24.368
540.05	26.601
540.39	26.578
540.73	25.809
541.07	27.839
541.42	26.223
541.76	27.032
542.10	26.261
542.44	26.291
542.78	26.812
543.12	25.656
543.46	26.623
543.80	26.545
544.14	24.647
544.48	26.159
544.82	26.106
545.16	26.415
545.50	25.707
545.84	26.411
546.18	26.734
546.52	26.703
546.86	26.873
547.20	26.500
547.54	25.785
547.88	27.232
548.22	26.152
548.56	26.289
548.90	25.480
549.24	26.195
549.58	26.330
549.92	27.473
550.26	28.693
550.60	26.210
550.94	26.972
551.28	26.628
551.62	27.678
551.96	27.018
552.30	27.372
552.64	27.248
552.98	27.254
553.32	27.040
553.66	27.267
554.00	26.836
554.34	27.743
554.68	26.753
555.02	26.657
555.36	26.096
555.69	26.725
556.03	25.707
556.37	26.467
556.71	25.853
557.05	26.401
557.39	27.432
557.73	25.829
558.07	27.846
558.41	26.194
558.75	27.480
559.08	27.069
559.42	27.740
559.76	27.721
560.10	26.981
560.44	26.834
560.78	25.948
561.12	26.781
561.45	26.206
561.79	25.313
562.13	26.962
562.47	27.459
562.81	27.197
563.15	25.886
563.48	26.326
563.82	26.549
564.16	26.750
564.50	25.326
564.84	25.790
565.17	25.804
565.51	25.879
565.85	26.206
566.19	25.986
566.52	26.472
566.86	25.256
567.20	26.592
567.54	25.285
567.88	24.009
568.21	24.392
568.55	24.014
568.89	22.860
569.23	23.039
569.56	22.551
569.90	21.774
570.24	21.457
570.57	21.965
570.91	20.750
571.25	20.290
571.59	20.943
571.92	20.622
572.26	20.826
572.60	20.841
572.93	21.259
573.27	20.852
573.61	20.966
573.95	20.620
574.28	20.201
574.62	19.922
574.96	20.048
575.29	19.884
575.63	19.690
575.97	19.969
576.30	20.101
576.64	19.788
576.98	19.543
577.31	19.871
577.65	19.045
577.98	19.119
578.32	18.884
578.66	19.581
578.99	19.470
579.33	19.850
579.67	19.898
580.00	20.043
580.34	19.862
580.67	19.901
581.01	20.036
581.35	19.472
581.68	19.230
582.02	18.331
582.35	18.680
582.69	19.386
583.02	19.167
583.36	20.014
583.70	20.405
584.03	20.193
584.37	20.896
584.70	20.585
585.04	20.352
585.37	20.037
585.71	20.254
586.04	19.981
586.38	20.402
586.72	20.823
587.05	20.619
587.39	19.842
587.72	20.304
588.06	20.277
588.39	20.274
588.73	20.593
589.06	21.222
589.40	21.650
589.73	21.577
590.07	21.708
590.40	21.191
590.73	22.248
591.07	23.321
591.40	22.649
591.74	22.814
592.07	22.862
592.41	21.910
592.74	21.685
593.08	20.953
593.41	20.468
593.75	20.019
594.08	20.617
594.41	21.774
594.75	21.996
595.08	21.618
595.42	21.261
595.75	21.474
596.09	22.080
596.42	22.004
596.75	23.090
597.09	23.420
597.42	21.880
597.75	22.035
598.09	22.391
598.42	22.938
598.76	22.011
599.09	21.323
599.42	20.888
599.76	21.230
600.09	20.656
600.42	21.402
600.76	20.821
601.09	20.984
601.42	21.271
601.76	21.594
602.09	22.134
602.42	21.935
602.76	22.410
603.09	21.204
603.42	21.749
603.76	21.875
604.09	21.481
604.42	22.381
604.76	23.028
605.09	22.499
605.42	21.633
605.75	22.475
606.09	21.716
606.42	21.986
606.75	21.609
607.09	22.227
607.42	21.609
607.75	21.688
608.08	22.579
608.42	23.353
608.75	22.137
609.08	22.942
609.41	22.703
609.75	22.773
610.08	23.468
610.41	22.626
610.74	22.469
611.07	22.727
611.41	23.307
611.74	23.731
612.07	23.602
612.40	24.292
612.73	23.474
613.07	24.300
613.40	23.591
613.73	23.020
614.06	23.065
614.39	23.230
614.72	23.316
615.06	24.212
615.39	23.195
615.72	22.853
616.05	23.073
616.38	24.180
616.71	24.466
617.05	25.088
617.38	24.474
617.71	24.745
618.04	24.639
618.37	24.660
618.70	23.958
619.03	26.250
619.36	24.983
619.69	26.056
620.03	26.648
620.36	25.936
620.69	25.685
621.02	26.696
621.35	27.016
621.68	26.012
622.01	27.554
622.34	26.551
622.67	26.844
623.00	26.412
623.33	26.733
623.66	25.733
623.99	26.510
624.32	25.820
624.65	26.059
624.99	25.354
625.32	26.140
625.65	25.995
625.98	27.517
626.31	26.983
626.64	27.265
626.97	27.348
627.30	27.847
627.63	26.825
627.96	28.091
628.29	28.521
628.62	29.277
628.95	29.906
629.28	30.018
629.61	29.148
629.94	29.429
630.26	28.503
630.59	28.789
630.92	28.640
631.25	29.418
631.58	30.230
631.91	30.933
632.24	29.536
632.57	30.955
632.90	30.263
633.23	31.208
633.56	33.446
633.89	30.238
634.22	31.782
634.55	31.953
634.88	31.617
635.20	33.333
635.53	31.928
635.86	31.683
636.19	30.706
636.52	31.142
636.85	31.730
637.18	29.954
637.51	30.024
637.83	31.813
638.16	31.969
638.49	32.997
638.82	31.732
639.15	33.875
639.48	32.294
639.81	32.440
640.13	34.896
640.46	33.020
640.79	31.704
641.12	31.499
641.45	34.916
641.77	34.610
642.10	34.064
642.43	35.135
642.76	36.842
643.09	34.969
643.41	35.205
643.74	35.648
644.07	36.433
644.40	36.656
644.73	36.378
645.05	35.182
645.38	37.441
645.71	36.232
646.04	37.043
646.36	38.397
646.69	37.793
647.02	36.054
647.35	35.223
647.67	37.168
648.00	36.748
648.33	35.809
648.66	33.182
648.98	34.633
649.31	31.390
649.64	34.828
649.96	34.724
650.29	35.861
650.62	33.333
650.94	34.846
651.27	35.980
651.60	37.438
651.92	34.824
652.25	32.736
652.58	33.956
652.90	36.335
653.23	32.974
653.56	35.276
653.88	32.171
654.21	36.651
654.54	34.653
654.86	34.424
655.19	30.000
655.52	19.008
655.84	14.417
656.17	18.256
656.49	24.922
656.82	26.048
657.15	20.497
657.47	15.614
657.80	12.350
658.13	12.815
658.45	20.213
658.78	21.239
659.10	22.595
659.43	24.132
659.75	25.860
660.08	28.671
660.41	31.564
660.73	34.943
661.06	35.191
661.38	38.727
661.71	40.962
662.03	39.250
662.36	36.183
662.68	38.554
663.01	40.202
663.33	38.854
663.66	38.866
663.98	40.821
664.31	38.445
664.63	38.462
664.96	34.608
665.28	39.139
665.61	36.647
665.93	35.412
666.26	38.540
666.58	39.749
666.91	39.958
667.23	39.326
667.56	40.821
667.88	37.179
668.21	38.593
668.53	37.961
668.86	39.394
669.18	41.791
669.50	37.826
669.83	42.266
670.15	39.333
670.48	37.691
670.80	39.224
671.13	39.278
671.45	37.872
671.77	37.271
672.10	38.262
672.42	35.512
672.75	34.163
673.07	33.451
673.39	34.720
673.72	35.937
674.04	38.235
674.37	36.117
674.69	36.401
675.01	37.866
675.34	40.041
675.66	38.947
675.98	35.845
676.31	40.756
676.63	37.580
676.95	36.268
677.28	37.617
677.60	41.758
677.92	37.975
678.25	37.372
678.57	38.048
678.89	36.874
679.22	36.739
679.54	34.733
679.86	35.046
680.18	35.957
680.51	35.461
680.83	34.520
681.15	33.962
681.48	37.240
681.80	34.623
682.12	32.375
682.44	34.429
682.77	37.678
683.09	39.056
683.41	42.129
683.73	39.956
684.06	37.810
684.38	35.029
684.70	35.078
685.02	36.585
685.34	33.150
685.67	31.643
685.99	31.271
686.31	33.276
686.63	31.095
686.96	32.321
687.28	33.935
687.60	32.971
687.92	36.929
688.24	35.551
688.56	32.932
688.89	38.797
689.21	39.520
689.53	38.831
689.85	37.251
690.17	34.990
690.49	37.155
690.82	39.252
691.14	34.821
691.46	33.122
691.78	35.542
692.10	35.537
692.42	35.729
692.74	34.440
693.06	34.468
693.39	37.782
693.71	36.681
694.03	32.632
694.35	35.281
694.67	36.842
694.99	38.780
695.31	38.235
695.63	39.952
695.95	40.831
696.27	39.594
696.59	39.378
696.91	38.342
697.23	35.211
697.56	33.902
697.88	30.879
698.20	35.417
698.52	37.849
698.84	35.189
699.16	35.945
699.48	36.342
699.80	35.024
700.12	43.377
700.44	41.910
700.76	42.265
701.08	41.092
701.40	40.503
701.72	44.606
702.04	46.875
702.36	39.660
702.68	40.793
703.00	43.213
703.32	35.106
703.64	42.091
703.96	42.618
704.28	40.988
704.60	41.642
704.91	43.323
705.23	43.988
705.55	43.189
705.87	46.512
706.19	46.290
706.51	46.106
706.83	42.424
707.15	43.417
707.47	36.616
707.79	35.872
708.11	36.758
708.43	37.619
708.74	35.204
709.06	38.701
709.38	38.845
709.70	40.407
710.02	42.433
710.34	40.000
710.66	44.478
710.98	41.477
711.29	40.407
711.61	41.593
711.93	38.141
712.25	43.087
712.57	47.059
712.89	40.830
713.20	43.465
713.52	45.724
713.84	43.354
714.16	40.549
714.48	37.644
714.80	44.681
715.11	37.176
715.43	43.323
715.75	39.710
716.07	42.492
716.39	38.871
716.70	48.837
717.02	42.086
717.34	45.230
717.66	48.507
717.97	54.183
718.29	47.037
718.61	40.146
718.93	46.324
719.24	47.405
719.56	41.356
719.88	42.373
720.20	46.284
720.51	45.645
720.83	42.007
721.15	38.433
721.46	38.652
721.78	51.254
722.10	47.170
722.42	46.992
722.73	46.067
723.05	47.951
723.37	43.320
723.68	43.243
724.00	46.341
724.32	48.790
724.63	48.374
724.95	47.280
725.27	46.964
725.58	42.969
725.90	44.526
726.22	48.302
726.53	42.014
726.85	44.027
727.16	44.484
727.48	44.681
727.80	39.015
728.11	42.754
728.43	45.385
728.74	42.294
729.06	48.540
729.38	47.059
729.69	43.416
730.01	39.932
730.32	42.361
730.64	45.151
730.96	38.614
731.27	37.748
731.59	39.144
731.90	36.152
732.22	36.646
732.53	39.319
732.85	41.346
733.16	40.514
733.48	42.193
733.80	44.805
734.11	42.675
734.43	38.757
734.74	37.429
735.06	37.249
735.37	42.197
735.69	37.898
736.00	44.771
736.32	41.121
736.63	37.380
736.95	39.297
737.26	35.034
737.58	34.194
737.89	39.465
738.21	41.638
738.52	38.571
738.83	44.528
739.15	43.077
739.46	44.161
739.78	38.542
740.09	37.231
740.41	41.935
740.72	38.328
741.04	39.259
741.35	48.333
741.66	50.667
741.98	40.094
742.29	54.067
742.61	53.879
742.92	41.629
743.23	45.299
743.55	47.600
743.86	44.737
744.18	51.327
744.49	47.847
744.80	54.930
745.12	49.545
745.43	48.899
745.74	50.450
746.06	49.083
746.37	49.327
746.68	44.344
747.00	51.852
747.31	47.143
747.62	48.673
747.94	46.696
748.25	45.532
748.56	49.780
748.88	47.525
749.19	55.500
749.50	44.186
749.82	47.154
750.13	45.714
750.44	41.241
750.75	43.158
751.07	46.302
751.38	43.206
751.69	45.126
752.01	38.722
752.32	41.877
752.63	42.199
752.94	45.902
753.26	49.600
753.57	41.463
753.88	50.781
754.19	40.000
754.51	45.486
754.82	37.545
755.13	44.906
755.44	41.729
755.75	39.781
756.07	43.262
756.38	39.051
756.69	38.255
757.00	35.329
757.31	36.499
757.63	35.088
757.94	34.048
758.25	33.333
758.56	34.074
758.87	33.333
759.18	36.061
759.50	40.752
759.81	38.941
760.12	35.000
760.43	38.682
760.74	35.598
761.05	34.746
761.36	31.818
761.67	38.636
761.99	38.199
762.30	41.319
762.61	41.221
762.92	44.922
763.23	42.437
763.54	46.000
763.85	43.750
764.16	48.077
764.47	43.726
764.78	37.456
765.10	34.177
765.41	39.233
765.72	35.629
766.03	36.677
766.34	37.667
766.65	47.234
766.96	44.444
767.27	52.284
767.58	55.208
767.89	53.684
768.20	60.345
768.51	50.254
768.82	48.624
769.13	40.244
769.44	41.700
769.75	40.773
770.06	41.284
770.37	48.416
770.68	45.833
770.99	48.000
771.30	34.426
771.61	46.637
771.92	40.164
772.23	48.739
772.54	50.256
772.85	51.309
773.16	53.191
773.47	55.978
773.78	53.807
774.09	48.810
774.39	54.971
774.70	51.852
775.01	68.116
775.32	70.588
775.63	65.789
775.94	61.871
776.25	63.780
776.56	68.657
776.87	72.951
777.18	65.625
777.48	70.992
777.79	71.212
778.10	63.704
778.41	72.321
778.72	64.234
779.03	58.389
779.34	59.060
779.65	50.676
779.95	51.534
780.26	58.170
780.57	64.828
780.88	79.687
781.19	63.910
781.50	67.568
781.80	54.717
782.11	52.542
782.42	48.734
782.73	51.534
783.04	58.108
783.34	59.155
783.65	68.493
783.96	70.149
784.27	65.035
784.57	63.309
784.88	58.333
785.19	65.079
785.50	82.075
785.81	63.433
786.11	76.230
786.42	68.217
786.73	59.292
787.04	67.925
787.34	75.000
787.65	83.000
787.96	65.766
788.26	64.463
788.57	77.966
788.88	77.686
789.19	59.722
789.49	67.424
789.80	67.176
790.11	86.667
790.41	83.168
790.72	86.747
791.03	84.783
791.33	88.372
791.64	80.412
791.95	76.238
792.25	87.778
792.56	116.883
792.87	101.282
793.17	94.937
793.48	91.954
793.79	82.759
794.09	82.955
794.40	76.471
794.70	66.176
795.01	59.259
795.32	56.115
795.62	71.654
795.93	77.586
796.23	64.602
796.54	75.294
796.85	90.541
797.15	104.225
797.46	86.364
797.76	93.976
798.07	100.000
798.37	106.154
798.68	96.970
798.99	85.915
799.29	96.104
799.60	84.091
799.90	101.370
800.21	110.448
800.51	106.897
800.82	107.018
801.12	100.000
801.43	116.667
801.73	89.189
802.04	109.524
802.34	90.123
802.65	104.688
802.95	128.814
803.26	117.188
803.56	104.286
803.87	100.000
804.17	105.882
804.48	133.333
804.78	118.966
805.09	104.412
805.39	140.385
805.70	98.214
806.00	100.000
806.30	115.152
806.61	87.805
806.91	79.747
807.22	96.053
807.52	92.537
807.83	114.085
808.13	110.938
808.43	105.000
808.74	77.632
809.04	104.348
809.35	100.000
809.65	96.053
809.95	114.516
810.26	113.559
810.56	109.524
810.86	147.727
811.17	147.619
811.47	115.000
811.77	116.667
812.08	118.182
812.38	144.000
812.69	158.333
812.99	168.182
813.29	157.143
813.59	119.048
813.90	146.939
814.20	105.455
814.50	103.077
814.81	97.059
815.11	120.408
815.41	111.475
815.72	159.524
816.02	121.818
816.32	150.000
816.62	142.500
816.93	139.024
817.23	161.905
817.53	170.455
817.84	178.788
818.14	169.565
818.44	162.222
818.74	176.471
819.04	155.000
819.35	151.429
819.65	191.176
819.95	207.143
820.25	315.000
820.56	166.667
820.86	147.727
821.16	137.209
821.46	169.231
821.76	150.000
822.07	171.429
822.37	175.000
822.67	175.758
822.97	131.373
823.27	235.714
823.57	175.676
823.88	155.000
824.18	220.000
824.48	169.048
824.78	216.000
825.08	216.667
825.38	175.676
825.69	143.902
825.99	254.167
826.29	203.448
826.59	152.632
826.89	192.105
827.19	170.588
827.49	196.774
827.79	159.091
828.09	165.909
828.39	125.532
828.70	132.653
829.00	174.074
829.30	177.419
829.60	137.500
829.90	353.333
830.20	221.429
830.50	191.304
830.80	247.826
831.10	233.333
831.40	220.000
831.70	234.783
832.00	207.692
832.30	262.963
832.60	331.250
832.90	236.667
833.20	450.000
833.50	170.968
833.80	217.241
834.10	209.375
834.40	257.692
834.70	355.556
835.00	342.857
835.30	197.143
835.60	384.615
835.90	255.172
836.20	400.000
836.50	248.276
836.80	204.000
837.10	194.444
837.40	328.571
837.70	335.294
838.00	255.556
838.30	285.714
838.60	352.381
838.90	284.615
839.19	275.000
839.49	500.000
839.79	320.000
840.09	350.000
840.39	261.905
840.69	286.957
840.99	338.889
841.29	450.000
841.59	408.333
841.88	412.500
842.18	196.552
842.48	295.238
842.78	206.667
843.08	321.739
843.38	171.875
843.68	1066.667
843.97	223.077
844.27	210.345
844.57	304.762
844.87	375.000
845.17	218.519
845.47	1533.333
845.76	555.556
846.06	352.941
846.36	550.000
846.66	357.143
846.96	406.250
847.25	472.727
847.55	418.182
847.85	291.304
848.15	620.000
848.44	428.571
848.74	333.333
849.04	376.471
849.34	600.000
849.63	263.158
849.93	490.909
850.23	1120.000
850.53	485.714
850.82	2400.000
851.12	-5500.000
851.42	5100.000
851.71	270.000
852.01	-1500.000
852.31	241.667
852.61	1800.000
852.90	304.762
853.20	260.000
853.50	323.529
853.79	266.667
854.09	237.500
854.39	331.250
854.68	170.270
854.98	196.774
855.28	206.667
855.57	251.724
855.87	237.037
856.17	278.947
856.46	260.000
856.76	317.647
857.05	213.793
857.35	200.000
857.65	360.000
857.94	256.522
858.24	288.462
858.53	285.000
858.83	268.182
859.13	340.000
859.42	0.000
859.72	644.444
860.01	445.455
860.31	259.091
860.60	331.579
860.90	282.609
861.20	666.667
861.49	591.667
861.79	-5200.000
862.08	662.500
862.38	304.762
862.67	407.692
862.97	370.588
863.26	688.889
863.56	294.444
863.85	441.667
864.15	787.500
864.44	413.333
864.74	933.333
865.03	725.000
865.33	294.737
865.62	545.455
865.92	476.923
866.21	433.333
866.51	0.000
866.80	490.909
867.10	1280.000
867.39	476.923
867.69	500.000
867.98	289.474
868.27	518.182
868.57	321.053
868.86	-5100.000
869.16	400.000
869.45	2350.000
869.75	-5200.000
870.04	508.333
870.33	714.286
870.63	1275.000
870.92	2600.000
871.22	900.000
871.51	358.824
871.80	233.333
872.10	492.857
>>>>>End Processed Spectral Data<<<<<
