SpectraSuite Data File
++++++++++++++++++++++++++++++++++++
Date: Wed May 13 19:10:54 PDT 2015
User: schluterlab
Dark Spectrum Present: Yes
Reference Spectrum Present: Yes
Number of Sampled Component Spectra: 1
Spectrometers: USB2E3373
Integration Time (usec): 3000 (USB2E3373)
Spectra Averaged: 3 (USB2E3373)
Boxcar Smoothing: 0 (USB2E3373)
Correct for Electrical Dark: No (USB2E3373)
Strobe/Lamp Enabled: No (USB2E3373)
Correct for Detector Non-linearity: No (USB2E3373)
Correct for Stray Light: No (USB2E3373)
Number of Pixels in Processed Spectrum: 2048
>>>>>Begin Processed Spectral Data<<<<<
178.53	0.000
178.91	-1450.000
179.29	-1700.000
179.67	-244.444
180.04	-1500.000
180.42	2600.000
180.80	1180.000
181.18	-1175.000
181.56	757.143
181.94	0.000
182.31	-728.571
182.69	1866.667
183.07	-750.000
183.45	-666.667
183.83	609.091
184.20	-590.000
184.58	2250.000
184.96	5800.000
185.34	-960.000
185.72	-687.500
186.09	-2600.000
186.47	2850.000
186.85	2650.000
187.23	5500.000
187.61	-2100.000
187.98	1600.000
188.36	545.455
188.74	654.545
189.12	-1100.000
189.49	640.000
189.87	-4800.000
190.25	-1475.000
190.63	385.714
191.00	492.308
191.38	916.667
191.76	-1550.000
192.14	1650.000
192.51	712.500
192.89	1100.000
193.27	750.000
193.65	-1500.000
194.02	570.000
194.40	1000.000
194.78	600.000
195.15	600.000
195.53	690.000
195.91	-2250.000
196.29	468.750
196.66	310.526
197.04	-440.000
197.42	0.000
197.79	630.000
198.17	-5400.000
198.55	800.000
198.92	837.500
199.30	1060.000
199.68	0.000
200.05	388.889
200.43	885.714
200.81	5000.000
201.18	2133.333
201.56	-1966.667
201.94	622.222
202.31	688.889
202.69	508.333
203.07	600.000
203.44	0.000
203.82	1725.000
204.19	857.143
204.57	500.000
204.95	762.500
205.32	1900.000
205.70	618.182
206.08	414.286
206.45	3200.000
206.83	425.000
207.20	1033.333
207.58	1180.000
207.96	383.333
208.33	750.000
208.71	-933.333
209.08	957.143
209.46	788.889
209.84	536.364
210.21	-1566.667
210.59	1825.000
210.96	-575.000
211.34	2850.000
211.71	740.000
212.09	933.333
212.46	0.000
212.84	1733.333
213.22	1550.000
213.59	-5900.000
213.97	1000.000
214.34	928.571
214.72	645.455
215.09	1200.000
215.47	-2700.000
215.84	-2350.000
216.22	1866.667
216.59	478.571
216.97	1500.000
217.34	554.545
217.72	-1000.000
218.09	0.000
218.47	-5600.000
218.84	777.778
219.22	900.000
219.59	1966.667
219.97	-742.857
220.34	1100.000
220.72	-1966.667
221.09	492.857
221.47	1825.000
221.84	-1016.667
222.22	0.000
222.59	1625.000
222.97	-2650.000
223.34	1280.000
223.72	461.538
224.09	1060.000
224.46	3050.000
224.84	-6200.000
225.21	-1020.000
225.59	-5800.000
225.96	670.000
226.34	365.000
226.71	3100.000
227.08	762.500
227.46	680.000
227.83	-1150.000
228.21	-2800.000
228.58	755.556
228.95	-2450.000
229.33	-2550.000
229.70	2033.333
230.08	857.143
230.45	-880.000
230.82	416.667
231.20	916.667
231.57	885.714
231.95	483.333
232.32	309.091
232.69	481.818
233.07	785.714
233.44	476.923
233.81	-1733.333
234.19	357.895
234.56	550.000
234.93	400.000
235.31	481.818
235.68	369.231
236.05	428.571
236.43	196.970
236.80	300.000
237.17	5300.000
237.55	247.619
237.92	225.000
238.29	285.714
238.67	212.903
239.04	231.034
239.41	177.778
239.79	141.304
240.16	140.476
240.53	140.909
240.91	137.255
241.28	140.000
241.65	130.000
242.02	115.942
242.40	93.548
242.77	110.000
243.14	87.097
243.51	89.888
243.89	80.000
244.26	68.889
244.63	64.516
245.00	79.787
245.38	69.307
245.75	65.421
246.12	62.385
246.49	66.423
246.87	56.000
247.24	63.846
247.61	58.571
247.98	53.595
248.36	50.676
248.73	45.223
249.10	50.955
249.47	49.718
249.84	44.385
250.22	45.455
250.59	43.787
250.96	42.424
251.33	44.550
251.70	43.564
252.08	37.619
252.45	38.565
252.82	37.391
253.19	42.553
253.56	37.647
253.94	43.154
254.31	37.891
254.68	36.154
255.05	35.055
255.42	34.553
255.79	40.441
256.16	36.823
256.54	33.569
256.91	33.808
257.28	31.295
257.65	35.314
258.02	34.783
258.39	31.546
258.76	31.438
259.14	31.548
259.51	30.091
259.88	28.261
260.25	33.233
260.62	32.081
260.99	30.124
261.36	31.832
261.73	33.238
262.10	30.523
262.47	29.577
262.85	28.969
263.22	27.350
263.59	30.199
263.96	28.297
264.33	29.765
264.70	31.316
265.07	28.900
265.44	28.788
265.81	25.061
266.18	25.879
266.55	27.073
266.92	31.450
267.29	28.241
267.66	29.587
268.03	27.045
268.40	28.972
268.77	26.253
269.14	27.252
269.51	27.314
269.88	27.972
270.25	27.314
270.62	28.539
270.99	27.527
271.36	28.112
271.73	25.935
272.10	23.478
272.47	27.742
272.84	25.758
273.21	26.834
273.58	24.672
273.95	26.205
274.32	26.240
274.69	26.981
275.06	24.606
275.43	25.532
275.80	26.052
276.17	25.051
276.54	26.819
276.91	24.308
277.28	22.852
277.65	25.145
278.02	23.395
278.39	25.391
278.76	22.909
279.13	23.585
279.50	23.277
279.87	24.502
280.23	22.954
280.60	22.050
280.97	23.660
281.34	22.832
281.71	24.000
282.08	24.568
282.45	23.091
282.82	24.512
283.19	21.925
283.56	23.509
283.92	23.519
284.29	22.575
284.66	21.416
285.03	20.615
285.40	22.183
285.77	19.865
286.14	20.898
286.51	23.000
286.87	22.564
287.24	22.476
287.61	20.706
287.98	20.942
288.35	19.968
288.72	20.249
289.08	22.535
289.45	19.769
289.82	20.325
290.19	19.466
290.56	20.827
290.93	20.393
291.29	18.712
291.66	19.617
292.03	22.820
292.40	22.320
292.77	19.083
293.13	19.104
293.50	18.659
293.87	18.519
294.24	18.667
294.60	19.068
294.97	18.314
295.34	19.887
295.71	18.608
296.08	18.519
296.44	18.294
296.81	17.305
297.18	18.564
297.55	16.755
297.91	17.282
298.28	19.946
298.65	18.407
299.02	17.128
299.38	16.733
299.75	15.499
300.12	16.347
300.48	17.000
300.85	17.139
301.22	17.580
301.59	15.657
301.95	17.380
302.32	15.661
302.69	17.563
303.05	15.273
303.42	17.654
303.79	15.629
304.15	14.918
304.52	13.789
304.89	15.215
305.25	17.285
305.62	15.515
305.99	16.765
306.35	15.660
306.72	15.135
307.09	15.760
307.45	17.342
307.82	13.393
308.19	16.336
308.55	16.505
308.92	15.682
309.29	14.572
309.65	15.376
310.02	15.751
310.38	16.344
310.75	15.523
311.12	15.967
311.48	16.092
311.85	17.191
312.22	16.857
312.58	15.177
312.95	15.523
313.31	16.117
313.68	16.008
314.05	17.751
314.41	15.779
314.78	16.616
315.14	16.683
315.51	18.229
315.87	17.624
316.24	17.180
316.61	18.031
316.97	17.221
317.34	17.319
317.70	17.495
318.07	17.998
318.43	17.319
318.80	19.213
319.16	20.245
319.53	19.325
319.89	20.476
320.26	21.300
320.62	20.833
320.99	21.212
321.35	20.303
321.72	21.355
322.08	23.001
322.45	23.980
322.81	23.740
323.18	23.603
323.54	23.655
323.91	23.302
324.27	24.570
324.64	23.765
325.00	23.895
325.37	25.478
325.73	27.199
326.10	25.419
326.46	27.867
326.83	27.869
327.19	27.669
327.56	27.613
327.92	28.609
328.29	29.547
328.65	29.466
329.01	29.242
329.38	29.047
329.74	28.809
330.11	30.631
330.47	30.579
330.84	32.077
331.20	30.237
331.56	30.367
331.93	31.481
332.29	29.902
332.66	31.593
333.02	30.256
333.38	30.533
333.75	31.729
334.11	31.139
334.48	31.322
334.84	31.618
335.20	31.000
335.57	31.369
335.93	30.446
336.29	30.861
336.66	31.470
337.02	31.131
337.38	31.389
337.75	30.392
338.11	30.976
338.47	31.860
338.84	32.356
339.20	31.743
339.56	32.847
339.93	31.000
340.29	30.978
340.65	32.353
341.02	32.199
341.38	31.762
341.74	31.842
342.11	32.489
342.47	32.070
342.83	31.079
343.20	32.121
343.56	30.834
343.92	30.614
344.28	31.207
344.65	31.728
345.01	30.892
345.37	31.732
345.73	31.810
346.10	31.543
346.46	32.288
346.82	31.549
347.19	31.495
347.55	32.102
347.91	32.120
348.27	31.553
348.63	31.355
349.00	31.877
349.36	31.691
349.72	30.794
350.08	31.605
350.45	31.814
350.81	32.088
351.17	31.767
351.53	31.204
351.89	30.776
352.26	31.413
352.62	31.917
352.98	31.442
353.34	32.210
353.70	31.342
354.07	31.613
354.43	30.635
354.79	30.893
355.15	32.642
355.51	32.774
355.87	31.918
356.24	31.352
356.60	31.836
356.96	32.824
357.32	31.398
357.68	31.102
358.04	31.750
358.40	32.067
358.77	32.473
359.13	31.965
359.49	32.392
359.85	31.508
360.21	31.818
360.57	32.918
360.93	32.538
361.29	32.200
361.66	33.050
362.02	31.269
362.38	32.471
362.74	32.068
363.10	31.754
363.46	30.961
363.82	33.107
364.18	33.333
364.54	33.878
364.90	32.153
365.26	31.838
365.62	33.674
365.98	33.017
366.35	31.590
366.71	31.670
367.07	32.993
367.43	34.253
367.79	34.475
368.15	33.621
368.51	33.939
368.87	33.976
369.23	32.480
369.59	34.830
369.95	33.529
370.31	33.832
370.67	33.696
371.03	35.431
371.39	35.277
371.75	33.529
372.11	33.713
372.47	35.044
372.83	36.239
373.19	34.104
373.55	35.551
373.91	36.598
374.27	34.158
374.63	34.473
374.99	35.452
375.35	34.822
375.71	34.681
376.07	36.008
376.42	35.488
376.78	36.117
377.14	36.703
377.50	35.563
377.86	35.705
378.22	36.536
378.58	34.524
378.94	35.701
379.30	36.896
379.66	35.914
380.02	37.039
380.38	35.944
380.74	35.714
381.09	37.042
381.45	37.554
381.81	37.101
382.17	37.707
382.53	37.610
382.89	37.654
383.25	37.961
383.61	37.980
383.97	37.273
384.32	37.991
384.68	38.166
385.04	36.939
385.40	37.276
385.76	38.206
386.12	39.249
386.48	39.773
386.83	39.256
387.19	39.518
387.55	39.023
387.91	39.299
388.27	39.301
388.62	40.320
388.98	39.066
389.34	39.174
389.70	40.221
390.06	41.255
390.42	40.208
390.77	39.186
391.13	39.949
391.49	39.975
391.85	40.420
392.20	38.991
392.56	40.467
392.92	39.906
393.28	39.231
393.64	40.228
393.99	41.356
394.35	40.323
394.71	40.276
395.07	40.561
395.42	41.224
395.78	40.585
396.14	41.092
396.50	41.917
396.85	42.276
397.21	41.492
397.57	41.662
397.92	41.406
398.28	39.686
398.64	40.920
399.00	40.963
399.35	40.666
399.71	41.782
400.07	41.041
400.42	40.982
400.78	41.616
401.14	41.890
401.49	42.090
401.85	41.682
402.21	41.497
402.57	42.011
402.92	41.551
403.28	42.723
403.63	42.884
403.99	42.102
404.35	42.182
404.70	41.187
405.06	41.409
405.42	42.358
405.77	42.343
406.13	40.914
406.49	41.810
406.84	42.705
407.20	41.667
407.55	42.629
407.91	42.667
408.27	42.055
408.62	43.227
408.98	42.770
409.34	42.497
409.69	42.258
410.05	42.999
410.40	42.936
410.76	42.294
411.11	41.858
411.47	42.045
411.83	42.944
412.18	41.064
412.54	42.715
412.89	41.687
413.25	42.444
413.60	43.298
413.96	41.591
414.31	42.588
414.67	43.409
415.03	43.709
415.38	44.008
415.74	43.473
416.09	43.697
416.45	42.704
416.80	42.498
417.16	44.973
417.51	44.194
417.87	43.288
418.22	44.164
418.58	44.158
418.93	43.796
419.29	43.603
419.64	43.640
420.00	42.927
420.35	42.609
420.71	43.455
421.06	42.601
421.42	43.099
421.77	43.274
422.12	42.448
422.48	42.580
422.83	42.341
423.19	42.928
423.54	43.529
423.90	42.899
424.25	43.049
424.61	41.488
424.96	43.732
425.31	43.300
425.67	41.910
426.02	42.114
426.38	43.101
426.73	43.183
427.09	42.675
427.44	41.633
427.79	42.956
428.15	44.107
428.50	42.422
428.85	43.683
429.21	43.788
429.56	41.991
429.92	42.275
430.27	42.254
430.62	41.935
430.98	42.501
431.33	41.701
431.68	42.618
432.04	42.332
432.39	42.604
432.74	42.549
433.10	44.029
433.45	43.265
433.80	42.849
434.16	42.254
434.51	42.263
434.86	43.615
435.22	43.024
435.57	43.222
435.92	42.130
436.28	43.891
436.63	42.826
436.98	42.244
437.34	43.948
437.69	43.699
438.04	43.395
438.39	43.522
438.75	43.173
439.10	42.179
439.45	41.913
439.81	43.444
440.16	42.349
440.51	42.882
440.86	42.675
441.22	42.714
441.57	41.773
441.92	42.886
442.27	43.272
442.63	42.233
442.98	44.113
443.33	42.283
443.68	42.024
444.03	42.362
444.39	41.383
444.74	42.965
445.09	42.264
445.44	42.810
445.79	43.246
446.15	40.974
446.50	42.003
446.85	41.727
447.20	42.325
447.55	42.714
447.91	42.967
448.26	42.460
448.61	42.058
448.96	43.245
449.31	42.576
449.66	42.712
450.02	41.950
450.37	41.100
450.72	42.414
451.07	41.804
451.42	42.188
451.77	42.631
452.12	41.166
452.47	42.973
452.83	42.075
453.18	41.626
453.53	42.424
453.88	41.819
454.23	41.721
454.58	42.520
454.93	43.611
455.28	41.584
455.63	42.900
455.98	42.917
456.34	42.023
456.69	41.703
457.04	43.158
457.39	41.905
457.74	41.613
458.09	41.116
458.44	41.334
458.79	40.130
459.14	40.519
459.49	41.681
459.84	40.720
460.19	41.308
460.54	40.683
460.89	40.867
461.24	42.562
461.59	42.359
461.94	40.012
462.29	42.136
462.64	40.906
462.99	40.794
463.34	42.133
463.69	41.714
464.04	41.043
464.39	40.232
464.74	41.117
465.09	40.470
465.44	40.166
465.79	39.765
466.14	39.956
466.49	39.600
466.84	40.105
467.19	40.374
467.54	40.812
467.89	39.256
468.24	39.791
468.59	40.232
468.94	40.134
469.29	40.681
469.64	40.696
469.99	41.001
470.34	40.291
470.68	40.302
471.03	40.204
471.38	40.723
471.73	39.640
472.08	40.526
472.43	38.505
472.78	40.224
473.13	40.180
473.48	40.075
473.83	40.610
474.17	38.395
474.52	40.261
474.87	40.339
475.22	38.247
475.57	38.366
475.92	38.290
476.27	37.937
476.61	39.162
476.96	39.087
477.31	37.677
477.66	38.129
478.01	38.840
478.36	37.811
478.70	38.370
479.05	38.658
479.40	37.666
479.75	37.417
480.10	37.227
480.45	37.411
480.79	36.168
481.14	37.182
481.49	37.636
481.84	37.677
482.19	37.256
482.53	37.018
482.88	36.622
483.23	37.243
483.58	38.035
483.92	37.113
484.27	35.251
484.62	36.078
484.97	35.041
485.31	36.199
485.66	34.907
486.01	33.475
486.36	32.307
486.70	32.028
487.05	32.995
487.40	33.248
487.75	34.173
488.09	33.819
488.44	33.622
488.79	35.118
489.13	35.332
489.48	35.767
489.83	34.959
490.17	35.204
490.52	35.651
490.87	35.730
491.22	34.607
491.56	34.624
491.91	35.738
492.26	34.727
492.60	33.779
492.95	34.331
493.30	34.579
493.64	34.298
493.99	34.958
494.34	34.135
494.68	35.668
495.03	35.056
495.37	33.411
495.72	34.162
496.07	34.942
496.41	32.876
496.76	34.037
497.11	33.093
497.45	33.675
497.80	33.253
498.14	33.237
498.49	33.512
498.84	32.886
499.18	33.429
499.53	33.286
499.87	33.411
500.22	32.548
500.56	33.058
500.91	32.933
501.26	32.859
501.60	33.365
501.95	32.218
502.29	32.849
502.64	32.821
502.98	31.650
503.33	32.176
503.67	31.879
504.02	32.367
504.36	32.288
504.71	32.926
505.06	32.096
505.40	31.842
505.75	31.196
506.09	32.070
506.44	32.708
506.78	31.661
507.13	32.004
507.47	32.222
507.82	32.118
508.16	31.864
508.51	32.166
508.85	31.778
509.19	32.398
509.54	31.480
509.88	31.633
510.23	30.951
510.57	33.075
510.92	31.952
511.26	31.706
511.61	31.328
511.95	31.263
512.30	31.283
512.64	31.166
512.98	31.136
513.33	31.745
513.67	30.309
514.02	30.574
514.36	31.622
514.70	31.544
515.05	31.065
515.39	30.398
515.74	30.687
516.08	30.967
516.42	30.633
516.77	31.550
517.11	30.522
517.46	30.982
517.80	31.010
518.14	29.763
518.49	30.863
518.83	30.739
519.17	30.485
519.52	30.221
519.86	30.918
520.20	31.040
520.55	30.521
520.89	30.353
521.23	31.242
521.58	30.012
521.92	30.496
522.26	29.347
522.61	30.218
522.95	29.957
523.29	30.371
523.64	30.427
523.98	30.437
524.32	29.373
524.66	30.307
525.01	29.841
525.35	30.669
525.69	29.618
526.04	29.346
526.38	29.225
526.72	29.264
527.06	30.885
527.41	28.403
527.75	30.482
528.09	30.764
528.43	29.446
528.78	29.932
529.12	29.394
529.46	29.516
529.80	29.455
530.15	29.408
530.49	28.062
530.83	28.608
531.17	29.243
531.51	30.545
531.86	29.226
532.20	29.465
532.54	29.276
532.88	28.691
533.22	29.669
533.57	28.025
533.91	27.935
534.25	27.582
534.59	28.676
534.93	27.484
535.27	28.304
535.62	28.144
535.96	29.316
536.30	28.671
536.64	28.268
536.98	29.064
537.32	27.321
537.66	28.067
538.01	28.111
538.35	28.054
538.69	28.717
539.03	26.966
539.37	27.476
539.71	27.609
540.05	27.320
540.39	27.309
540.73	26.973
541.07	28.812
541.42	27.789
541.76	28.258
542.10	27.361
542.44	27.616
542.78	28.458
543.12	27.447
543.46	27.541
543.80	27.196
544.14	26.059
544.48	26.603
544.82	26.684
545.16	26.805
545.50	26.221
545.84	27.688
546.18	26.532
546.52	27.392
546.86	26.804
547.20	27.714
547.54	26.987
547.88	26.913
548.22	26.214
548.56	27.107
548.90	25.992
549.24	26.667
549.58	26.330
549.92	27.404
550.26	27.202
550.60	26.694
550.94	26.197
551.28	26.262
551.62	26.887
551.96	26.807
552.30	25.324
552.64	26.978
552.98	26.644
553.32	26.433
553.66	26.380
554.00	26.356
554.34	26.432
554.68	26.824
555.02	26.587
555.36	24.983
555.69	25.372
556.03	25.437
556.37	26.739
556.71	24.693
557.05	26.120
557.39	26.102
557.73	26.958
558.07	25.816
558.41	25.832
558.75	27.333
559.08	25.578
559.42	26.153
559.76	26.103
560.10	25.268
560.44	26.136
560.78	24.351
561.12	24.868
561.45	25.228
561.79	24.588
562.13	25.017
562.47	25.888
562.81	26.081
563.15	24.214
563.48	25.531
563.82	23.940
564.16	24.722
564.50	24.219
564.84	23.515
565.17	25.097
565.51	24.856
565.85	23.858
566.19	23.669
566.52	24.509
566.86	24.051
567.20	23.703
567.54	23.516
567.88	23.411
568.21	23.333
568.55	23.357
568.89	21.839
569.23	22.326
569.56	21.498
569.90	21.774
570.24	21.493
570.57	21.285
570.91	20.847
571.25	21.340
571.59	20.913
571.92	20.795
572.26	20.797
572.60	21.021
572.93	21.079
573.27	20.970
573.61	21.050
573.95	20.310
574.28	20.176
574.62	20.141
574.96	20.430
575.29	20.078
575.63	20.097
575.97	20.359
576.30	20.473
576.64	20.293
576.98	20.224
577.31	19.570
577.65	19.826
577.98	19.481
578.32	19.500
578.66	19.832
578.99	19.927
579.33	19.680
579.67	19.460
580.00	19.588
580.34	19.862
580.67	19.759
581.01	19.496
581.35	19.329
581.68	19.063
582.02	19.048
582.35	18.897
582.69	18.931
583.02	18.916
583.36	19.691
583.70	19.855
584.03	19.958
584.37	19.552
584.70	19.514
585.04	19.398
585.37	19.804
585.71	19.549
586.04	19.473
586.38	19.671
586.72	20.381
587.05	19.180
587.39	19.340
587.72	19.351
588.06	19.157
588.39	19.643
588.73	19.713
589.06	19.850
589.40	20.741
589.73	20.099
590.07	20.000
590.40	19.912
590.73	20.297
591.07	21.205
591.40	20.962
591.74	21.558
592.07	20.157
592.41	19.802
592.74	19.888
593.08	19.753
593.41	19.709
593.75	18.894
594.08	19.444
594.41	19.972
594.75	19.704
595.08	20.079
595.42	19.965
595.75	19.872
596.09	20.090
596.42	20.314
596.75	20.684
597.09	20.606
597.42	19.772
597.75	20.655
598.09	20.087
598.42	20.146
598.76	19.538
599.09	19.536
599.42	19.214
599.76	19.290
600.09	19.417
600.42	19.065
600.76	19.143
601.09	19.199
601.42	19.254
601.76	19.848
602.09	19.842
602.42	19.666
602.76	19.710
603.09	19.866
603.42	19.563
603.76	19.169
604.09	19.775
604.42	19.731
604.76	20.329
605.09	19.616
605.42	19.538
605.75	19.536
606.09	19.235
606.42	19.575
606.75	19.701
607.09	19.506
607.42	19.598
607.75	18.186
608.08	19.062
608.42	19.767
608.75	19.477
609.08	20.074
609.41	19.848
609.75	19.771
610.08	19.557
610.41	19.181
610.74	19.347
611.07	20.059
611.41	19.971
611.74	20.010
612.07	20.186
612.40	19.832
612.73	19.632
613.07	20.043
613.40	20.221
613.73	19.507
614.06	20.269
614.39	20.556
614.72	20.000
615.06	19.853
615.39	19.055
615.72	19.070
616.05	19.458
616.38	20.011
616.71	20.843
617.05	20.848
617.38	19.423
617.71	20.180
618.04	20.373
618.37	20.106
618.70	19.975
619.03	21.382
619.36	20.434
619.69	21.056
620.03	21.703
620.36	21.257
620.69	21.438
621.02	22.271
621.35	21.222
621.68	21.184
622.01	21.285
622.34	21.256
622.67	21.825
623.00	20.910
623.33	21.015
623.66	21.229
623.99	20.839
624.32	20.899
624.65	21.116
624.99	20.751
625.32	21.289
625.65	21.563
625.98	21.445
626.31	21.695
626.64	22.612
626.97	21.779
627.30	20.366
627.63	22.477
627.96	23.297
628.29	22.572
628.62	23.239
628.95	24.340
629.28	21.807
629.61	22.915
629.94	21.810
630.26	21.830
630.59	21.449
630.92	21.552
631.25	21.224
631.58	22.022
631.91	23.124
632.24	21.730
632.57	23.820
632.90	21.930
633.23	24.385
633.56	23.842
633.89	23.896
634.22	23.950
634.55	25.562
634.88	23.114
635.20	24.134
635.53	24.819
635.86	22.649
636.19	22.824
636.52	22.491
636.85	22.795
637.18	21.774
637.51	23.877
637.83	22.441
638.16	23.529
638.49	23.300
638.82	25.158
639.15	24.875
639.48	24.564
639.81	26.676
640.13	25.000
640.46	25.772
640.79	25.231
641.12	24.072
641.45	24.302
641.77	26.951
642.10	23.977
642.43	24.024
642.76	24.923
643.09	24.693
643.41	24.279
643.74	26.389
644.07	27.591
644.40	25.460
644.73	27.402
645.05	28.843
645.38	25.750
645.71	25.926
646.04	27.076
646.36	29.215
646.69	28.261
647.02	26.020
647.35	25.773
647.67	26.549
648.00	26.667
648.33	26.073
648.66	26.364
648.98	25.787
649.31	22.272
649.64	24.514
649.96	25.484
650.29	25.434
650.62	25.890
650.94	27.066
651.27	27.196
651.60	26.955
651.92	26.997
652.25	25.244
652.58	26.636
652.90	25.750
653.23	24.653
653.56	25.354
653.88	27.258
654.21	26.224
654.54	25.908
654.86	26.324
655.19	24.324
655.52	14.644
655.84	12.843
656.17	16.583
656.49	22.461
656.82	22.874
657.15	17.486
657.47	12.822
657.80	10.120
658.13	10.412
658.45	15.616
658.78	15.858
659.10	16.570
659.43	17.563
659.75	18.222
660.08	19.747
660.41	23.836
660.73	25.413
661.06	25.955
661.38	29.091
661.71	28.462
662.03	28.994
662.36	27.038
662.68	30.321
663.01	28.081
663.33	25.690
663.66	26.261
663.98	26.782
664.31	27.521
664.63	27.126
664.96	27.565
665.28	29.303
665.61	23.977
665.93	27.565
666.26	25.963
666.58	28.033
666.91	29.387
667.23	30.787
667.56	29.374
667.88	26.709
668.21	27.505
668.53	26.898
668.86	29.004
669.18	28.358
669.50	29.348
669.83	29.412
670.15	29.778
670.48	26.580
670.80	29.741
671.13	28.875
671.45	27.447
671.77	27.902
672.10	27.357
672.42	26.148
672.75	26.036
673.07	24.120
673.39	25.136
673.72	26.172
674.04	26.863
674.37	26.408
674.69	25.971
675.01	27.615
675.34	29.774
675.66	28.211
675.98	26.069
676.31	29.622
676.63	28.662
676.95	28.092
677.28	28.271
677.60	25.934
677.92	27.004
678.25	29.979
678.57	27.092
678.89	26.052
679.22	26.130
679.54	27.481
679.86	27.890
680.18	27.728
680.51	26.596
680.83	25.979
681.15	28.113
681.48	26.843
681.80	26.306
682.12	26.437
682.44	25.725
682.77	28.310
683.09	30.687
683.41	27.938
683.73	26.711
684.06	28.099
684.38	24.658
684.70	26.163
685.02	26.454
685.34	27.289
685.67	23.601
685.99	24.742
686.31	23.891
686.63	23.498
686.96	26.250
687.28	27.437
687.60	25.725
687.92	27.422
688.24	24.144
688.56	27.711
688.89	27.593
689.21	30.786
689.53	29.228
689.85	29.047
690.17	28.157
690.49	27.601
690.82	27.103
691.14	29.464
691.46	24.895
691.78	27.108
692.10	28.099
692.42	27.146
692.74	23.859
693.06	26.596
693.39	26.489
693.71	28.603
694.03	27.368
694.35	26.190
694.67	28.375
694.99	29.024
695.31	28.186
695.63	29.187
695.95	29.095
696.27	25.888
696.59	30.311
696.91	28.238
697.23	25.352
697.56	30.277
697.88	25.767
698.20	26.458
698.52	26.237
698.84	25.835
699.16	27.650
699.48	27.791
699.80	29.227
700.12	32.468
700.44	30.504
700.76	30.110
701.08	34.483
701.40	29.330
701.72	35.569
702.04	34.943
702.36	30.595
702.68	31.728
703.00	30.194
703.32	30.851
703.64	31.367
703.96	30.641
704.28	28.488
704.60	33.138
704.91	33.531
705.23	33.138
705.55	33.887
705.87	39.203
706.19	34.276
706.51	33.645
706.83	32.121
707.15	32.493
707.47	28.030
707.79	29.975
708.11	29.909
708.43	28.333
708.74	27.296
709.06	33.506
709.38	28.084
709.70	34.012
710.02	32.641
710.34	30.000
710.66	33.134
710.98	32.386
711.29	29.070
711.61	34.513
711.93	31.731
712.25	36.013
712.57	30.147
712.89	33.910
713.20	33.739
713.52	34.539
713.84	33.228
714.16	32.927
714.48	31.897
714.80	34.347
715.11	31.412
715.43	32.344
715.75	33.043
716.07	34.185
716.39	32.602
716.70	35.216
717.02	38.129
717.34	33.569
717.66	39.179
717.97	42.231
718.29	34.815
718.61	34.672
718.93	38.235
719.24	35.640
719.56	30.847
719.88	35.254
720.20	35.473
720.51	35.889
720.83	39.033
721.15	33.582
721.46	36.170
721.78	38.710
722.10	40.000
722.42	39.474
722.73	35.955
723.05	34.836
723.37	38.462
723.68	35.135
724.00	34.146
724.32	41.532
724.63	38.618
724.95	38.912
725.27	42.915
725.58	38.672
725.90	38.321
726.22	40.755
726.53	34.722
726.85	35.836
727.16	33.808
727.48	32.624
727.80	37.121
728.11	36.957
728.43	36.538
728.74	37.276
729.06	39.416
729.38	37.500
729.69	34.520
730.01	33.106
730.32	37.153
730.64	34.448
730.96	36.304
731.27	33.775
731.59	34.557
731.90	33.236
732.22	30.124
732.53	29.102
732.85	30.128
733.16	35.048
733.48	31.894
733.80	34.740
734.11	32.484
734.43	29.586
734.74	32.000
735.06	28.080
735.37	34.682
735.69	31.529
736.00	34.641
736.32	35.202
736.63	35.463
736.95	31.310
737.26	31.293
737.58	30.000
737.89	33.445
738.21	36.860
738.52	36.786
738.83	34.717
739.15	36.923
739.46	40.146
739.78	31.250
740.09	32.000
740.41	35.161
740.72	32.753
741.04	35.926
741.35	35.417
741.66	40.444
741.98	41.509
742.29	43.062
742.61	43.103
742.92	36.652
743.23	40.171
743.55	38.400
743.86	38.158
744.18	38.938
744.49	49.761
744.80	46.009
745.12	45.909
745.43	44.493
745.74	38.739
746.06	38.532
746.37	42.152
746.68	40.271
747.00	43.519
747.31	43.333
747.62	37.611
747.94	40.529
748.25	38.298
748.56	46.696
748.88	35.149
749.19	43.500
749.50	42.326
749.82	36.179
750.13	37.143
750.44	37.956
750.75	37.193
751.07	34.727
751.38	37.631
751.69	32.491
752.01	39.850
752.32	32.491
752.63	32.624
752.94	40.164
753.26	40.800
753.57	34.959
753.88	39.844
754.19	33.571
754.51	37.153
754.82	32.491
755.13	36.226
755.44	34.586
755.75	33.577
756.07	33.333
756.38	31.752
756.69	33.893
757.00	30.539
757.31	27.596
757.63	29.825
757.94	28.686
758.25	25.735
758.56	30.370
758.87	29.570
759.18	33.636
759.50	33.856
759.81	32.710
760.12	29.375
760.43	30.946
760.74	29.348
761.05	29.944
761.36	29.144
761.67	31.534
761.99	31.988
762.30	30.556
762.61	36.641
762.92	35.937
763.23	41.176
763.54	36.800
763.85	28.516
764.16	42.308
764.47	36.882
764.78	30.389
765.10	26.582
765.41	34.808
765.72	29.940
766.03	32.288
766.34	33.333
766.65	41.702
766.96	35.470
767.27	41.624
767.58	45.833
767.89	50.526
768.20	48.276
768.51	45.685
768.82	42.661
769.13	34.553
769.44	38.462
769.75	36.910
770.06	31.651
770.37	40.271
770.68	44.444
770.99	37.333
771.30	34.836
771.61	44.843
771.92	37.705
772.23	44.958
772.54	41.538
772.85	43.979
773.16	45.745
773.47	46.196
773.78	48.223
774.09	41.667
774.39	49.708
774.70	50.000
775.01	53.623
775.32	58.170
775.63	62.500
775.94	54.676
776.25	57.480
776.56	62.687
776.87	57.377
777.18	58.594
777.48	62.595
777.79	59.848
778.10	58.519
778.41	63.393
778.72	49.635
779.03	51.007
779.34	55.705
779.65	50.676
779.95	49.693
780.26	57.516
780.57	60.000
780.88	62.500
781.19	50.376
781.50	61.486
781.80	51.572
782.11	49.153
782.42	47.468
782.73	55.215
783.04	51.351
783.34	57.042
783.65	55.479
783.96	64.925
784.27	51.049
784.57	54.676
784.88	61.111
785.19	71.429
785.50	76.415
785.81	60.448
786.11	67.213
786.42	66.667
786.73	61.947
787.04	69.811
787.34	65.179
787.65	74.000
787.96	65.766
788.26	53.719
788.57	72.034
788.88	68.595
789.19	61.806
789.49	71.212
789.80	51.145
790.11	69.524
790.41	80.198
790.72	62.651
791.03	76.087
791.33	80.233
791.64	68.041
791.95	77.228
792.25	86.667
792.56	89.610
792.87	110.256
793.17	113.924
793.48	88.506
793.79	94.253
794.09	77.273
794.40	66.387
794.70	65.441
795.01	57.037
795.32	53.237
795.62	68.504
795.93	65.517
796.23	55.752
796.54	75.294
796.85	85.135
797.15	102.817
797.46	100.000
797.76	96.386
798.07	81.013
798.37	101.538
798.68	87.879
798.99	94.366
799.29	90.909
799.60	78.409
799.90	97.260
800.21	104.478
800.51	98.276
800.82	136.842
801.12	100.000
801.43	112.121
801.73	78.378
802.04	101.587
802.34	92.593
802.65	110.938
802.95	118.644
803.26	117.188
803.56	88.571
803.87	104.615
804.17	104.412
804.48	135.185
804.78	101.724
805.09	98.529
805.39	100.000
805.70	117.857
806.00	118.033
806.30	93.939
806.61	91.463
806.91	78.481
807.22	82.895
807.52	83.582
807.83	111.268
808.13	100.000
808.43	105.000
808.74	85.526
809.04	100.000
809.35	107.463
809.65	84.211
809.95	132.258
810.26	110.169
810.56	98.413
810.86	143.182
811.17	154.762
811.47	106.667
811.77	118.519
812.08	129.091
812.38	160.000
812.69	125.000
812.99	170.455
813.29	122.449
813.59	104.762
813.90	167.347
814.20	98.182
814.50	93.846
814.81	113.235
815.11	132.653
815.41	111.475
815.72	159.524
816.02	140.000
816.32	171.429
816.62	150.000
816.93	143.902
817.23	176.190
817.53	150.000
817.84	196.970
818.14	145.652
818.44	135.556
818.74	200.000
819.04	167.500
819.35	162.857
819.65	179.412
819.95	210.714
820.25	255.000
820.56	171.795
820.86	159.091
821.16	174.419
821.46	166.667
821.76	132.000
822.07	171.429
822.37	165.000
822.67	190.909
822.97	133.333
823.27	246.429
823.57	172.973
823.88	172.500
824.18	220.000
824.48	166.667
824.78	256.000
825.08	191.667
825.38	170.270
825.69	136.585
825.99	262.500
826.29	165.517
826.59	181.579
826.89	173.684
827.19	194.118
827.49	225.806
827.79	161.364
828.09	145.455
828.39	125.532
828.70	146.939
829.00	207.407
829.30	193.548
829.60	150.000
829.90	366.667
830.20	210.714
830.50	234.783
830.80	265.217
831.10	233.333
831.40	233.333
831.70	217.391
832.00	246.154
832.30	237.037
832.60	356.250
832.90	250.000
833.20	435.714
833.50	225.806
833.80	258.621
834.10	203.125
834.40	242.308
834.70	288.889
835.00	338.095
835.30	177.143
835.60	400.000
835.90	224.138
836.20	435.714
836.50	203.448
836.80	252.000
837.10	194.444
837.40	280.952
837.70	300.000
838.00	237.037
838.30	257.143
838.60	314.286
838.90	273.077
839.19	295.000
839.49	500.000
839.79	345.000
840.09	330.000
840.39	314.286
840.69	278.261
840.99	294.444
841.29	530.000
841.59	391.667
841.88	343.750
842.18	193.103
842.48	361.905
842.78	213.333
843.08	295.652
843.38	212.500
843.68	1033.333
843.97	238.462
844.27	213.793
844.57	300.000
844.87	375.000
845.17	255.556
845.47	1600.000
845.76	611.111
846.06	311.765
846.36	637.500
846.66	421.429
846.96	350.000
847.25	409.091
847.55	572.727
847.85	256.522
848.15	560.000
848.44	371.429
848.74	288.889
849.04	341.176
849.34	590.000
849.63	294.737
849.93	454.545
850.23	1140.000
850.53	514.286
850.82	3250.000
851.12	-5400.000
851.42	6000.000
851.71	285.000
852.01	-1400.000
852.31	275.000
852.61	2033.333
852.90	295.238
853.20	264.000
853.50	317.647
853.79	314.286
854.09	262.500
854.39	400.000
854.68	200.000
854.98	219.355
855.28	196.667
855.57	255.172
855.87	222.222
856.17	310.526
856.46	340.000
856.76	364.706
857.05	241.379
857.35	245.833
857.65	466.667
857.94	313.043
858.24	276.923
858.53	320.000
858.83	290.909
859.13	386.667
859.42	0.000
859.72	633.333
860.01	527.273
860.31	313.636
860.60	331.579
860.90	282.609
861.20	522.222
861.49	516.667
861.79	-4800.000
862.08	712.500
862.38	323.810
862.67	423.077
862.97	370.588
863.26	611.111
863.56	300.000
863.85	450.000
864.15	662.500
864.44	453.333
864.74	1000.000
865.03	712.500
865.33	273.684
865.62	481.818
865.92	538.462
866.21	375.000
866.51	0.000
866.80	490.909
867.10	1400.000
867.39	523.077
867.69	563.636
867.98	310.526
868.27	609.091
868.57	347.368
868.86	-5300.000
869.16	406.250
869.45	2000.000
869.75	-5200.000
870.04	466.667
870.33	628.571
870.63	900.000
870.92	3150.000
871.22	885.714
871.51	394.118
871.80	266.667
872.10	450.000
>>>>>End Processed Spectral Data<<<<<
