SpectraSuite Data File
++++++++++++++++++++++++++++++++++++
Date: Wed May 13 19:32:20 PDT 2015
User: schluterlab
Dark Spectrum Present: Yes
Reference Spectrum Present: Yes
Number of Sampled Component Spectra: 1
Spectrometers: USB2E3373
Integration Time (usec): 3000 (USB2E3373)
Spectra Averaged: 3 (USB2E3373)
Boxcar Smoothing: 0 (USB2E3373)
Correct for Electrical Dark: No (USB2E3373)
Strobe/Lamp Enabled: No (USB2E3373)
Correct for Detector Non-linearity: No (USB2E3373)
Correct for Stray Light: No (USB2E3373)
Number of Pixels in Processed Spectrum: 2048
>>>>>Begin Processed Spectral Data<<<<<
178.53	0.000
178.91	-1425.000
179.29	-1300.000
179.67	-244.444
180.04	-1300.000
180.42	2800.000
180.80	1060.000
181.18	-1325.000
181.56	585.714
181.94	0.000
182.31	-785.714
182.69	1900.000
183.07	-587.500
183.45	-566.667
183.83	563.636
184.20	-490.000
184.58	2700.000
184.96	5800.000
185.34	-900.000
185.72	-625.000
186.09	-2500.000
186.47	2550.000
186.85	2400.000
187.23	4600.000
187.61	-1733.333
187.98	1200.000
188.36	581.818
188.74	563.636
189.12	-880.000
189.49	590.000
189.87	-5200.000
190.25	-1400.000
190.63	414.286
191.00	430.769
191.38	916.667
191.76	-1075.000
192.14	1575.000
192.51	712.500
192.89	1216.667
193.27	650.000
193.65	-1375.000
194.02	580.000
194.40	940.000
194.78	580.000
195.15	491.667
195.53	650.000
195.91	-2450.000
196.29	362.500
196.66	336.842
197.04	-460.000
197.42	0.000
197.79	560.000
198.17	-5700.000
198.55	728.571
198.92	637.500
199.30	1020.000
199.68	0.000
200.05	355.556
200.43	685.714
200.81	5600.000
201.18	1533.333
201.56	-1766.667
201.94	577.778
202.31	677.778
202.69	483.333
203.07	620.000
203.44	0.000
203.82	1675.000
204.19	785.714
204.57	442.857
204.95	650.000
205.32	1733.333
205.70	581.818
206.08	478.571
206.45	2450.000
206.83	393.750
207.20	883.333
207.58	1020.000
207.96	333.333
208.33	775.000
208.71	-950.000
209.08	728.571
209.46	633.333
209.84	518.182
210.21	-1533.333
210.59	1600.000
210.96	-525.000
211.34	2400.000
211.71	630.000
212.09	850.000
212.46	0.000
212.84	1966.667
213.22	1100.000
213.59	-5500.000
213.97	916.667
214.34	800.000
214.72	600.000
215.09	1000.000
215.47	-2350.000
215.84	-2650.000
216.22	1800.000
216.59	407.143
216.97	1325.000
217.34	500.000
217.72	-816.667
218.09	0.000
218.47	-5400.000
218.84	700.000
219.22	928.571
219.59	1733.333
219.97	-800.000
220.34	1040.000
220.72	-2033.333
221.09	421.429
221.47	1525.000
221.84	-933.333
222.22	0.000
222.59	1375.000
222.97	-2300.000
223.34	1420.000
223.72	461.538
224.09	1140.000
224.46	2350.000
224.84	-5800.000
225.21	-1040.000
225.59	-5300.000
225.96	660.000
226.34	290.000
226.71	2850.000
227.08	712.500
227.46	600.000
227.83	-1000.000
228.21	-2550.000
228.58	544.444
228.95	-1600.000
229.33	-2350.000
229.70	1866.667
230.08	885.714
230.45	-1120.000
230.82	475.000
231.20	800.000
231.57	814.286
231.95	491.667
232.32	250.000
232.69	409.091
233.07	757.143
233.44	392.308
233.81	-1733.333
234.19	326.316
234.56	433.333
234.93	416.667
235.31	536.364
235.68	338.462
236.05	414.286
236.43	203.030
236.80	252.632
237.17	5100.000
237.55	276.190
237.92	210.714
238.29	257.143
238.67	180.645
239.04	217.241
239.41	166.667
239.79	136.957
240.16	152.381
240.53	118.182
240.91	125.490
241.28	122.000
241.65	112.000
242.02	111.594
242.40	114.516
242.77	98.333
243.14	88.172
243.51	91.011
243.89	81.176
244.26	70.000
244.63	70.968
245.00	71.277
245.38	71.287
245.75	71.028
246.12	66.972
246.49	67.153
246.87	70.400
247.24	62.308
247.61	59.286
247.98	63.399
248.36	51.351
248.73	47.771
249.10	49.682
249.47	44.633
249.84	51.872
250.22	48.128
250.59	49.112
250.96	47.475
251.33	42.180
251.70	50.495
252.08	43.810
252.45	38.565
252.82	41.739
253.19	47.234
253.56	38.824
253.94	40.249
254.31	39.453
254.68	39.615
255.05	42.066
255.42	35.772
255.79	40.441
256.16	43.682
256.54	38.163
256.91	40.925
257.28	36.691
257.65	36.634
258.02	33.230
258.39	35.016
258.76	37.793
259.14	33.929
259.51	36.170
259.88	34.472
260.25	38.066
260.62	36.994
260.99	36.646
261.36	32.132
261.73	37.536
262.10	34.884
262.47	35.775
262.85	31.755
263.22	33.048
263.59	35.043
263.96	32.967
264.33	34.204
264.70	34.211
265.07	35.806
265.44	32.828
265.81	31.387
266.18	34.171
266.55	30.488
266.92	29.975
267.29	33.565
267.66	29.817
268.03	31.818
268.40	31.308
268.77	29.117
269.14	31.081
269.51	28.894
269.88	30.070
270.25	30.248
270.62	33.933
270.99	31.398
271.36	30.258
271.73	31.776
272.10	28.913
272.47	30.753
272.84	29.221
273.21	30.608
273.58	30.568
273.95	28.302
274.32	27.273
274.69	28.266
275.06	30.118
275.43	29.574
275.80	28.657
276.17	29.532
276.54	28.898
276.91	25.889
277.28	28.516
277.65	30.368
278.02	28.157
278.39	29.102
278.76	26.909
279.13	24.340
279.50	29.050
279.87	27.490
280.23	28.343
280.60	28.433
280.97	24.769
281.34	27.080
281.71	28.000
282.08	30.710
282.45	26.909
282.82	28.774
283.19	26.738
283.56	27.018
283.92	25.719
284.29	25.573
284.66	26.679
285.03	25.136
285.40	25.704
285.77	25.926
286.14	25.907
286.51	28.833
286.87	25.983
287.24	26.221
287.61	26.164
287.98	25.974
288.35	24.406
288.72	24.766
289.08	25.039
289.45	25.535
289.82	25.854
290.19	24.333
290.56	23.430
290.93	24.169
291.29	25.920
291.66	22.714
292.03	25.581
292.40	24.229
292.77	22.485
293.13	23.433
293.50	24.490
293.87	23.852
294.24	21.185
294.60	22.125
294.97	23.401
295.34	23.131
295.71	24.432
296.08	23.789
296.44	23.659
296.81	20.608
297.18	23.577
297.55	20.844
297.91	22.559
298.28	24.632
298.65	23.499
299.02	21.739
299.38	21.381
299.75	22.102
300.12	19.540
300.48	22.125
300.85	20.962
301.22	21.656
301.59	20.707
301.95	21.285
302.32	20.924
302.69	20.789
303.05	22.303
303.42	19.259
303.79	20.838
304.15	20.629
304.52	20.742
304.89	20.093
305.25	21.346
305.62	21.518
305.99	22.078
306.35	20.805
306.72	21.861
307.09	22.198
307.45	21.171
307.82	21.429
308.19	22.296
308.55	21.791
308.92	21.805
309.29	21.119
309.65	20.679
310.02	21.776
310.38	22.903
310.75	20.803
311.12	23.746
311.48	21.944
311.85	23.795
312.22	22.581
312.58	21.933
312.95	23.337
313.31	22.330
313.68	24.532
314.05	24.359
314.41	23.920
314.78	23.766
315.14	25.223
315.51	25.644
315.87	24.455
316.24	25.025
316.61	24.659
316.97	25.342
317.34	24.462
317.70	27.055
318.07	26.853
318.43	27.593
318.80	27.273
319.16	27.024
319.53	27.017
319.89	28.857
320.26	28.100
320.62	28.770
320.99	27.980
321.35	29.798
321.72	30.390
322.08	30.109
322.45	31.741
322.81	30.717
323.18	32.274
323.54	31.169
323.91	30.849
324.27	32.218
324.64	31.500
325.00	31.740
325.37	33.121
325.73	32.855
326.10	33.628
326.46	32.706
326.83	34.685
327.19	33.817
327.56	34.146
327.92	36.920
328.29	33.895
328.65	35.727
329.01	35.199
329.38	36.355
329.74	34.811
330.11	35.627
330.47	35.629
330.84	35.386
331.20	34.608
331.56	36.147
331.93	36.667
332.29	35.581
332.66	36.814
333.02	35.923
333.38	36.314
333.75	36.809
334.11	36.655
334.48	35.315
334.84	35.294
335.20	38.000
335.57	35.811
335.93	35.625
336.29	36.172
336.66	36.339
337.02	34.661
337.38	36.019
337.75	35.383
338.11	36.258
338.47	36.096
338.84	37.214
339.20	36.422
339.56	36.405
339.93	35.727
340.29	36.141
340.65	35.116
341.02	36.562
341.38	35.587
341.74	35.614
342.11	37.555
342.47	37.621
342.83	35.531
343.20	35.584
343.56	34.878
343.92	34.825
344.28	37.160
344.65	36.715
345.01	36.616
345.37	35.849
345.73	36.887
346.10	35.550
346.46	36.017
346.82	35.255
347.19	34.921
347.55	35.961
347.91	36.003
348.27	35.826
348.63	36.120
349.00	35.356
349.36	36.043
349.72	37.289
350.08	34.765
350.45	35.395
350.81	36.799
351.17	36.548
351.53	36.118
351.89	36.469
352.26	35.833
352.62	36.247
352.98	34.846
353.34	36.237
353.70	35.679
354.07	36.855
354.43	34.841
354.79	35.398
355.15	36.313
355.51	37.170
355.87	36.490
356.24	36.726
356.60	35.686
356.96	37.088
357.32	37.122
357.68	36.378
358.04	35.629
358.40	36.342
358.77	36.463
359.13	35.991
359.49	35.373
359.85	35.794
360.21	36.364
360.57	36.576
360.93	36.462
361.29	37.491
361.66	36.920
362.02	36.418
362.38	37.262
362.74	37.426
363.10	37.010
363.46	37.124
363.82	36.886
364.18	36.344
364.54	37.519
364.90	36.190
365.26	37.426
365.62	37.984
365.98	37.692
366.35	36.819
366.71	38.106
367.07	36.854
367.43	37.881
367.79	38.829
368.15	38.721
368.51	36.991
368.87	38.258
369.23	38.332
369.59	37.944
369.95	38.162
370.31	38.105
370.67	37.319
371.03	40.075
371.39	38.557
371.75	38.603
372.11	37.553
372.47	39.296
372.83	39.769
373.19	38.295
373.55	39.911
373.91	39.617
374.27	37.251
374.63	38.545
374.99	39.054
375.35	37.753
375.71	38.931
376.07	39.163
376.42	39.271
376.78	38.966
377.14	39.281
377.50	38.609
377.86	39.162
378.22	39.633
378.58	38.659
378.94	38.718
379.30	38.931
379.66	38.515
380.02	39.926
380.38	38.251
380.74	39.196
381.09	40.526
381.45	40.074
381.81	39.619
382.17	40.382
382.53	38.994
382.89	39.630
383.25	39.275
383.61	40.706
383.97	40.025
384.32	39.364
384.68	40.273
385.04	40.504
385.40	38.638
385.76	39.742
386.12	39.767
386.48	40.529
386.83	41.822
387.19	41.249
387.55	40.693
387.91	40.387
388.27	40.895
388.62	40.811
388.98	40.909
389.34	39.737
389.70	40.466
390.06	40.684
390.42	40.597
390.77	40.967
391.13	40.013
391.49	40.228
391.85	39.147
392.20	38.738
392.56	39.836
392.92	39.729
393.28	38.343
393.64	39.508
393.99	39.035
394.35	39.082
394.71	39.711
395.07	38.941
395.42	40.606
395.78	39.758
396.14	39.354
396.50	40.414
396.85	40.369
397.21	39.642
397.57	40.732
397.92	38.702
398.28	38.117
398.64	39.128
399.00	38.892
399.35	38.409
399.71	39.410
400.07	39.089
400.42	39.202
400.78	39.505
401.14	38.780
401.49	38.985
401.85	38.899
402.21	37.605
402.57	38.371
402.92	39.344
403.28	39.475
403.63	37.809
403.99	38.662
404.35	37.818
404.70	38.549
405.06	37.740
405.42	38.428
405.77	38.171
406.13	37.415
406.49	38.734
406.84	37.744
407.20	37.530
407.55	38.162
407.91	37.467
408.27	37.971
408.62	38.110
408.98	37.194
409.34	37.515
409.69	37.419
410.05	37.546
410.40	36.697
410.76	37.515
411.11	37.033
411.47	37.316
411.83	37.019
412.18	36.673
412.54	37.671
412.89	37.048
413.25	36.009
413.60	37.616
413.96	36.491
414.31	36.877
414.67	36.312
415.03	36.424
415.38	37.307
415.74	37.170
416.09	37.427
416.45	37.483
416.80	37.079
417.16	38.539
417.51	37.890
417.87	36.994
418.22	37.918
418.58	38.089
418.93	37.469
419.29	36.410
419.64	37.217
420.00	36.402
420.35	35.536
420.71	38.255
421.06	36.814
421.42	37.544
421.77	37.612
422.12	37.226
422.48	36.050
422.83	36.867
423.19	36.575
423.54	36.738
423.90	36.754
424.25	37.018
424.61	36.429
424.96	37.609
425.31	36.213
425.67	36.798
426.02	37.371
426.38	38.095
426.73	37.741
427.09	37.264
427.44	35.998
427.79	38.528
428.15	36.607
428.50	36.805
428.85	38.081
429.21	36.830
429.56	37.377
429.92	36.236
430.27	36.147
430.62	35.330
430.98	36.430
431.33	36.649
431.68	37.382
432.04	36.688
432.39	37.122
432.74	37.642
433.10	37.351
433.45	36.968
433.80	36.641
434.16	35.844
434.51	37.105
434.86	37.115
435.22	37.854
435.57	37.021
435.92	36.630
436.28	38.197
436.63	37.196
436.98	36.749
437.34	36.792
437.69	37.690
438.04	37.381
438.39	37.493
438.75	37.130
439.10	37.709
439.45	37.957
439.81	37.583
440.16	37.098
440.51	38.137
440.86	37.290
441.22	36.763
441.57	37.633
441.92	36.694
442.27	36.491
442.63	35.703
442.98	37.577
443.33	37.554
443.68	37.326
444.03	37.189
444.39	36.222
444.74	37.121
445.09	36.927
445.44	36.632
445.79	37.061
446.15	36.633
446.50	37.157
446.85	36.536
447.20	36.410
447.55	37.298
447.91	37.010
448.26	36.060
448.61	36.744
448.96	36.434
449.31	36.839
449.66	36.072
450.02	35.822
450.37	36.168
450.72	36.605
451.07	35.954
451.42	34.894
451.77	36.289
452.12	36.143
452.47	36.256
452.83	36.772
453.18	36.980
453.53	36.549
453.88	36.503
454.23	36.521
454.58	36.160
454.93	38.462
455.28	36.409
455.63	35.862
455.98	37.024
456.34	35.930
456.69	35.692
457.04	37.028
457.39	34.892
457.74	35.577
458.09	35.710
458.44	34.778
458.79	34.273
459.14	36.569
459.49	35.143
459.84	34.017
460.19	34.237
460.54	34.144
460.89	34.778
461.24	36.126
461.59	36.490
461.94	33.909
462.29	35.549
462.64	35.546
462.99	35.589
463.34	35.667
463.69	35.522
464.04	35.014
464.39	35.362
464.74	34.700
465.09	34.560
465.44	34.294
465.79	34.284
466.14	34.702
466.49	33.648
466.84	34.092
467.19	34.218
467.54	35.062
467.89	33.914
468.24	34.729
468.59	35.043
468.94	33.170
469.29	34.319
469.64	35.676
469.99	35.859
470.34	35.073
470.68	34.914
471.03	35.714
471.38	35.580
471.73	35.376
472.08	35.329
472.43	34.799
472.78	34.760
473.13	34.724
473.48	33.770
473.83	34.878
474.17	33.479
474.52	34.429
474.87	33.684
475.22	33.778
475.57	33.530
475.92	33.351
476.27	32.694
476.61	33.756
476.96	33.755
477.31	32.810
477.66	33.589
478.01	32.567
478.36	33.263
478.70	32.970
479.05	33.280
479.40	33.982
479.75	33.757
480.10	33.002
480.45	32.175
480.79	33.158
481.14	33.366
481.49	33.602
481.84	32.282
482.19	31.985
482.53	32.018
482.88	32.713
483.23	32.944
483.58	31.802
483.92	32.334
484.27	31.111
484.62	31.207
484.97	30.942
485.31	32.192
485.66	30.138
486.01	28.095
486.36	27.409
486.70	27.654
487.05	28.078
487.40	29.392
487.75	29.710
488.09	30.088
488.44	30.520
488.79	30.597
489.13	31.054
489.48	31.566
489.83	31.075
490.17	32.179
490.52	31.665
490.87	30.846
491.22	31.378
491.56	30.433
491.91	31.131
492.26	29.858
492.60	30.599
492.95	30.402
493.30	30.794
493.64	30.331
493.99	29.898
494.34	31.267
494.68	31.136
495.03	31.156
495.37	30.247
495.72	30.994
496.07	31.415
496.41	29.558
496.76	30.035
497.11	29.671
497.45	29.576
497.80	30.758
498.14	30.483
498.49	30.195
498.84	30.441
499.18	30.238
499.53	30.674
499.87	29.683
500.22	29.487
500.56	30.485
500.91	30.240
501.26	29.635
501.60	30.517
501.95	29.881
502.29	30.366
502.64	30.028
502.98	29.780
503.33	29.936
503.67	29.466
504.02	29.747
504.36	29.153
504.71	29.751
505.06	29.398
505.40	29.849
505.75	29.267
506.09	29.786
506.44	29.403
506.78	29.518
507.13	30.439
507.47	29.343
507.82	31.358
508.16	30.344
508.51	31.456
508.85	29.643
509.19	30.765
509.54	29.592
509.88	29.675
510.23	29.152
510.57	30.857
510.92	30.140
511.26	30.113
511.61	29.876
511.95	29.906
512.30	29.268
512.64	29.554
512.98	30.493
513.33	30.246
513.67	30.309
514.02	29.924
514.36	30.857
514.70	30.769
515.05	30.898
515.39	30.454
515.74	30.574
516.08	30.129
516.42	30.744
516.77	31.494
517.11	30.300
517.46	30.587
517.80	31.301
518.14	29.878
518.49	31.914
518.83	31.477
519.17	31.928
519.52	30.843
519.86	30.633
520.20	31.561
520.55	31.358
520.89	30.961
521.23	31.846
521.58	30.492
521.92	31.292
522.26	30.384
522.61	30.405
522.95	30.141
523.29	29.641
523.64	30.427
523.98	31.115
524.32	30.820
524.66	31.149
525.01	31.127
525.35	30.793
525.69	29.988
526.04	30.966
526.38	31.056
526.72	29.816
527.06	30.822
527.41	28.218
527.75	31.447
528.09	30.764
528.43	31.103
528.78	30.916
529.12	30.061
529.46	30.374
529.80	30.879
530.15	30.530
530.49	29.538
530.83	31.582
531.17	30.875
531.51	30.934
531.86	30.968
532.20	30.313
532.54	31.262
532.88	30.295
533.22	28.919
533.57	29.444
533.91	29.681
534.25	29.769
534.59	28.981
534.93	29.506
535.27	29.209
535.62	29.548
535.96	30.069
536.30	30.070
536.64	29.169
536.98	29.463
537.32	29.822
537.66	29.800
538.01	29.427
538.35	29.800
538.69	29.292
539.03	29.240
539.37	29.457
539.71	27.868
540.05	28.824
540.39	29.900
540.73	30.078
541.07	29.396
541.42	29.354
541.76	30.387
542.10	30.336
542.44	29.735
542.78	30.303
543.12	28.983
543.46	29.836
543.80	28.953
544.14	29.076
544.48	29.270
544.82	28.801
545.16	28.692
545.50	27.506
545.84	29.503
546.18	29.428
546.52	29.732
546.86	28.385
547.20	29.939
547.54	29.392
547.88	28.508
548.22	27.771
548.56	28.868
548.90	27.913
549.24	27.946
549.58	30.218
549.92	29.602
550.26	29.901
550.60	28.216
550.94	30.915
551.28	27.798
551.62	28.109
551.96	28.842
552.30	28.874
552.64	28.871
552.98	29.288
553.32	28.591
553.66	29.107
554.00	29.307
554.34	28.709
554.68	28.755
555.02	28.984
555.36	28.949
555.69	27.876
556.03	27.725
556.37	27.967
556.71	27.967
557.05	29.272
557.39	27.992
557.73	29.005
558.07	28.644
558.41	28.509
558.75	27.994
559.08	29.008
559.42	28.798
559.76	27.647
560.10	28.194
560.44	27.673
560.78	27.013
561.12	27.375
561.45	27.510
561.79	27.950
562.13	27.029
562.47	27.322
562.81	27.545
563.15	27.425
563.48	27.851
563.82	27.658
564.16	26.422
564.50	26.628
564.84	26.865
565.17	27.542
565.51	27.220
565.85	26.840
566.19	26.362
566.52	27.169
566.86	26.221
567.20	28.184
567.54	26.427
567.88	25.421
568.21	25.820
568.55	26.239
568.89	25.340
569.23	24.643
569.56	23.806
569.90	23.358
570.24	23.789
570.57	22.441
570.91	23.174
571.25	23.008
571.59	22.592
571.92	22.350
572.26	22.530
572.60	23.153
572.93	22.819
573.27	22.774
573.61	22.725
573.95	22.171
574.28	21.985
574.62	21.890
574.96	21.458
575.29	21.605
575.63	21.773
575.97	21.999
576.30	22.066
576.64	21.835
576.98	21.731
577.31	21.811
577.65	22.063
577.98	21.271
578.32	20.790
578.66	21.551
578.99	21.799
579.33	21.859
579.67	21.260
580.00	21.769
580.34	21.357
580.67	22.075
581.01	21.430
581.35	21.211
581.68	21.201
582.02	21.043
582.35	20.796
582.69	20.656
583.02	20.988
583.36	21.420
583.70	21.778
584.03	21.630
584.37	21.976
584.70	22.335
585.04	21.575
585.37	21.505
585.71	21.405
586.04	21.648
586.38	21.735
586.72	22.038
587.05	21.434
587.39	21.161
587.72	21.850
588.06	22.012
588.39	21.481
588.73	22.001
589.06	22.156
589.40	22.020
589.73	22.809
590.07	22.954
590.40	22.324
590.73	22.834
591.07	23.240
591.40	23.281
591.74	24.069
592.07	23.473
592.41	23.646
592.74	22.434
593.08	22.085
593.41	21.291
593.75	21.362
594.08	21.690
594.41	22.093
594.75	21.885
595.08	22.584
595.42	22.872
595.75	22.400
596.09	22.456
596.42	23.458
596.75	23.301
597.09	23.766
597.42	22.850
597.75	22.294
598.09	23.304
598.42	23.067
598.76	21.767
599.09	22.007
599.42	22.052
599.76	21.742
600.09	21.749
600.42	21.768
600.76	21.750
601.09	21.530
601.42	21.119
601.76	21.860
602.09	21.225
602.42	22.373
602.76	22.451
603.09	22.030
603.42	22.179
603.76	22.256
604.09	21.365
604.42	22.136
604.76	22.986
605.09	22.674
605.42	22.103
605.75	22.475
606.09	21.309
606.42	21.945
606.75	22.066
607.09	22.394
607.42	21.523
607.75	21.899
608.08	21.928
608.42	21.829
608.75	22.543
609.08	22.340
609.41	22.132
609.75	22.582
610.08	22.479
610.41	21.974
610.74	22.280
611.07	23.419
611.41	22.522
611.74	23.127
612.07	23.137
612.40	23.662
612.73	23.211
613.07	23.815
613.40	22.907
613.73	22.811
614.06	23.280
614.39	23.440
614.72	23.000
615.06	22.479
615.39	22.134
615.72	22.853
616.05	22.488
616.38	22.513
616.71	24.169
617.05	23.204
617.38	23.271
617.71	23.063
618.04	23.197
618.37	23.596
618.70	23.335
619.03	24.868
619.36	24.644
619.69	24.296
620.03	24.451
620.36	24.666
620.69	24.863
621.02	26.032
621.35	25.450
621.68	24.688
622.01	24.303
622.34	25.719
622.67	25.323
623.00	23.478
623.33	23.302
623.66	24.446
623.99	24.595
624.32	24.251
624.65	23.799
624.99	24.292
625.32	24.258
625.65	25.169
625.98	26.134
626.31	24.495
626.64	25.388
626.97	26.268
627.30	25.104
627.63	25.267
627.96	25.820
628.29	25.722
628.62	26.624
628.95	27.830
629.28	27.372
629.61	27.039
629.94	26.762
630.26	26.787
630.59	25.643
630.92	26.245
631.25	25.864
631.58	26.927
631.91	26.166
632.24	26.688
632.57	27.702
632.90	27.961
633.23	27.852
633.56	28.362
633.89	29.445
634.22	27.923
634.55	28.639
634.88	25.988
635.20	27.838
635.53	28.675
635.86	28.589
636.19	26.941
636.52	26.874
636.85	26.919
637.18	26.152
637.51	27.896
637.83	26.510
638.16	27.366
638.49	26.952
638.82	30.341
639.15	29.125
639.48	28.180
639.81	29.893
640.13	30.208
640.46	29.530
640.79	29.987
641.12	27.923
641.45	28.492
641.77	31.222
642.10	29.678
642.43	29.730
642.76	31.579
643.09	30.828
643.41	30.653
643.74	33.488
644.07	30.793
644.40	31.442
644.73	30.394
645.05	32.647
645.38	30.174
645.71	30.274
646.04	30.731
646.36	30.885
646.69	31.773
647.02	29.762
647.35	32.818
647.67	32.743
648.00	30.407
648.33	30.858
648.66	28.485
648.98	30.735
649.31	29.148
649.64	28.550
649.96	30.402
650.29	31.122
650.62	29.773
650.94	31.280
651.27	32.432
651.60	32.945
651.92	31.949
652.25	29.642
652.58	30.841
652.90	32.385
653.23	29.122
653.56	29.291
653.88	28.685
654.21	30.490
654.54	30.033
654.86	28.816
655.19	26.351
655.52	17.932
655.84	14.739
656.17	19.164
656.49	25.923
656.82	26.549
657.15	19.988
657.47	14.851
657.80	11.757
658.13	12.190
658.45	18.389
658.78	18.405
659.10	19.715
659.43	21.069
659.75	22.197
660.08	25.316
660.41	27.095
660.73	30.877
661.06	28.981
661.38	32.000
661.71	32.692
662.03	34.122
662.36	28.827
662.68	31.928
663.01	34.949
663.33	32.696
663.66	34.664
663.98	34.773
664.31	32.983
664.63	31.377
664.96	31.791
665.28	32.377
665.61	31.384
665.93	29.980
666.26	31.643
666.58	33.264
666.91	34.038
667.23	33.483
667.56	33.045
667.88	34.402
668.21	33.049
668.53	33.623
668.86	36.580
669.18	33.262
669.50	34.130
669.83	34.423
670.15	35.556
670.48	33.115
670.80	33.836
671.13	32.696
671.45	34.468
671.77	31.365
672.10	31.608
672.42	30.035
672.75	28.856
673.07	28.521
673.39	29.476
673.72	32.227
674.04	30.980
674.37	33.204
674.69	31.493
675.01	32.427
675.34	33.881
675.66	36.000
675.98	31.976
676.31	34.454
676.63	34.183
676.95	33.333
677.28	34.346
677.60	30.549
677.92	35.021
678.25	32.444
678.57	31.673
678.89	32.064
679.22	30.845
679.54	29.198
679.86	30.459
680.18	30.590
680.51	31.738
680.83	30.427
681.15	31.321
681.48	32.136
681.80	33.269
682.12	30.077
682.44	29.014
682.77	30.346
683.09	35.622
683.41	33.259
683.73	31.126
684.06	32.645
684.38	30.333
684.70	29.845
685.02	30.206
685.34	28.755
685.67	27.448
685.99	28.351
686.31	27.474
686.63	27.385
686.96	30.179
687.28	29.242
687.60	26.268
687.92	32.541
688.24	30.989
688.56	32.129
688.89	33.402
689.21	33.406
689.53	31.733
689.85	35.255
690.17	29.607
690.49	32.484
690.82	30.607
691.14	33.705
691.46	32.068
691.78	31.928
692.10	33.471
692.42	31.337
692.74	30.498
693.06	32.766
693.39	31.211
693.71	31.223
694.03	33.895
694.35	30.303
694.67	29.977
694.99	35.366
695.31	33.333
695.63	31.340
695.95	35.941
696.27	31.472
696.59	32.383
696.91	34.974
697.23	29.343
697.56	30.490
697.88	30.266
698.20	30.000
698.52	31.398
698.84	31.180
699.16	31.567
699.48	33.017
699.80	31.401
700.12	37.143
700.44	32.891
700.76	34.530
701.08	37.356
701.40	36.034
701.72	36.443
702.04	40.909
702.36	33.144
702.68	34.844
703.00	36.565
703.32	33.245
703.64	34.853
703.96	34.819
704.28	36.628
704.60	37.537
704.91	36.499
705.23	38.416
705.55	38.870
705.87	38.870
706.19	37.809
706.51	36.449
706.83	40.000
707.15	34.174
707.47	32.323
707.79	32.187
708.11	30.822
708.43	32.143
708.74	29.337
709.06	32.208
709.38	32.283
709.70	36.047
710.02	35.608
710.34	32.727
710.66	39.104
710.98	33.807
711.29	33.430
711.61	38.938
711.93	34.936
712.25	38.264
712.57	39.706
712.89	36.332
713.20	36.474
713.52	36.842
713.84	38.291
714.16	36.585
714.48	36.494
714.80	35.866
715.11	38.329
715.43	35.905
715.75	36.232
716.07	35.783
716.39	37.304
716.70	37.874
717.02	41.367
717.34	39.576
717.66	38.433
717.97	45.020
718.29	36.667
718.61	39.051
718.93	37.868
719.24	35.640
719.56	36.610
719.88	37.966
720.20	42.230
720.51	39.373
720.83	41.264
721.15	35.821
721.46	38.652
721.78	43.369
722.10	40.377
722.42	46.241
722.73	38.202
723.05	36.066
723.37	37.652
723.68	42.085
724.00	39.837
724.32	43.548
724.63	41.463
724.95	43.096
725.27	42.915
725.58	40.625
725.90	41.971
726.22	42.642
726.53	37.500
726.85	39.590
727.16	38.434
727.48	39.007
727.80	37.121
728.11	39.130
728.43	37.692
728.74	36.559
729.06	43.066
729.38	37.868
729.69	37.367
730.01	34.471
730.32	35.417
730.64	37.793
730.96	34.653
731.27	37.086
731.59	37.309
731.90	34.111
732.22	34.472
732.53	36.533
732.85	34.615
733.16	30.868
733.48	37.542
733.80	37.987
734.11	33.439
734.43	34.320
734.74	32.857
735.06	34.097
735.37	33.815
735.69	34.395
736.00	36.601
736.32	38.006
736.63	33.227
736.95	35.144
737.26	31.973
737.58	33.548
737.89	39.465
738.21	38.908
738.52	38.214
738.83	37.358
739.15	37.308
739.46	40.511
739.78	36.111
740.09	34.769
740.41	40.000
740.72	35.889
741.04	40.741
741.35	37.500
741.66	43.111
741.98	45.283
742.29	43.062
742.61	46.552
742.92	40.271
743.23	41.453
743.55	38.000
743.86	41.667
744.18	44.248
744.49	47.368
744.80	47.887
745.12	44.545
745.43	41.850
745.74	45.495
746.06	43.578
746.37	43.946
746.68	45.249
747.00	47.222
747.31	47.619
747.62	37.168
747.94	41.410
748.25	43.830
748.56	45.815
748.88	42.574
749.19	47.000
749.50	43.256
749.82	40.650
750.13	39.592
750.44	40.146
750.75	38.596
751.07	36.656
751.38	35.540
751.69	39.711
752.01	40.226
752.32	34.657
752.63	37.589
752.94	39.754
753.26	40.000
753.57	40.650
753.88	44.141
754.19	34.286
754.51	37.500
754.82	36.823
755.13	38.491
755.44	35.338
755.75	37.226
756.07	35.106
756.38	35.766
756.69	33.893
757.00	34.132
757.31	35.015
757.63	33.041
757.94	31.903
758.25	30.147
758.56	30.123
758.87	31.989
759.18	35.152
759.50	31.661
759.81	33.956
760.12	31.562
760.43	33.811
760.74	31.250
761.05	31.356
761.36	32.353
761.67	35.511
761.99	33.230
762.30	38.542
762.61	36.260
762.92	37.891
763.23	33.613
763.54	39.600
763.85	37.500
764.16	39.231
764.47	41.065
764.78	35.336
765.10	30.380
765.41	33.628
765.72	32.335
766.03	31.661
766.34	34.667
766.65	41.277
766.96	41.880
767.27	44.670
767.58	46.875
767.89	48.421
768.20	43.678
768.51	44.162
768.82	41.284
769.13	38.211
769.44	36.842
769.75	40.773
770.06	36.697
770.37	41.629
770.68	43.056
770.99	38.667
771.30	36.475
771.61	42.601
771.92	39.754
772.23	45.378
772.54	49.744
772.85	49.215
773.16	52.660
773.47	52.174
773.78	49.239
774.09	47.619
774.39	47.368
774.70	53.086
775.01	51.449
775.32	54.902
775.63	53.947
775.94	58.273
776.25	65.354
776.56	58.955
776.87	58.197
777.18	60.156
777.48	64.885
777.79	62.121
778.10	60.741
778.41	59.821
778.72	51.825
779.03	53.691
779.34	57.047
779.65	47.297
779.95	49.080
780.26	58.170
780.57	64.828
780.88	59.375
781.19	56.391
781.50	52.027
781.80	52.201
782.11	46.893
782.42	46.203
782.73	41.718
783.04	57.432
783.34	54.225
783.65	56.849
783.96	57.463
784.27	51.748
784.57	46.763
784.88	51.852
785.19	68.254
785.50	61.321
785.81	64.179
786.11	72.131
786.42	58.915
786.73	65.487
787.04	75.472
787.34	66.964
787.65	61.000
787.96	62.162
788.26	63.636
788.57	65.254
788.88	59.504
789.19	62.500
789.49	67.424
789.80	59.542
790.11	75.238
790.41	80.198
790.72	68.675
791.03	80.435
791.33	79.070
791.64	70.103
791.95	64.356
792.25	75.556
792.56	89.610
792.87	91.026
793.17	94.937
793.48	94.253
793.79	81.609
794.09	95.455
794.40	71.429
794.70	64.706
795.01	53.333
795.32	58.993
795.62	53.543
795.93	61.207
796.23	60.177
796.54	78.824
796.85	75.676
797.15	90.141
797.46	86.364
797.76	86.747
798.07	81.013
798.37	86.154
798.68	98.485
798.99	87.324
799.29	75.325
799.60	78.409
799.90	94.521
800.21	91.045
800.51	105.172
800.82	100.000
801.12	101.639
801.43	93.939
801.73	82.432
802.04	122.222
802.34	87.654
802.65	96.875
802.95	98.305
803.26	121.875
803.56	64.286
803.87	93.846
804.17	83.824
804.48	138.889
804.78	100.000
805.09	89.706
805.39	123.077
805.70	100.000
806.00	124.590
806.30	80.303
806.61	79.268
806.91	86.076
807.22	93.421
807.52	86.567
807.83	98.592
808.13	104.688
808.43	98.333
808.74	93.421
809.04	85.507
809.35	100.000
809.65	82.895
809.95	127.419
810.26	108.475
810.56	84.127
810.86	140.909
811.17	140.476
811.47	121.667
811.77	122.222
812.08	116.364
812.38	146.000
812.69	180.556
812.99	154.545
813.29	124.490
813.59	100.000
813.90	142.857
814.20	110.909
814.50	81.538
814.81	101.471
815.11	140.816
815.41	111.475
815.72	150.000
816.02	121.818
816.32	138.095
816.62	130.000
816.93	141.463
817.23	154.762
817.53	140.909
817.84	187.879
818.14	141.304
818.44	148.889
818.74	202.941
819.04	150.000
819.35	142.857
819.65	188.235
819.95	200.000
820.25	240.000
820.56	169.231
820.86	152.273
821.16	148.837
821.46	151.282
821.76	138.000
822.07	188.571
822.37	162.500
822.67	160.606
822.97	150.980
823.27	242.857
823.57	151.351
823.88	165.000
824.18	220.000
824.48	147.619
824.78	248.000
825.08	208.333
825.38	183.784
825.69	151.220
825.99	245.833
826.29	189.655
826.59	131.579
826.89	157.895
827.19	205.882
827.49	203.226
827.79	159.091
828.09	163.636
828.39	117.021
828.70	132.653
829.00	159.259
829.30	164.516
829.60	147.500
829.90	360.000
830.20	167.857
830.50	226.087
830.80	230.435
831.10	193.333
831.40	206.667
831.70	186.957
832.00	238.462
832.30	200.000
832.60	318.750
832.90	236.667
833.20	450.000
833.50	187.097
833.80	220.690
834.10	193.750
834.40	230.769
834.70	277.778
835.00	328.571
835.30	205.714
835.60	361.538
835.90	244.828
836.20	328.571
836.50	213.793
836.80	208.000
837.10	169.444
837.40	233.333
837.70	311.765
838.00	237.037
838.30	257.143
838.60	352.381
838.90	223.077
839.19	260.000
839.49	450.000
839.79	375.000
840.09	280.000
840.39	257.143
840.69	286.957
840.99	300.000
841.29	490.000
841.59	425.000
841.88	387.500
842.18	193.103
842.48	295.238
842.78	240.000
843.08	226.087
843.38	178.125
843.68	983.333
843.97	226.923
844.27	196.552
844.57	309.524
844.87	393.750
845.17	211.111
845.47	1900.000
845.76	544.444
846.06	311.765
846.36	637.500
846.66	371.429
846.96	318.750
847.25	427.273
847.55	400.000
847.85	300.000
848.15	520.000
848.44	414.286
848.74	261.111
849.04	352.941
849.34	650.000
849.63	305.263
849.93	436.364
850.23	1160.000
850.53	442.857
850.82	2300.000
851.12	-4200.000
851.42	4700.000
851.71	285.000
852.01	-1366.667
852.31	262.500
852.61	1733.333
852.90	276.190
853.20	288.000
853.50	364.706
853.79	285.714
854.09	308.333
854.39	325.000
854.68	186.486
854.98	212.903
855.28	173.333
855.57	251.724
855.87	225.926
856.17	242.105
856.46	280.000
856.76	311.765
857.05	220.690
857.35	241.667
857.65	386.667
857.94	234.783
858.24	269.231
858.53	260.000
858.83	300.000
859.13	393.333
859.42	0.000
859.72	655.556
860.01	490.909
860.31	272.727
860.60	268.421
860.90	265.217
861.20	622.222
861.49	558.333
861.79	-5200.000
862.08	662.500
862.38	266.667
862.67	384.615
862.97	388.235
863.26	444.444
863.56	327.778
863.85	383.333
864.15	662.500
864.44	393.333
864.74	916.667
865.03	750.000
865.33	284.211
865.62	509.091
865.92	538.462
866.21	416.667
866.51	0.000
866.80	418.182
867.10	1380.000
867.39	469.231
867.69	436.364
867.98	331.579
868.27	527.273
868.57	310.526
868.86	-4700.000
869.16	350.000
869.45	2450.000
869.75	-5400.000
870.04	450.000
870.33	742.857
870.63	1200.000
870.92	2900.000
871.22	800.000
871.51	370.588
871.80	223.810
872.10	414.286
>>>>>End Processed Spectral Data<<<<<
