SpectraSuite Data File
++++++++++++++++++++++++++++++++++++
Date: Wed May 13 19:41:33 PDT 2015
User: schluterlab
Dark Spectrum Present: Yes
Reference Spectrum Present: Yes
Number of Sampled Component Spectra: 1
Spectrometers: USB2E3373
Integration Time (usec): 3000 (USB2E3373)
Spectra Averaged: 3 (USB2E3373)
Boxcar Smoothing: 0 (USB2E3373)
Correct for Electrical Dark: No (USB2E3373)
Strobe/Lamp Enabled: No (USB2E3373)
Correct for Detector Non-linearity: No (USB2E3373)
Correct for Stray Light: No (USB2E3373)
Number of Pixels in Processed Spectrum: 2048
>>>>>Begin Processed Spectral Data<<<<<
178.53	0.000
178.91	-1300.000
179.29	-1325.000
179.67	-222.222
180.04	-1200.000
180.42	3000.000
180.80	1140.000
181.18	-1375.000
181.56	671.429
181.94	0.000
182.31	-657.143
182.69	1666.667
183.07	-537.500
183.45	-488.889
183.83	545.455
184.20	-440.000
184.58	2450.000
184.96	5300.000
185.34	-800.000
185.72	-662.500
186.09	-2650.000
186.47	2550.000
186.85	2600.000
187.23	4700.000
187.61	-1733.333
187.98	1400.000
188.36	654.545
188.74	527.273
189.12	-1200.000
189.49	560.000
189.87	-4400.000
190.25	-1175.000
190.63	414.286
191.00	376.923
191.38	700.000
191.76	-1250.000
192.14	1675.000
192.51	625.000
192.89	1000.000
193.27	512.500
193.65	-1275.000
194.02	550.000
194.40	1000.000
194.78	540.000
195.15	541.667
195.53	590.000
195.91	-2400.000
196.29	343.750
196.66	326.316
197.04	-360.000
197.42	0.000
197.79	640.000
198.17	-4300.000
198.55	600.000
198.92	712.500
199.30	1080.000
199.68	0.000
200.05	327.778
200.43	785.714
200.81	4300.000
201.18	1766.667
201.56	-1600.000
201.94	622.222
202.31	622.222
202.69	416.667
203.07	510.000
203.44	0.000
203.82	1225.000
204.19	828.571
204.57	457.143
204.95	700.000
205.32	1466.667
205.70	509.091
206.08	392.857
206.45	2650.000
206.83	306.250
207.20	1050.000
207.58	780.000
207.96	283.333
208.33	800.000
208.71	-650.000
209.08	785.714
209.46	577.778
209.84	500.000
210.21	-1566.667
210.59	1400.000
210.96	-512.500
211.34	2400.000
211.71	600.000
212.09	883.333
212.46	0.000
212.84	1566.667
213.22	1500.000
213.59	-5400.000
213.97	816.667
214.34	714.286
214.72	536.364
215.09	1120.000
215.47	-2750.000
215.84	-2300.000
216.22	1500.000
216.59	364.286
216.97	1250.000
217.34	436.364
217.72	-716.667
218.09	0.000
218.47	-5700.000
218.84	633.333
219.22	714.286
219.59	1633.333
219.97	-571.429
220.34	1160.000
220.72	-2066.667
221.09	478.571
221.47	1450.000
221.84	-800.000
222.22	0.000
222.59	1425.000
222.97	-2750.000
223.34	1080.000
223.72	415.385
224.09	1280.000
224.46	2500.000
224.84	-4700.000
225.21	-1020.000
225.59	-5500.000
225.96	600.000
226.34	345.000
226.71	2700.000
227.08	612.500
227.46	580.000
227.83	-1125.000
228.21	-2150.000
228.58	611.111
228.95	-2450.000
229.33	-2150.000
229.70	1600.000
230.08	828.571
230.45	-860.000
230.82	450.000
231.20	866.667
231.57	742.857
231.95	483.333
232.32	222.727
232.69	454.545
233.07	728.571
233.44	438.462
233.81	-1600.000
234.19	300.000
234.56	491.667
234.93	300.000
235.31	436.364
235.68	400.000
236.05	342.857
236.43	163.636
236.80	273.684
237.17	3600.000
237.55	219.048
237.92	214.286
238.29	223.810
238.67	148.387
239.04	172.414
239.41	141.667
239.79	95.652
240.16	119.048
240.53	111.364
240.91	84.314
241.28	96.000
241.65	88.000
242.02	98.551
242.40	82.258
242.77	58.333
243.14	61.290
243.51	55.056
243.89	56.471
244.26	44.444
244.63	59.140
245.00	50.000
245.38	51.485
245.75	43.925
246.12	32.110
246.49	40.146
246.87	46.400
247.24	39.231
247.61	37.143
247.98	35.294
248.36	29.054
248.73	29.299
249.10	33.121
249.47	29.944
249.84	32.086
250.22	29.412
250.59	23.669
250.96	25.253
251.33	28.910
251.70	29.208
252.08	23.810
252.45	25.112
252.82	18.261
253.19	20.426
253.56	27.059
253.94	26.971
254.31	22.656
254.68	24.231
255.05	20.664
255.42	18.293
255.79	17.279
256.16	21.661
256.54	15.548
256.91	24.199
257.28	15.827
257.65	19.472
258.02	17.081
258.39	19.243
258.76	14.381
259.14	16.667
259.51	15.502
259.88	14.286
260.25	14.502
260.62	14.162
260.99	14.286
261.36	17.117
261.73	13.467
262.10	13.953
262.47	15.775
262.85	14.763
263.22	11.396
263.59	13.675
263.96	15.934
264.33	17.232
264.70	12.368
265.07	14.578
265.44	10.101
265.81	13.625
266.18	14.070
266.55	12.927
266.92	12.776
267.29	12.963
267.66	12.844
268.03	14.545
268.40	11.916
268.77	12.411
269.14	10.360
269.51	14.898
269.88	11.655
270.25	11.512
270.62	12.809
270.99	14.194
271.36	9.871
271.73	10.981
272.10	13.478
272.47	12.688
272.84	11.688
273.21	12.998
273.58	10.699
273.95	9.853
274.32	10.331
274.69	11.349
275.06	10.827
275.43	11.277
275.80	11.623
276.17	10.387
276.54	12.058
276.91	11.462
277.28	10.352
277.65	10.058
278.02	8.489
278.39	13.281
278.76	11.818
279.13	11.132
279.50	11.732
279.87	10.757
280.23	8.583
280.60	8.511
280.97	7.763
281.34	11.858
281.71	12.182
282.08	10.940
282.45	9.273
282.82	9.769
283.19	8.556
283.56	9.298
283.92	9.475
284.29	7.407
284.66	10.345
285.03	8.680
285.40	9.683
285.77	7.407
286.14	7.945
286.51	13.000
286.87	10.427
287.24	9.446
287.61	8.668
287.98	10.227
288.35	8.558
288.72	8.567
289.08	9.233
289.45	8.237
289.82	10.569
290.19	8.634
290.56	9.035
290.93	7.553
291.29	9.356
291.66	8.112
292.03	9.302
292.40	7.930
292.77	7.692
293.13	7.313
293.50	7.143
293.87	6.963
294.24	7.407
294.60	8.297
294.97	7.994
295.34	7.334
295.71	7.812
296.08	7.977
296.44	7.703
296.81	6.605
297.18	7.588
297.55	5.013
297.91	7.256
298.28	8.032
298.65	7.311
299.02	7.510
299.38	6.507
299.75	5.526
300.12	5.364
300.48	6.500
300.85	6.905
301.22	6.242
301.59	6.061
301.95	6.801
302.32	6.804
302.69	7.049
303.05	5.939
303.42	6.296
303.79	6.002
304.15	5.944
304.52	5.794
304.89	5.923
305.25	5.916
305.62	6.682
305.99	6.021
306.35	5.257
306.72	5.157
307.09	6.548
307.45	6.757
307.82	5.022
308.19	7.285
308.55	6.041
308.92	6.122
309.29	4.118
309.65	4.560
310.02	6.448
310.38	6.022
310.75	6.125
311.12	6.141
311.48	5.852
311.85	7.128
312.22	6.348
312.58	5.198
312.95	5.913
313.31	5.437
313.68	5.509
314.05	7.594
314.41	6.633
314.78	5.539
315.14	5.760
315.51	5.355
315.87	6.040
316.24	5.660
316.61	6.140
316.97	5.088
317.34	5.186
317.70	5.067
318.07	5.582
318.43	5.382
318.80	5.717
319.16	5.650
319.53	4.972
319.89	5.619
320.26	6.600
320.62	5.754
320.99	6.970
321.35	6.667
321.72	6.674
322.08	7.206
322.45	7.662
322.81	7.364
323.18	7.803
323.54	6.865
323.91	6.887
324.27	7.553
324.64	5.778
325.00	6.041
325.37	6.551
325.73	8.887
326.10	8.032
326.46	6.631
326.83	8.197
327.19	7.942
327.56	6.882
327.92	7.874
328.29	8.429
328.65	7.827
329.01	7.852
329.38	7.586
329.74	7.572
330.11	7.352
330.47	8.724
330.84	9.283
331.20	6.648
331.56	8.165
331.93	6.944
332.29	8.429
332.66	8.142
333.02	7.404
333.38	8.220
333.75	7.843
334.11	8.007
334.48	7.098
334.84	7.813
335.20	8.182
335.57	7.162
335.93	7.411
336.29	6.685
336.66	7.033
337.02	5.973
337.38	8.056
337.75	8.021
338.11	7.610
338.47	6.814
338.84	7.883
339.20	6.606
339.56	8.668
339.93	6.000
340.29	7.337
340.65	7.754
341.02	8.290
341.38	7.028
341.74	6.930
342.11	8.035
342.47	8.018
342.83	7.534
343.20	7.446
343.56	6.992
343.92	7.632
344.28	7.823
344.65	7.825
345.01	6.902
345.37	7.290
345.73	7.868
346.10	6.735
346.46	6.949
346.82	7.908
347.19	6.683
347.55	7.225
347.91	7.443
348.27	7.806
348.63	7.441
349.00	6.634
349.36	6.814
349.72	7.618
350.08	7.131
350.45	8.055
350.81	7.636
351.17	7.212
351.53	7.289
351.89	6.436
352.26	7.340
352.62	7.458
352.98	6.888
353.34	6.984
353.70	5.565
354.07	7.500
354.43	6.270
354.79	6.356
355.15	5.826
355.51	7.754
355.87	6.694
356.24	6.840
356.60	6.175
356.96	7.080
357.32	6.705
357.68	7.087
358.04	7.047
358.40	6.492
358.77	6.260
359.13	6.551
359.49	6.431
359.85	4.921
360.21	6.380
360.57	6.848
360.93	6.231
361.29	6.274
361.66	6.889
362.02	6.791
362.38	7.300
362.74	6.399
363.10	5.551
363.46	6.163
363.82	5.669
364.18	6.902
364.54	6.835
364.90	7.082
365.26	5.147
365.62	6.501
365.98	5.113
366.35	5.372
366.71	6.725
367.07	5.827
367.43	6.459
367.79	6.852
368.15	5.891
368.51	5.741
368.87	6.281
369.23	5.340
369.59	6.445
369.95	6.250
370.31	5.769
370.67	6.304
371.03	6.966
371.39	5.831
371.75	5.882
372.11	5.903
372.47	6.672
372.83	6.412
373.19	5.780
373.55	5.469
373.91	6.406
374.27	6.460
374.63	5.236
374.99	5.367
375.35	5.792
375.71	5.757
376.07	5.281
376.42	5.640
376.78	6.693
377.14	4.613
377.50	5.762
377.86	5.186
378.22	5.310
378.58	5.013
378.94	5.280
379.30	4.389
379.66	5.457
380.02	5.651
380.38	4.736
380.74	5.342
381.09	5.868
381.45	5.470
381.81	5.958
382.17	5.605
382.53	5.283
382.89	6.173
383.25	5.316
383.61	5.328
383.97	5.629
384.32	5.739
384.68	4.647
385.04	5.655
385.40	4.954
385.76	5.590
386.12	5.764
386.48	5.412
386.83	5.324
387.19	6.122
387.55	5.318
387.91	5.381
388.27	4.782
388.62	5.900
388.98	5.037
389.34	5.757
389.70	5.886
390.06	5.640
390.42	5.577
390.77	6.361
391.13	5.361
391.49	5.964
391.85	4.710
392.20	5.047
392.56	4.987
392.92	4.591
393.28	4.497
393.64	5.995
393.99	5.498
394.35	5.025
394.71	5.960
395.07	5.171
395.42	5.192
395.78	5.725
396.14	4.718
396.50	5.075
396.85	5.340
397.21	5.795
397.57	5.580
397.92	5.108
398.28	5.045
398.64	5.795
399.00	5.372
399.35	4.794
399.71	5.150
400.07	5.559
400.42	5.092
400.78	5.730
401.14	5.244
401.49	4.478
401.85	4.477
402.21	4.850
402.57	4.565
402.92	5.107
403.28	5.497
403.63	4.765
403.99	4.331
404.35	5.394
404.70	5.695
405.06	4.135
405.42	5.240
405.77	4.971
406.13	4.797
406.49	5.263
406.84	5.139
407.20	4.669
407.55	4.786
407.91	4.667
408.27	4.850
408.62	5.238
408.98	5.025
409.34	5.412
409.69	5.032
410.05	4.709
410.40	5.015
410.76	5.615
411.11	5.609
411.47	5.240
411.83	5.070
412.18	4.762
412.54	4.981
412.89	5.422
413.25	5.136
413.60	5.127
413.96	5.525
414.31	5.772
414.67	5.513
415.03	5.033
415.38	5.412
415.74	5.273
416.09	5.291
416.45	5.288
416.80	5.288
417.16	5.831
417.51	5.839
417.87	5.395
418.22	5.552
418.58	6.262
418.93	5.160
419.29	5.729
419.64	6.297
420.00	5.427
420.35	5.855
420.71	5.499
421.06	5.072
421.42	5.380
421.77	5.605
422.12	4.267
422.48	3.940
422.83	4.950
423.19	5.193
423.54	4.933
423.90	5.333
424.25	5.304
424.61	5.595
424.96	5.306
425.31	5.260
425.67	5.955
426.02	5.943
426.38	5.739
426.73	4.915
427.09	5.471
427.44	5.175
427.79	4.888
428.15	5.476
428.50	4.798
428.85	5.662
429.21	4.970
429.56	5.288
429.92	4.831
430.27	4.667
430.62	4.352
430.98	5.345
431.33	5.206
431.68	5.393
432.04	5.911
432.39	4.911
432.74	5.206
433.10	5.829
433.45	5.598
433.80	5.100
434.16	5.128
434.51	5.526
434.86	5.929
435.22	5.948
435.57	5.410
435.92	5.559
436.28	5.338
436.63	6.181
436.98	4.694
437.34	5.486
437.69	4.959
438.04	5.340
438.39	6.030
438.75	6.043
439.10	6.145
439.45	5.785
439.81	5.015
440.16	5.082
440.51	5.038
440.86	5.501
441.22	5.228
441.57	5.626
441.92	5.783
442.27	5.490
442.63	4.897
442.98	5.972
443.33	5.652
443.68	4.853
444.03	4.832
444.39	4.771
444.74	4.816
445.09	5.553
445.44	5.686
445.79	5.492
446.15	6.141
446.50	5.062
446.85	5.447
447.20	5.456
447.55	4.913
447.91	5.130
448.26	5.509
448.61	5.144
448.96	6.368
449.31	5.568
449.66	5.909
450.02	4.958
450.37	5.272
450.72	5.020
451.07	5.180
451.42	5.046
451.77	6.107
452.12	6.005
452.47	6.157
452.83	6.061
453.18	5.073
453.53	6.122
453.88	5.257
454.23	5.977
454.58	6.360
454.93	7.438
455.28	4.800
455.63	5.036
455.98	6.012
456.34	5.716
456.69	4.947
457.04	6.130
457.39	5.611
457.74	5.688
458.09	6.095
458.44	5.587
458.79	5.369
459.14	5.248
459.49	6.130
459.84	5.983
460.19	5.362
460.54	4.861
460.89	5.101
461.24	6.072
461.59	6.856
461.94	5.795
462.29	6.825
462.64	5.616
462.99	5.856
463.34	7.000
463.69	6.316
464.04	6.261
464.39	6.377
464.74	5.466
465.09	6.152
465.44	5.429
465.79	5.201
466.14	5.966
466.49	5.006
466.84	6.305
467.19	5.613
467.54	6.438
467.89	5.942
468.24	6.399
468.59	6.593
468.94	5.742
469.29	5.784
469.64	6.024
469.99	5.954
470.34	5.416
470.68	4.885
471.03	6.259
471.38	6.324
471.73	6.596
472.08	6.250
472.43	5.842
472.78	5.464
473.13	6.162
473.48	5.805
473.83	6.402
474.17	4.543
474.52	6.017
474.87	6.363
475.22	5.398
475.57	5.051
475.92	5.204
476.27	5.693
476.61	5.736
476.96	5.388
477.31	5.181
477.66	5.963
478.01	5.489
478.36	5.500
478.70	4.777
479.05	5.005
479.40	5.015
479.75	5.897
480.10	4.821
480.45	4.950
480.79	4.252
481.14	5.333
481.49	5.553
481.84	4.481
482.19	5.543
482.53	4.954
482.88	5.351
483.23	5.654
483.58	5.460
483.92	5.342
484.27	4.619
484.62	5.216
484.97	4.612
485.31	4.521
485.66	4.056
486.01	3.519
486.36	3.416
486.70	3.349
487.05	3.857
487.40	3.907
487.75	3.943
488.09	4.398
488.44	4.203
488.79	4.195
489.13	5.004
489.48	4.690
489.83	4.661
490.17	4.954
490.52	5.004
490.87	4.749
491.22	5.321
491.56	4.510
491.91	4.746
492.26	4.777
492.60	5.392
492.95	4.256
493.30	4.907
493.64	4.620
493.99	5.153
494.34	5.273
494.68	5.037
495.03	4.934
495.37	5.398
495.72	5.117
496.07	4.919
496.41	4.735
496.76	4.925
497.11	4.548
497.45	5.356
497.80	4.990
498.14	5.121
498.49	4.829
498.84	4.650
499.18	5.095
499.53	4.891
499.87	5.405
500.22	5.181
500.56	5.000
500.91	4.760
501.26	4.979
501.60	5.031
501.95	4.950
502.29	5.201
502.64	5.121
502.98	4.722
503.33	4.845
503.67	4.965
504.02	4.958
504.36	5.569
504.71	4.934
505.06	5.301
505.40	4.861
505.75	4.966
506.09	5.296
506.44	4.637
506.78	4.968
507.13	5.351
507.47	5.000
507.82	5.471
508.16	4.762
508.51	5.429
508.85	5.362
509.19	5.357
509.54	4.745
509.88	4.843
510.23	4.987
510.57	5.263
510.92	5.179
511.26	5.550
511.61	5.446
511.95	4.436
512.30	5.196
512.64	6.072
512.98	6.109
513.33	5.889
513.67	5.176
514.02	4.329
514.36	5.352
514.70	5.202
515.05	4.796
515.39	5.272
515.74	6.025
516.08	5.981
516.42	5.660
516.77	5.518
517.11	5.438
517.46	5.982
517.80	5.459
518.14	5.038
518.49	6.301
518.83	6.023
519.17	5.658
519.52	5.829
519.86	5.876
520.20	5.723
520.55	5.266
520.89	6.083
521.23	6.152
521.58	5.702
521.92	6.307
522.26	5.674
522.61	5.483
522.95	5.586
523.29	5.965
523.64	6.280
523.98	5.545
524.32	5.790
524.66	6.494
525.01	6.311
525.35	5.576
525.69	6.281
526.04	5.857
526.38	5.796
526.72	5.767
527.06	5.901
527.41	4.950
527.75	5.788
528.09	6.230
528.43	6.182
528.78	6.023
529.12	5.818
529.46	5.940
529.80	5.446
530.15	6.044
530.49	5.908
530.83	6.519
531.17	6.005
531.51	7.523
531.86	6.000
532.20	6.780
532.54	7.047
532.88	6.483
533.22	5.746
533.57	6.173
533.91	5.599
534.25	5.711
534.59	6.284
534.93	5.532
535.27	5.733
535.62	5.922
535.96	6.152
536.30	6.421
536.64	6.246
536.98	5.906
537.32	5.530
537.66	5.867
538.01	6.188
538.35	6.464
538.69	7.594
539.03	5.913
539.37	5.431
539.71	4.601
540.05	6.013
540.39	5.249
540.73	5.627
541.07	6.684
541.42	7.110
541.76	6.516
542.10	6.727
542.44	5.563
542.78	6.324
543.12	6.078
543.46	6.689
543.80	6.311
544.14	6.033
544.48	6.032
544.82	5.901
545.16	6.246
545.50	6.491
545.84	6.250
546.18	6.532
546.52	6.813
546.86	6.392
547.20	6.473
547.54	6.546
547.88	6.952
548.22	6.289
548.56	6.541
548.90	5.186
549.24	5.859
549.58	6.003
549.92	6.937
550.26	6.108
550.60	6.501
550.94	6.056
551.28	5.340
551.62	6.758
551.96	6.456
552.30	6.416
552.64	6.423
552.98	6.169
553.32	6.406
553.66	6.203
554.00	7.207
554.34	6.418
554.68	7.010
555.02	6.347
555.36	5.985
555.69	6.292
556.03	6.528
556.37	6.071
556.71	6.344
557.05	6.443
557.39	7.488
557.73	6.069
558.07	5.149
558.41	6.006
558.75	7.201
559.08	6.264
559.42	6.349
559.76	6.838
560.10	5.567
560.44	6.080
560.78	5.988
561.12	6.266
561.45	6.519
561.79	6.065
562.13	5.969
562.47	6.967
562.81	6.346
563.15	6.087
563.48	5.902
563.82	5.610
564.16	5.755
564.50	5.599
564.84	6.131
565.17	6.306
565.51	5.815
565.85	5.838
566.19	5.823
566.52	6.080
566.86	5.425
567.20	5.837
567.54	5.479
567.88	5.758
568.21	5.714
568.55	5.410
568.89	5.350
569.23	5.214
569.56	4.656
569.90	4.642
570.24	4.593
570.57	4.454
570.91	4.428
571.25	4.509
571.59	4.330
571.92	3.888
572.26	4.362
572.60	4.384
572.93	4.048
573.27	4.022
573.61	4.355
573.95	4.548
574.28	3.593
574.62	3.741
574.96	3.704
575.29	4.049
575.63	4.141
575.97	3.853
576.30	3.903
576.64	3.765
576.98	3.816
577.31	3.720
577.65	3.887
577.98	3.518
578.32	3.396
578.66	3.711
578.99	3.698
579.33	3.607
579.67	3.697
580.00	3.740
580.34	3.773
580.67	3.829
581.01	3.890
581.35	3.661
581.68	3.534
582.02	3.656
582.35	3.580
582.69	3.676
583.02	3.641
583.36	3.897
583.70	3.896
584.03	3.683
584.37	4.321
584.70	3.631
585.04	3.767
585.37	3.705
585.71	3.853
586.04	4.301
586.38	3.683
586.72	4.170
587.05	3.993
587.39	3.879
587.72	3.917
588.06	3.789
588.39	4.280
588.73	4.224
589.06	4.269
589.40	4.209
589.73	4.294
590.07	4.555
590.40	4.421
590.73	4.333
591.07	4.803
591.40	4.724
591.74	5.195
592.07	5.323
592.41	4.837
592.74	4.270
593.08	4.730
593.41	4.271
593.75	4.403
594.08	4.358
594.41	4.913
594.75	4.510
595.08	4.545
595.42	4.378
595.75	4.523
596.09	4.732
596.42	4.754
596.75	4.897
597.09	5.671
597.42	4.553
597.75	5.088
598.09	4.696
598.42	4.854
598.76	4.499
599.09	4.295
599.42	4.148
599.76	4.392
600.09	4.444
600.42	4.346
600.76	4.179
601.09	4.189
601.42	4.300
601.76	4.820
602.09	4.387
602.42	4.658
602.76	5.280
603.09	4.642
603.42	4.842
603.76	4.840
604.09	4.653
604.42	4.688
604.76	5.019
605.09	4.543
605.42	5.002
605.75	5.008
606.09	4.839
606.42	4.128
606.75	4.977
607.09	5.358
607.42	4.322
607.75	4.641
608.08	4.776
608.42	5.110
608.75	5.005
609.08	4.995
609.41	5.093
609.75	5.574
610.08	5.796
610.41	4.562
610.74	5.061
611.07	5.138
611.41	4.907
611.74	5.530
612.07	5.642
612.40	5.561
612.73	4.684
613.07	5.927
613.40	5.424
613.73	4.667
614.06	4.677
614.39	5.401
614.72	5.526
615.06	5.200
615.39	5.096
615.72	5.266
616.05	5.316
616.38	5.503
616.71	5.819
617.05	5.654
617.38	5.953
617.71	5.285
618.04	5.950
618.37	5.736
618.70	5.600
619.03	5.987
619.36	6.585
619.69	5.070
620.03	6.662
620.36	6.618
620.69	7.329
621.02	6.416
621.35	6.656
621.68	6.698
622.01	5.728
622.34	6.354
622.67	7.376
623.00	6.530
623.33	6.362
623.66	6.147
623.99	6.038
624.32	6.419
624.65	5.791
624.99	5.737
625.32	5.720
625.65	6.536
625.98	6.457
626.31	6.921
626.64	6.694
626.97	6.816
627.30	7.149
627.63	8.614
627.96	7.653
628.29	7.262
628.62	8.417
628.95	8.868
629.28	6.296
629.61	7.883
629.94	6.762
630.26	7.912
630.59	6.387
630.92	7.184
631.25	6.417
631.58	8.108
631.91	8.012
632.24	7.278
632.57	9.339
632.90	8.004
633.23	8.054
633.56	8.362
633.89	9.287
634.22	9.308
634.55	8.639
634.88	8.024
635.20	8.602
635.53	7.952
635.86	8.168
636.19	8.000
636.52	8.420
636.85	8.018
637.18	7.834
637.51	9.811
637.83	6.905
638.16	7.673
638.49	8.186
638.82	10.619
639.15	8.875
639.48	9.975
639.81	8.445
640.13	7.943
640.46	8.859
640.79	9.379
641.12	7.978
641.45	9.078
641.77	9.426
642.10	10.088
642.43	9.159
642.76	10.991
643.09	10.736
643.41	8.649
643.74	10.648
644.07	9.756
644.40	11.656
644.73	11.024
645.05	13.312
645.38	8.847
645.71	12.238
646.04	10.963
646.36	12.020
646.69	11.204
647.02	10.714
647.35	8.763
647.67	11.681
648.00	12.033
648.33	8.581
648.66	10.303
648.98	10.345
649.31	9.417
649.64	9.268
649.96	10.432
650.29	11.058
650.62	9.871
650.94	12.480
651.27	11.149
651.60	10.649
651.92	10.383
652.25	9.283
652.58	9.813
652.90	10.427
653.23	9.091
653.56	9.921
653.88	11.727
654.21	12.638
654.54	10.231
654.86	10.125
655.19	7.838
655.52	4.304
655.84	2.618
656.17	2.785
656.49	3.784
656.82	3.777
657.15	3.087
657.47	2.317
657.80	1.866
658.13	2.134
658.45	3.097
658.78	3.295
659.10	3.779
659.43	4.084
659.75	4.556
660.08	5.190
660.41	6.425
660.73	9.022
661.06	10.828
661.38	12.000
661.71	13.462
662.03	11.834
662.36	11.133
662.68	13.253
663.01	11.313
663.33	11.677
663.66	13.235
663.98	11.231
664.31	13.235
664.63	11.538
664.96	12.072
665.28	14.344
665.61	11.696
665.93	12.072
666.26	10.345
666.58	12.762
666.91	13.108
667.23	12.360
667.56	12.095
667.88	11.538
668.21	14.072
668.53	11.497
668.86	10.606
669.18	13.646
669.50	13.478
669.83	15.251
670.15	13.556
670.48	11.983
670.80	15.302
671.13	13.588
671.45	10.851
671.77	13.035
672.10	11.275
672.42	10.071
672.75	10.282
673.07	11.092
673.39	9.222
673.72	11.133
674.04	12.157
674.37	10.874
674.69	10.020
675.01	10.042
675.34	13.758
675.66	14.947
675.98	12.016
676.31	12.395
676.63	13.376
676.95	12.579
677.28	13.785
677.60	12.747
677.92	13.924
678.25	13.142
678.57	11.355
678.89	14.429
679.22	12.181
679.54	11.832
679.86	13.945
680.18	11.270
680.51	11.702
680.83	11.388
681.15	13.396
681.48	11.342
681.80	11.992
682.12	11.877
682.44	10.832
682.77	13.442
683.09	14.163
683.41	12.860
683.73	13.466
684.06	13.223
684.38	12.329
684.70	11.628
685.02	12.758
685.34	11.538
685.67	8.392
685.99	10.309
686.31	10.580
686.63	8.127
686.96	9.821
687.28	11.552
687.60	8.877
687.92	12.431
688.24	12.357
688.56	14.056
688.89	13.900
689.21	12.445
689.53	13.987
689.85	12.417
690.17	10.973
690.49	15.074
690.82	13.318
691.14	11.607
691.46	10.759
691.78	12.651
692.10	11.157
692.42	11.377
692.74	9.544
693.06	11.277
693.39	14.579
693.71	12.445
694.03	13.895
694.35	13.420
694.67	14.874
694.99	15.366
695.31	13.480
695.63	11.722
695.95	11.736
696.27	11.675
696.59	15.285
696.91	17.098
697.23	10.329
697.56	14.499
697.88	10.225
698.20	13.958
698.52	11.613
698.84	14.254
699.16	12.442
699.48	13.302
699.80	14.010
700.12	16.623
700.44	16.446
700.76	15.470
701.08	13.793
701.40	14.804
701.72	18.659
702.04	21.307
702.36	15.864
702.68	16.147
703.00	17.452
703.32	14.096
703.64	18.231
703.96	16.435
704.28	15.407
704.60	19.648
704.91	16.617
705.23	19.648
705.55	18.605
705.87	19.934
706.19	17.314
706.51	19.315
706.83	19.394
707.15	17.927
707.47	12.879
707.79	13.514
708.11	13.470
708.43	15.714
708.74	13.010
709.06	15.325
709.38	18.110
709.70	18.314
710.02	18.991
710.34	14.848
710.66	15.821
710.98	17.898
711.29	16.570
711.61	20.354
711.93	18.590
712.25	20.900
712.57	11.397
712.89	16.609
713.20	20.061
713.52	19.408
713.84	18.354
714.16	18.902
714.48	14.368
714.80	19.453
715.11	17.291
715.43	16.617
715.75	16.812
716.07	15.016
716.39	15.047
716.70	19.934
717.02	17.266
717.34	19.435
717.66	21.269
717.97	21.912
718.29	17.407
718.61	16.423
718.93	18.015
719.24	22.491
719.56	19.661
719.88	22.712
720.20	19.595
720.51	20.209
720.83	18.959
721.15	14.925
721.46	19.858
721.78	19.355
722.10	21.509
722.42	19.173
722.73	20.974
723.05	21.721
723.37	19.838
723.68	21.622
724.00	22.358
724.32	24.597
724.63	20.325
724.95	20.921
725.27	20.648
725.58	22.656
725.90	22.628
726.22	19.245
726.53	15.625
726.85	18.089
727.16	21.352
727.48	19.149
727.80	21.212
728.11	19.565
728.43	15.769
728.74	20.789
729.06	24.088
729.38	20.956
729.69	17.438
730.01	16.382
730.32	16.667
730.64	19.064
730.96	15.512
731.27	19.205
731.59	17.737
731.90	18.367
732.22	16.460
732.53	15.789
732.85	18.269
733.16	17.363
733.48	17.608
733.80	15.584
734.11	17.516
734.43	19.527
734.74	16.000
735.06	14.327
735.37	16.474
735.69	15.924
736.00	16.340
736.32	18.069
736.63	18.211
736.95	19.489
737.26	14.286
737.58	18.065
737.89	17.057
738.21	17.747
738.52	16.786
738.83	18.491
739.15	20.385
739.46	18.248
739.78	18.403
740.09	20.308
740.41	20.968
740.72	16.376
741.04	21.111
741.35	22.500
741.66	26.222
741.98	18.396
742.29	27.751
742.61	28.017
742.92	19.457
743.23	21.368
743.55	22.000
743.86	16.667
744.18	27.876
744.49	26.316
744.80	27.230
745.12	27.727
745.43	24.229
745.74	24.324
746.06	23.853
746.37	26.009
746.68	28.507
747.00	25.000
747.31	22.857
747.62	19.912
747.94	19.383
748.25	23.404
748.56	19.824
748.88	27.228
749.19	18.500
749.50	23.721
749.82	19.919
750.13	19.184
750.44	17.518
750.75	20.000
751.07	23.473
751.38	21.951
751.69	20.939
752.01	16.165
752.32	17.329
752.63	21.986
752.94	22.131
753.26	23.200
753.57	19.512
753.88	24.219
754.19	21.786
754.51	23.611
754.82	16.606
755.13	21.132
755.44	19.925
755.75	19.708
756.07	20.922
756.38	15.693
756.69	17.785
757.00	18.263
757.31	18.101
757.63	16.374
757.94	14.745
758.25	17.647
758.56	14.321
758.87	15.054
759.18	19.394
759.50	17.555
759.81	16.511
760.12	16.250
760.43	14.040
760.74	15.489
761.05	17.514
761.36	15.775
761.67	15.057
761.99	15.839
762.30	21.181
762.61	17.939
762.92	23.828
763.23	21.849
763.54	24.800
763.85	17.578
764.16	24.615
764.47	20.913
764.78	16.961
765.10	15.506
765.41	17.699
765.72	19.162
766.03	17.868
766.34	18.333
766.65	22.979
766.96	23.077
767.27	27.411
767.58	26.562
767.89	34.737
768.20	27.011
768.51	25.381
768.82	22.018
769.13	23.171
769.44	21.053
769.75	19.313
770.06	18.807
770.37	29.864
770.68	27.778
770.99	28.000
771.30	19.672
771.61	21.076
771.92	23.770
772.23	28.571
772.54	24.615
772.85	27.225
773.16	32.979
773.47	29.891
773.78	34.518
774.09	28.571
774.39	29.825
774.70	37.654
775.01	34.058
775.32	34.641
775.63	38.158
775.94	33.094
776.25	40.157
776.56	41.791
776.87	50.820
777.18	40.625
777.48	48.855
777.79	40.909
778.10	41.481
778.41	45.536
778.72	30.657
779.03	38.255
779.34	30.201
779.65	29.730
779.95	38.650
780.26	38.562
780.57	35.172
780.88	43.750
781.19	38.346
781.50	41.892
781.80	33.333
782.11	26.554
782.42	31.646
782.73	30.675
783.04	37.838
783.34	44.366
783.65	44.521
783.96	47.015
784.27	35.664
784.57	32.374
784.88	25.000
785.19	49.206
785.50	40.566
785.81	51.493
786.11	54.098
786.42	47.287
786.73	43.363
787.04	57.547
787.34	54.464
787.65	40.000
787.96	42.342
788.26	47.934
788.57	44.068
788.88	49.587
789.19	39.583
789.49	49.242
789.80	38.168
790.11	61.905
790.41	54.455
790.72	56.627
791.03	56.522
791.33	61.628
791.64	54.639
791.95	59.406
792.25	61.111
792.56	66.234
792.87	87.179
793.17	78.481
793.48	68.966
793.79	54.023
794.09	65.909
794.40	51.261
794.70	49.265
795.01	37.778
795.32	36.691
795.62	42.520
795.93	44.828
796.23	47.788
796.54	45.882
796.85	63.514
797.15	71.831
797.46	65.152
797.76	73.494
798.07	62.025
798.37	69.231
798.68	60.606
798.99	56.338
799.29	66.234
799.60	60.227
799.90	68.493
800.21	77.612
800.51	87.931
800.82	101.754
801.12	96.721
801.43	95.455
801.73	83.784
802.04	87.302
802.34	76.543
802.65	75.000
802.95	93.220
803.26	103.125
803.56	71.429
803.87	58.462
804.17	88.235
804.48	105.556
804.78	82.759
805.09	70.588
805.39	94.231
805.70	89.286
806.00	101.639
806.30	63.636
806.61	73.171
806.91	58.228
807.22	61.842
807.52	68.657
807.83	84.507
808.13	96.875
808.43	98.333
808.74	68.421
809.04	73.913
809.35	98.507
809.65	63.158
809.95	101.613
810.26	98.305
810.56	98.413
810.86	109.091
811.17	119.048
811.47	103.333
811.77	92.593
812.08	94.545
812.38	120.000
812.69	125.000
812.99	136.364
813.29	118.367
813.59	90.476
813.90	110.204
814.20	92.727
814.50	73.846
814.81	98.529
815.11	116.327
815.41	90.164
815.72	138.095
816.02	109.091
816.32	107.143
816.62	120.000
816.93	100.000
817.23	159.524
817.53	118.182
817.84	154.545
818.14	123.913
818.44	97.778
818.74	150.000
819.04	140.000
819.35	117.143
819.65	158.824
819.95	157.143
820.25	205.000
820.56	158.974
820.86	109.091
821.16	137.209
821.46	125.641
821.76	124.000
822.07	137.143
822.37	137.500
822.67	154.545
822.97	90.196
823.27	171.429
823.57	143.243
823.88	150.000
824.18	180.000
824.48	147.619
824.78	180.000
825.08	150.000
825.38	159.459
825.69	114.634
825.99	200.000
826.29	168.966
826.59	147.368
826.89	139.474
827.19	164.706
827.49	193.548
827.79	122.727
828.09	102.273
828.39	104.255
828.70	120.408
829.00	140.741
829.30	116.129
829.60	132.500
829.90	246.667
830.20	178.571
830.50	208.696
830.80	234.783
831.10	196.667
831.40	156.667
831.70	169.565
832.00	188.462
832.30	222.222
832.60	262.500
832.90	210.000
833.20	471.429
833.50	180.645
833.80	155.172
834.10	150.000
834.40	180.769
834.70	266.667
835.00	280.952
835.30	140.000
835.60	315.385
835.90	220.690
836.20	307.143
836.50	189.655
836.80	180.000
837.10	152.778
837.40	242.857
837.70	288.235
838.00	196.296
838.30	219.048
838.60	300.000
838.90	200.000
839.19	225.000
839.49	328.571
839.79	270.000
840.09	255.000
840.39	247.619
840.69	213.043
840.99	255.556
841.29	480.000
841.59	308.333
841.88	312.500
842.18	179.310
842.48	252.381
842.78	190.000
843.08	256.522
843.38	175.000
843.68	850.000
843.97	223.077
844.27	186.207
844.57	319.048
844.87	356.250
845.17	185.185
845.47	1666.667
845.76	422.222
846.06	311.765
846.36	475.000
846.66	385.714
846.96	356.250
847.25	336.364
847.55	436.364
847.85	243.478
848.15	420.000
848.44	357.143
848.74	277.778
849.04	288.235
849.34	490.000
849.63	242.105
849.93	427.273
850.23	900.000
850.53	414.286
850.82	2450.000
851.12	-5200.000
851.42	4600.000
851.71	255.000
852.01	-1100.000
852.31	270.833
852.61	1500.000
852.90	309.524
853.20	208.000
853.50	329.412
853.79	223.810
854.09	204.167
854.39	312.500
854.68	194.595
854.98	167.742
855.28	190.000
855.57	196.552
855.87	207.407
856.17	247.368
856.46	253.333
856.76	258.824
857.05	196.552
857.35	250.000
857.65	300.000
857.94	204.348
858.24	261.538
858.53	220.000
858.83	204.545
859.13	386.667
859.42	0.000
859.72	600.000
860.01	436.364
860.31	227.273
860.60	236.842
860.90	213.043
861.20	566.667
861.49	525.000
861.79	-4600.000
862.08	612.500
862.38	238.095
862.67	315.385
862.97	388.235
863.26	633.333
863.56	288.889
863.85	350.000
864.15	575.000
864.44	386.667
864.74	850.000
865.03	687.500
865.33	300.000
865.62	363.636
865.92	400.000
866.21	300.000
866.51	0.000
866.80	518.182
867.10	1060.000
867.39	438.462
867.69	500.000
867.98	305.263
868.27	500.000
868.57	336.842
868.86	-4900.000
869.16	337.500
869.45	2500.000
869.75	-4000.000
870.04	441.667
870.33	528.571
870.63	850.000
870.92	2400.000
871.22	714.286
871.51	358.824
871.80	228.571
872.10	350.000
>>>>>End Processed Spectral Data<<<<<
