SpectraSuite Data File
++++++++++++++++++++++++++++++++++++
Date: Wed May 13 19:43:09 PDT 2015
User: schluterlab
Dark Spectrum Present: Yes
Reference Spectrum Present: Yes
Number of Sampled Component Spectra: 1
Spectrometers: USB2E3373
Integration Time (usec): 3000 (USB2E3373)
Spectra Averaged: 3 (USB2E3373)
Boxcar Smoothing: 0 (USB2E3373)
Correct for Electrical Dark: No (USB2E3373)
Strobe/Lamp Enabled: No (USB2E3373)
Correct for Detector Non-linearity: No (USB2E3373)
Correct for Stray Light: No (USB2E3373)
Number of Pixels in Processed Spectrum: 2048
>>>>>Begin Processed Spectral Data<<<<<
178.53	0.000
178.91	-1275.000
179.29	-1175.000
179.67	-233.333
180.04	-1325.000
180.42	2750.000
180.80	1060.000
181.18	-1175.000
181.56	671.429
181.94	0.000
182.31	-771.429
182.69	1833.333
183.07	-550.000
183.45	-533.333
183.83	600.000
184.20	-430.000
184.58	2300.000
184.96	4400.000
185.34	-880.000
185.72	-575.000
186.09	-2950.000
186.47	2600.000
186.85	2300.000
187.23	5100.000
187.61	-1900.000
187.98	1325.000
188.36	527.273
188.74	518.182
189.12	-860.000
189.49	580.000
189.87	-5600.000
190.25	-1125.000
190.63	321.429
191.00	476.923
191.38	950.000
191.76	-1075.000
192.14	1375.000
192.51	725.000
192.89	966.667
193.27	537.500
193.65	-1175.000
194.02	490.000
194.40	1080.000
194.78	570.000
195.15	475.000
195.53	610.000
195.91	-2000.000
196.29	381.250
196.66	305.263
197.04	-400.000
197.42	0.000
197.79	550.000
198.17	-4500.000
198.55	728.571
198.92	762.500
199.30	960.000
199.68	0.000
200.05	338.889
200.43	857.143
200.81	3900.000
201.18	1700.000
201.56	-1533.333
201.94	633.333
202.31	600.000
202.69	416.667
203.07	570.000
203.44	0.000
203.82	1050.000
204.19	828.571
204.57	442.857
204.95	537.500
205.32	1700.000
205.70	500.000
206.08	350.000
206.45	2800.000
206.83	387.500
207.20	1033.333
207.58	700.000
207.96	305.556
208.33	775.000
208.71	-750.000
209.08	700.000
209.46	588.889
209.84	436.364
210.21	-1600.000
210.59	1400.000
210.96	-487.500
211.34	2050.000
211.71	570.000
212.09	733.333
212.46	0.000
212.84	1766.667
213.22	1400.000
213.59	-4900.000
213.97	783.333
214.34	757.143
214.72	609.091
215.09	960.000
215.47	-2500.000
215.84	-2550.000
216.22	1633.333
216.59	335.714
216.97	1275.000
217.34	390.909
217.72	-650.000
218.09	0.000
218.47	-5400.000
218.84	633.333
219.22	642.857
219.59	1666.667
219.97	-671.429
220.34	960.000
220.72	-1533.333
221.09	414.286
221.47	1525.000
221.84	-816.667
222.22	0.000
222.59	1350.000
222.97	-2900.000
223.34	1180.000
223.72	392.308
224.09	980.000
224.46	2150.000
224.84	-5300.000
225.21	-920.000
225.59	-6200.000
225.96	540.000
226.34	265.000
226.71	2450.000
227.08	500.000
227.46	560.000
227.83	-950.000
228.21	-2000.000
228.58	622.222
228.95	-2700.000
229.33	-2300.000
229.70	1733.333
230.08	757.143
230.45	-880.000
230.82	416.667
231.20	600.000
231.57	657.143
231.95	491.667
232.32	218.182
232.69	381.818
233.07	685.714
233.44	369.231
233.81	-1566.667
234.19	231.579
234.56	450.000
234.93	358.333
235.31	500.000
235.68	376.923
236.05	328.571
236.43	181.818
236.80	247.368
237.17	4300.000
237.55	228.571
237.92	178.571
238.29	228.571
238.67	148.387
239.04	179.310
239.41	147.222
239.79	95.652
240.16	104.762
240.53	136.364
240.91	66.667
241.28	90.000
241.65	76.000
242.02	75.362
242.40	74.194
242.77	76.667
243.14	55.914
243.51	65.169
243.89	63.529
244.26	46.667
244.63	49.462
245.00	47.872
245.38	50.495
245.75	42.991
246.12	33.028
246.49	44.526
246.87	47.200
247.24	41.538
247.61	33.571
247.98	29.412
248.36	29.054
248.73	34.395
249.10	37.580
249.47	29.379
249.84	33.690
250.22	27.807
250.59	25.444
250.96	27.778
251.33	27.488
251.70	28.713
252.08	22.381
252.45	22.422
252.82	25.217
253.19	23.404
253.56	21.569
253.94	19.087
254.31	19.922
254.68	24.231
255.05	19.926
255.42	18.293
255.79	19.853
256.16	23.105
256.54	16.254
256.91	22.420
257.28	14.748
257.65	16.172
258.02	18.012
258.39	17.035
258.76	15.385
259.14	17.857
259.51	13.982
259.88	15.217
260.25	18.731
260.62	16.185
260.99	12.112
261.36	16.517
261.73	13.467
262.10	15.116
262.47	14.648
262.85	15.320
263.22	11.396
263.59	16.239
263.96	14.011
264.33	12.794
264.70	14.211
265.07	16.368
265.44	12.626
265.81	12.895
266.18	15.075
266.55	11.463
266.92	14.005
267.29	15.046
267.66	13.761
268.03	12.045
268.40	12.150
268.77	9.069
269.14	11.937
269.51	13.995
269.88	10.723
270.25	12.415
270.62	11.011
270.99	12.473
271.36	11.159
271.73	10.514
272.10	13.696
272.47	9.247
272.84	13.636
273.21	14.885
273.58	10.917
273.95	9.853
274.32	10.537
274.69	11.135
275.06	9.449
275.43	11.702
275.80	9.419
276.17	10.591
276.54	12.266
276.91	11.858
277.28	10.938
277.65	12.186
278.02	8.282
278.39	12.305
278.76	10.182
279.13	11.887
279.50	11.732
279.87	8.566
280.23	8.782
280.60	8.897
280.97	8.872
281.34	10.088
281.71	11.091
282.08	10.173
282.45	9.091
282.82	9.414
283.19	7.665
283.56	7.544
283.92	9.137
284.29	10.229
284.66	10.345
285.03	9.584
285.40	7.746
285.77	8.754
286.14	9.326
286.51	10.000
286.87	10.769
287.24	9.609
287.61	9.149
287.98	9.253
288.35	6.815
288.72	9.034
289.08	9.390
289.45	9.061
289.82	9.268
290.19	7.221
290.56	8.116
290.93	6.949
291.29	7.515
291.66	7.375
292.03	9.884
292.40	9.545
292.77	8.284
293.13	8.955
293.50	7.872
293.87	7.852
294.24	7.111
294.60	6.696
294.97	6.831
295.34	9.309
295.71	8.949
296.08	7.692
296.44	7.840
296.81	7.001
297.18	9.079
297.55	5.277
297.91	7.124
298.28	7.764
298.65	7.833
299.02	7.773
299.38	5.710
299.75	5.256
300.12	5.875
300.48	7.250
300.85	7.028
301.22	6.115
301.59	6.692
301.95	7.557
302.32	7.317
302.69	6.093
303.05	6.182
303.42	6.173
303.79	6.569
304.15	4.429
304.52	5.562
304.89	6.504
305.25	6.032
305.62	6.908
305.99	6.257
306.35	5.928
306.72	6.054
307.09	6.548
307.45	6.532
307.82	4.799
308.19	6.954
308.55	5.717
308.92	6.122
309.29	5.385
309.65	5.726
310.02	5.920
310.38	5.806
310.75	6.019
311.12	6.346
311.48	7.315
311.85	6.289
312.22	6.243
312.58	4.886
312.95	7.075
313.31	4.660
313.68	5.925
314.05	7.495
314.41	6.231
314.78	6.344
315.14	6.256
315.51	6.694
315.87	6.535
316.24	5.660
316.61	6.043
316.97	5.871
317.34	4.990
317.70	6.310
318.07	5.486
318.43	6.067
318.80	6.748
319.16	6.685
319.53	5.910
319.89	7.333
320.26	7.000
320.62	6.548
320.99	6.869
321.35	6.566
321.72	6.982
322.08	6.713
322.45	7.164
322.81	6.105
323.18	6.840
323.54	7.050
323.91	7.358
324.27	6.405
324.64	5.592
325.00	6.492
325.37	6.915
325.73	7.989
326.10	6.531
326.46	6.183
326.83	7.248
327.19	5.892
327.56	4.878
327.92	6.474
328.29	7.276
328.65	6.354
329.01	7.130
329.38	6.198
329.74	6.464
330.11	6.975
330.47	7.713
330.84	8.915
331.20	6.375
331.56	6.422
331.93	6.852
332.29	5.945
332.66	7.345
333.02	7.313
333.38	6.323
333.75	7.308
334.11	7.829
334.48	7.010
334.84	7.169
335.20	7.273
335.57	7.253
335.93	4.821
336.29	6.502
336.66	7.033
337.02	5.701
337.38	6.667
337.75	6.239
338.11	7.073
338.47	5.249
338.84	6.874
339.20	6.239
339.56	7.482
339.93	5.273
340.29	5.888
340.65	6.328
341.02	6.108
341.38	6.673
341.74	5.702
342.11	6.288
342.47	5.815
342.83	6.250
343.20	7.186
343.56	6.655
343.92	6.404
344.28	6.633
344.65	6.879
345.01	6.650
345.37	5.660
345.73	6.261
346.10	6.053
346.46	7.373
346.82	6.178
347.19	5.514
347.55	5.829
347.91	5.987
348.27	6.656
348.63	5.769
349.00	5.663
349.36	5.747
349.72	6.816
350.08	6.240
350.45	6.753
350.81	5.280
351.17	6.078
351.53	5.160
351.89	5.446
352.26	6.393
352.62	6.095
352.98	5.916
353.34	5.341
353.70	4.992
354.07	5.887
354.43	5.794
354.79	6.114
355.15	5.587
355.51	6.475
355.87	5.469
356.24	6.678
356.60	5.052
356.96	5.953
357.32	6.214
357.68	6.063
358.04	6.651
358.40	6.730
358.77	5.634
359.13	5.367
359.49	6.118
359.85	4.603
360.21	4.944
360.57	5.759
360.93	5.846
361.29	5.896
361.66	4.876
362.02	5.448
362.38	4.943
362.74	6.027
363.10	5.107
363.46	4.842
363.82	5.593
364.18	6.314
364.54	5.795
364.90	5.666
365.26	4.485
365.62	4.383
365.98	5.332
366.35	4.943
366.71	5.785
367.07	4.807
367.43	4.862
367.79	5.139
368.15	6.537
368.51	4.433
368.87	5.139
369.23	4.901
369.59	5.648
369.95	4.853
370.31	5.556
370.67	5.072
371.03	5.618
371.39	5.539
371.75	4.926
372.11	5.050
372.47	5.059
372.83	5.692
373.19	4.697
373.55	4.952
373.91	6.333
374.27	4.467
374.63	5.091
374.99	5.367
375.35	4.466
375.71	4.181
376.07	5.967
376.42	4.677
376.78	6.362
377.14	5.292
377.50	5.298
377.86	4.588
378.22	4.804
378.58	4.449
378.94	4.651
379.30	4.071
379.66	4.695
380.02	4.607
380.38	4.614
380.74	4.622
381.09	5.257
381.45	5.101
381.81	5.098
382.17	4.713
382.53	4.780
382.89	4.815
383.25	4.440
383.61	4.833
383.97	4.941
384.32	4.991
384.68	4.151
385.04	4.487
385.40	4.768
385.76	4.853
386.12	4.793
386.48	4.405
386.83	4.618
387.19	4.886
387.55	5.257
387.91	4.293
388.27	4.476
388.62	5.286
388.98	4.361
389.34	5.069
389.70	4.537
390.06	4.880
390.42	4.799
390.77	5.280
391.13	3.701
391.49	5.076
391.85	4.328
392.20	4.290
392.56	4.482
392.92	4.591
393.28	3.491
393.64	4.916
393.99	4.704
394.35	3.970
394.71	4.956
395.07	5.047
395.42	4.388
395.78	4.453
396.14	5.028
396.50	4.950
396.85	4.259
397.21	4.192
397.57	4.588
397.92	4.387
398.28	3.643
398.64	4.779
399.00	4.421
399.35	4.174
399.71	4.225
400.07	5.322
400.42	5.031
400.78	4.704
401.14	4.207
401.49	4.179
401.85	3.932
402.21	3.832
402.57	4.010
402.92	4.540
403.28	4.560
403.63	4.455
403.99	3.567
404.35	4.788
404.70	4.317
405.06	4.368
405.42	4.679
405.77	3.543
406.13	4.007
406.49	5.204
406.84	4.962
407.20	4.137
407.55	5.169
407.91	4.533
408.27	3.957
408.62	4.515
408.98	4.350
409.34	4.613
409.69	4.710
410.05	4.337
410.40	4.465
410.76	3.584
411.11	4.946
411.47	5.048
411.83	4.582
412.18	4.576
412.54	4.545
412.89	4.880
413.25	4.427
413.60	4.818
413.96	4.797
414.31	4.070
414.67	5.133
415.03	4.503
415.38	5.541
415.74	4.695
416.09	5.095
416.45	4.552
416.80	4.825
417.16	5.764
417.51	5.574
417.87	4.496
418.22	4.732
418.58	5.617
418.93	4.914
419.29	4.774
419.64	5.479
420.00	5.061
420.35	4.870
420.71	4.961
421.06	4.833
421.42	4.795
421.77	5.157
422.12	4.492
422.48	3.508
422.83	5.067
423.19	5.249
423.54	4.643
423.90	5.391
424.25	4.969
424.61	4.762
424.96	4.490
425.31	5.260
425.67	4.607
426.02	4.857
426.38	5.067
426.73	5.091
427.09	4.134
427.44	4.313
427.79	4.083
428.15	5.179
428.50	5.032
428.85	5.244
429.21	4.197
429.56	4.562
429.92	4.227
430.27	4.816
430.62	3.943
430.98	4.878
431.33	4.794
431.68	4.921
432.04	4.366
432.39	4.340
432.74	5.147
433.10	4.131
433.45	4.373
433.80	3.991
434.16	4.861
434.51	4.737
434.86	5.017
435.22	4.503
435.57	5.350
435.92	4.154
436.28	4.567
436.63	5.519
436.98	4.694
437.34	5.367
437.69	5.018
438.04	4.497
438.39	4.836
438.75	4.939
439.10	4.693
439.45	5.372
439.81	4.834
440.16	4.235
440.51	5.331
440.86	5.096
441.22	5.061
441.57	4.830
441.92	4.657
442.27	4.736
442.63	4.423
442.98	5.972
443.33	4.891
443.68	4.543
444.03	4.636
444.39	3.213
444.74	5.141
445.09	4.582
445.44	4.538
445.79	4.503
446.15	5.188
446.50	4.254
446.85	4.573
447.20	4.946
447.55	4.858
447.91	4.413
448.26	4.897
448.61	4.748
448.96	5.869
449.31	5.231
449.66	4.783
450.02	4.958
450.37	4.989
450.72	4.569
451.07	3.900
451.42	4.498
451.77	5.813
452.12	4.850
452.47	5.224
452.83	5.012
453.18	5.318
453.53	5.442
453.88	4.194
454.23	5.021
454.58	5.754
454.93	5.594
455.28	4.676
455.63	5.340
455.98	5.298
456.34	5.025
456.69	5.886
457.04	4.706
457.39	4.500
457.74	4.875
458.09	5.405
458.44	5.188
458.79	5.260
459.14	4.289
459.49	5.079
459.84	4.986
460.19	4.478
460.54	5.266
460.89	4.279
461.24	5.282
461.59	5.869
461.94	4.747
462.29	6.231
462.64	5.552
462.99	4.945
463.34	5.933
463.69	4.878
464.04	5.507
464.39	5.333
464.74	5.051
465.09	5.066
465.44	4.377
465.79	4.922
466.14	5.255
466.49	5.006
466.84	4.962
467.19	5.673
467.54	5.812
467.89	5.822
468.24	5.701
468.59	5.067
468.94	4.704
469.29	4.949
469.64	6.493
469.99	5.480
470.34	5.020
470.68	4.670
471.03	4.830
471.38	5.351
471.73	5.663
472.08	5.526
472.43	6.533
472.78	5.530
473.13	5.712
473.48	5.431
473.83	5.549
474.17	4.605
474.52	4.839
474.87	5.779
475.22	5.107
475.57	4.782
475.92	4.673
476.27	5.073
476.61	4.688
476.96	5.003
477.31	4.553
477.66	5.088
478.01	4.705
478.36	5.235
478.70	4.309
479.05	5.272
479.40	4.401
479.75	5.084
480.10	4.423
480.45	4.331
480.79	4.252
481.14	4.843
481.49	4.699
481.84	4.481
482.19	4.362
482.53	4.817
482.88	4.700
483.23	4.486
483.58	5.005
483.92	4.592
484.27	4.401
484.62	4.310
484.97	4.099
485.31	4.075
485.66	2.974
486.01	2.874
486.36	2.917
486.70	2.782
487.05	3.383
487.40	3.473
487.75	3.450
488.09	3.336
488.44	3.202
488.79	3.761
489.13	4.163
489.48	4.201
489.83	3.582
490.17	4.340
490.52	4.296
490.87	3.935
491.22	4.593
491.56	3.690
491.91	4.188
492.26	4.364
492.60	4.931
492.95	4.116
493.30	3.972
493.64	4.153
493.99	4.643
494.34	4.209
494.68	4.487
495.03	4.652
495.37	4.421
495.72	4.337
496.07	4.687
496.41	4.115
496.76	4.529
497.11	4.232
497.45	4.518
497.80	4.798
498.14	4.155
498.49	4.146
498.84	4.842
499.18	4.476
499.53	4.416
499.87	4.194
500.22	4.757
500.56	5.000
500.91	3.942
501.26	4.884
501.60	4.888
501.95	4.308
502.29	4.311
502.64	4.749
502.98	4.021
503.33	4.616
503.67	4.687
504.02	4.724
504.36	4.773
504.71	4.739
505.06	4.482
505.40	4.764
505.75	4.822
506.09	4.616
506.44	4.539
506.78	4.822
507.13	4.240
507.47	5.101
507.82	4.813
508.16	5.117
508.51	4.566
508.85	4.667
509.19	3.878
509.54	5.204
509.88	4.740
510.23	4.730
510.57	5.366
510.92	4.713
511.26	4.779
511.61	4.772
511.95	4.384
512.30	4.189
512.64	4.567
512.98	4.502
513.33	5.193
513.67	4.589
514.02	4.924
514.36	5.298
514.70	5.313
515.05	4.741
515.39	5.440
515.74	5.011
516.08	4.863
516.42	5.494
516.77	5.240
517.11	4.828
517.46	5.926
517.80	5.168
518.14	4.053
518.49	5.134
518.83	5.795
519.17	5.254
519.52	4.924
519.86	4.963
520.20	5.780
520.55	4.967
520.89	5.474
521.23	5.850
521.58	5.222
521.92	5.511
522.26	5.552
522.61	4.798
522.95	5.525
523.29	5.417
523.64	5.793
523.98	5.545
524.32	5.489
524.66	6.013
525.01	5.944
525.35	5.452
525.69	4.988
526.04	5.607
526.38	5.003
526.72	5.337
527.06	5.524
527.41	4.332
527.75	5.273
528.09	6.166
528.43	6.246
528.78	5.962
529.12	5.394
529.46	5.389
529.80	5.507
530.15	6.417
530.49	5.538
530.83	6.139
531.17	5.548
531.51	6.615
531.86	6.065
532.20	6.323
532.54	6.086
532.88	6.033
533.22	5.621
533.57	6.481
533.91	5.238
534.25	5.772
534.59	5.796
534.93	6.127
535.27	5.492
535.62	6.105
535.96	5.650
536.30	5.086
536.64	5.860
536.98	6.304
537.32	6.452
537.66	6.267
538.01	6.320
538.35	6.076
538.69	6.637
539.03	5.783
539.37	5.304
539.71	4.990
540.05	5.621
540.39	5.316
540.73	6.339
541.07	6.684
541.42	6.197
541.76	6.129
542.10	6.080
542.44	5.497
542.78	6.324
543.12	5.758
543.46	6.820
543.80	6.181
544.14	5.712
544.48	5.651
544.82	6.030
545.16	6.051
545.50	6.234
545.84	5.376
546.18	6.195
546.52	6.056
546.86	5.911
547.20	6.406
547.54	5.544
547.88	7.398
548.22	5.853
548.56	5.975
548.90	5.506
549.24	5.455
549.58	6.480
549.92	5.220
550.26	5.753
550.60	6.293
550.94	5.423
551.28	5.194
551.62	6.686
551.96	5.754
552.30	6.553
552.64	5.747
552.98	6.576
553.32	6.204
553.66	6.544
554.00	6.658
554.34	5.935
554.68	6.724
555.02	5.853
555.36	6.472
555.69	6.022
556.03	5.855
556.37	6.003
556.71	5.935
557.05	6.793
557.39	6.438
557.73	6.210
558.07	6.019
558.41	5.716
558.75	6.172
559.08	6.413
559.42	6.122
559.76	6.765
560.10	5.996
560.44	6.010
560.78	5.921
561.12	5.541
561.45	6.845
561.79	6.131
562.13	6.506
562.47	5.943
562.81	6.346
563.15	6.154
563.48	6.034
563.82	6.001
564.16	5.755
564.50	5.013
564.84	5.436
565.17	5.212
565.51	5.240
565.85	5.774
566.19	5.448
566.52	5.636
566.86	5.063
567.20	6.486
567.54	5.708
567.88	4.889
568.21	5.344
568.55	4.904
568.89	4.718
569.23	4.724
569.56	4.453
569.90	4.415
570.24	4.377
570.57	4.352
570.91	3.943
571.25	4.015
571.59	4.183
571.92	3.888
572.26	4.015
572.60	3.784
572.93	3.988
573.27	3.845
573.61	4.271
573.95	3.824
574.28	3.693
574.62	3.547
574.96	3.632
575.29	3.540
575.63	3.989
575.97	3.775
576.30	4.116
576.64	3.437
576.98	3.549
577.31	2.981
577.65	3.431
577.98	3.337
578.32	3.356
578.66	3.564
578.99	3.629
579.33	3.316
579.67	3.284
580.00	3.500
580.34	3.654
580.67	3.545
581.01	4.025
581.35	3.457
581.68	3.422
582.02	3.218
582.35	3.110
582.69	3.373
583.02	3.411
583.36	3.505
583.70	3.746
584.03	3.501
584.37	3.742
584.70	3.474
585.04	3.816
585.37	3.705
585.71	3.665
586.04	3.914
586.38	3.605
586.72	4.198
587.05	3.749
587.39	3.641
587.72	3.556
588.06	3.762
588.39	4.115
588.73	4.165
589.06	3.833
589.40	4.040
589.73	3.977
590.07	4.448
590.40	4.311
590.73	4.059
591.07	4.314
591.40	5.061
591.74	4.892
592.07	4.538
592.41	4.299
592.74	4.157
593.08	4.197
593.41	4.049
593.75	4.060
594.08	4.123
594.41	4.489
594.75	3.956
595.08	4.188
595.42	4.378
595.75	4.380
596.09	4.243
596.42	4.676
596.75	4.432
597.09	5.455
597.42	4.216
597.75	4.916
598.09	4.696
598.42	4.639
598.76	4.297
599.09	3.991
599.42	4.330
599.76	4.319
600.09	4.153
600.42	4.492
600.76	3.929
601.09	4.372
601.42	4.148
601.76	4.364
602.09	4.032
602.42	4.936
602.76	5.159
603.09	4.327
603.42	4.529
603.76	4.268
604.09	4.265
604.42	4.117
604.76	4.935
605.09	4.543
605.42	4.831
605.75	4.470
606.09	4.392
606.42	4.046
606.75	4.770
607.09	4.981
607.42	3.937
607.75	4.262
608.08	4.255
608.42	4.572
608.75	4.689
609.08	4.302
609.41	5.664
609.75	4.002
610.08	4.665
610.41	4.376
610.74	4.021
611.07	4.150
611.41	5.103
611.74	5.279
612.07	5.021
612.40	5.194
612.73	4.526
613.07	5.065
613.40	4.897
613.73	4.195
614.06	4.731
614.39	4.877
614.72	5.263
615.06	5.200
615.39	4.406
615.72	5.419
616.05	4.891
616.38	5.336
616.71	5.226
617.05	5.654
617.38	5.352
617.71	5.165
618.04	5.108
618.37	5.381
618.70	5.165
619.03	5.329
619.36	5.635
619.69	6.197
620.03	6.937
620.36	6.484
620.69	5.822
621.02	6.785
621.35	6.265
621.68	5.919
622.01	6.502
622.34	6.581
622.67	6.084
623.00	5.723
623.33	5.790
623.66	6.576
623.99	5.302
624.32	5.849
624.65	6.921
624.99	5.312
625.32	5.503
625.65	6.086
625.98	6.457
626.31	6.921
626.64	7.510
626.97	6.068
627.30	6.318
627.63	7.875
627.96	6.897
628.29	7.174
628.62	6.862
628.95	8.585
629.28	7.026
629.61	7.608
629.94	6.476
630.26	7.150
630.59	7.531
630.92	7.184
631.25	6.219
631.58	7.207
631.91	6.897
632.24	7.173
632.57	7.555
632.90	6.908
633.23	8.277
633.56	8.927
633.89	7.701
634.22	7.605
634.55	7.929
634.88	7.665
635.20	8.722
635.53	9.518
635.86	8.416
636.19	8.118
636.52	8.420
636.85	8.820
637.18	7.719
637.51	8.629
637.83	6.412
638.16	8.312
638.49	8.690
638.82	9.355
639.15	8.125
639.48	10.349
639.81	9.115
640.13	8.984
640.46	9.933
640.79	8.851
641.12	7.840
641.45	10.335
641.77	8.984
642.10	9.064
642.43	8.559
642.76	9.598
643.09	9.509
643.41	8.194
643.74	9.568
644.07	9.146
644.40	11.350
644.73	11.969
645.05	12.995
645.38	9.479
645.71	10.950
646.04	11.296
646.36	11.185
646.69	12.709
647.02	10.034
647.35	10.653
647.67	9.735
648.00	12.195
648.33	9.901
648.66	9.697
648.98	10.945
649.31	7.922
649.64	10.164
649.96	9.091
650.29	10.111
650.62	9.061
650.94	10.373
651.27	10.473
651.60	12.646
651.92	11.821
652.25	11.075
652.58	10.748
652.90	10.427
653.23	8.937
653.56	8.819
653.88	10.777
654.21	12.164
654.54	10.396
654.86	9.813
655.19	7.838
655.52	4.065
655.84	2.321
656.17	2.573
656.49	3.369
656.82	3.378
657.15	2.756
657.47	2.096
657.80	1.773
658.13	1.638
658.45	2.489
658.78	3.031
659.10	3.171
659.43	3.710
659.75	4.377
660.08	4.557
660.41	7.169
660.73	9.784
661.06	9.395
661.38	12.545
661.71	12.308
662.03	14.201
662.36	9.344
662.68	11.044
663.01	12.727
663.33	10.403
663.66	10.714
663.98	12.095
664.31	11.134
664.63	11.538
664.96	10.664
665.28	12.500
665.61	11.306
665.93	11.871
666.26	12.170
666.58	11.297
666.91	13.531
667.23	12.135
667.56	11.231
667.88	13.034
668.21	15.565
668.53	13.015
668.86	11.905
669.18	14.499
669.50	13.913
669.83	16.776
670.15	14.889
670.48	11.765
670.80	13.362
671.13	13.588
671.45	11.702
671.77	10.387
672.10	11.275
672.42	10.777
672.75	10.779
673.07	11.796
673.39	9.946
673.72	10.547
674.04	11.373
674.37	11.845
674.69	12.474
675.01	10.251
675.34	15.811
675.66	14.105
675.98	14.053
676.31	13.655
676.63	14.013
676.95	13.836
677.28	10.981
677.60	10.989
677.92	14.768
678.25	12.115
678.57	10.956
678.89	12.024
679.22	10.020
679.54	11.260
679.86	11.376
680.18	8.408
680.51	10.461
680.83	11.210
681.15	12.453
681.48	12.854
681.80	9.865
682.12	10.920
682.44	10.445
682.77	12.016
683.09	14.378
683.41	13.525
683.73	12.583
684.06	14.256
684.38	11.742
684.70	11.047
685.02	12.383
685.34	9.890
685.67	8.566
685.99	8.763
686.31	10.580
686.63	8.657
686.96	11.250
687.28	10.289
687.60	9.420
687.92	12.431
688.24	11.977
688.56	13.655
688.89	12.241
689.21	13.755
689.53	14.196
689.85	12.417
690.17	12.422
690.49	12.739
690.82	11.215
691.14	11.384
691.46	10.338
691.78	13.052
692.10	14.050
692.42	12.974
692.74	10.581
693.06	11.277
693.39	13.347
693.71	10.917
694.03	14.737
694.35	10.606
694.67	12.128
694.99	15.366
695.31	12.500
695.63	12.440
695.95	14.181
696.27	10.406
696.59	12.953
696.91	14.767
697.23	8.685
697.56	14.925
697.88	11.656
698.20	10.625
698.52	12.473
698.84	13.363
699.16	12.212
699.48	13.302
699.80	16.425
700.12	12.727
700.44	16.446
700.76	12.983
701.08	14.943
701.40	15.922
701.72	16.618
702.04	21.023
702.36	14.164
702.68	15.864
703.00	15.789
703.32	12.234
703.64	16.622
703.96	15.877
704.28	15.407
704.60	14.370
704.91	16.914
705.23	18.475
705.55	17.940
705.87	21.262
706.19	18.021
706.51	19.315
706.83	16.364
707.15	17.367
707.47	12.879
707.79	14.005
708.11	15.297
708.43	13.571
708.74	14.031
709.06	16.883
709.38	16.010
709.70	16.570
710.02	21.068
710.34	17.879
710.66	14.627
710.98	17.898
711.29	17.151
711.61	19.469
711.93	15.705
712.25	21.222
712.57	15.441
712.89	15.571
713.20	20.061
713.52	19.079
713.84	15.506
714.16	17.683
714.48	14.943
714.80	20.669
715.11	15.274
715.43	13.056
715.75	13.333
716.07	18.530
716.39	13.793
716.70	21.262
717.02	20.144
717.34	20.495
717.66	20.149
717.97	23.506
718.29	19.630
718.61	21.898
718.93	16.912
719.24	16.955
719.56	17.288
719.88	19.661
720.20	19.595
720.51	18.118
720.83	21.933
721.15	17.910
721.46	23.050
721.78	22.222
722.10	17.736
722.42	22.556
722.73	16.479
723.05	16.803
723.37	16.194
723.68	16.216
724.00	17.886
724.32	21.774
724.63	20.732
724.95	18.410
725.27	22.267
725.58	19.141
725.90	18.978
726.22	18.868
726.53	19.097
726.85	17.406
727.16	22.776
727.48	22.695
727.80	23.864
728.11	20.652
728.43	20.385
728.74	21.147
729.06	23.723
729.38	21.691
729.69	19.929
730.01	16.724
730.32	17.361
730.64	16.722
730.96	15.182
731.27	20.861
731.59	17.737
731.90	18.659
732.22	16.149
732.53	15.789
732.85	16.026
733.16	18.006
733.48	17.940
733.80	16.883
734.11	18.153
734.43	17.751
734.74	14.857
735.06	12.321
735.37	20.231
735.69	12.102
736.00	16.667
736.32	19.003
736.63	19.808
736.95	20.128
737.26	14.966
737.58	18.065
737.89	17.391
738.21	17.747
738.52	21.429
738.83	16.604
739.15	16.154
739.46	22.263
739.78	17.361
740.09	19.692
740.41	20.000
740.72	16.725
741.04	20.741
741.35	22.917
741.66	27.111
741.98	25.000
742.29	25.359
742.61	31.466
742.92	19.457
743.23	23.077
743.55	24.400
743.86	20.175
744.18	28.761
744.49	24.402
744.80	23.944
745.12	25.909
745.43	24.670
745.74	29.279
746.06	23.853
746.37	26.906
746.68	26.244
747.00	31.944
747.31	22.857
747.62	18.584
747.94	26.432
748.25	20.851
748.56	23.348
748.88	25.248
749.19	30.500
749.50	22.791
749.82	25.203
750.13	19.592
750.44	20.073
750.75	22.105
751.07	21.222
751.38	21.603
751.69	23.105
752.01	19.925
752.32	16.968
752.63	20.567
752.94	16.393
753.26	24.000
753.57	17.073
753.88	17.578
754.19	21.429
754.51	21.181
754.82	14.801
755.13	20.755
755.44	22.556
755.75	20.803
756.07	16.667
756.38	15.328
756.69	18.792
757.00	17.365
757.31	17.804
757.63	17.836
757.94	16.354
758.25	14.706
758.56	14.568
758.87	14.516
759.18	18.788
759.50	15.047
759.81	19.938
760.12	15.625
760.43	17.765
760.74	14.674
761.05	14.972
761.36	14.973
761.67	15.341
761.99	18.323
762.30	19.444
762.61	16.412
762.92	23.828
763.23	21.429
763.54	23.600
763.85	18.359
764.16	25.000
764.47	24.335
764.78	20.495
765.10	14.241
765.41	17.699
765.72	17.964
766.03	18.809
766.34	18.667
766.65	21.277
766.96	21.795
767.27	23.350
767.58	29.167
767.89	30.526
768.20	27.586
768.51	28.426
768.82	26.606
769.13	24.390
769.44	22.672
769.75	21.030
770.06	17.890
770.37	28.054
770.68	23.611
770.99	22.222
771.30	17.213
771.61	27.803
771.92	20.902
772.23	28.992
772.54	27.179
772.85	26.702
773.16	30.851
773.47	30.978
773.78	32.995
774.09	34.524
774.39	31.579
774.70	38.889
775.01	39.130
775.32	35.948
775.63	36.184
775.94	30.216
776.25	41.732
776.56	40.299
776.87	44.262
777.18	46.094
777.48	52.672
777.79	39.394
778.10	45.185
778.41	50.893
778.72	39.416
779.03	34.228
779.34	31.544
779.65	38.514
779.95	37.423
780.26	35.948
780.57	40.690
780.88	48.438
781.19	36.090
781.50	39.865
781.80	39.623
782.11	28.249
782.42	30.380
782.73	33.129
783.04	35.811
783.34	38.028
783.65	45.890
783.96	32.090
784.27	37.063
784.57	33.094
784.88	34.259
785.19	46.032
785.50	37.736
785.81	48.507
786.11	43.443
786.42	37.984
786.73	53.097
787.04	44.340
787.34	47.321
787.65	50.000
787.96	47.748
788.26	38.017
788.57	38.983
788.88	54.545
789.19	43.056
789.49	53.788
789.80	45.038
790.11	57.143
790.41	59.406
790.72	56.627
791.03	61.957
791.33	54.651
791.64	55.670
791.95	57.426
792.25	67.778
792.56	75.325
792.87	71.795
793.17	75.949
793.48	68.966
793.79	60.920
794.09	60.227
794.40	43.697
794.70	48.529
795.01	37.778
795.32	41.007
795.62	45.669
795.93	47.414
796.23	46.903
796.54	50.588
796.85	55.405
797.15	81.690
797.46	81.818
797.76	71.084
798.07	59.494
798.37	66.154
798.68	81.818
798.99	61.972
799.29	68.831
799.60	55.682
799.90	79.452
800.21	74.627
800.51	81.034
800.82	82.456
801.12	85.246
801.43	84.848
801.73	66.216
802.04	95.238
802.34	77.778
802.65	70.312
802.95	83.051
803.26	90.625
803.56	82.857
803.87	76.923
804.17	63.235
804.48	100.000
804.78	68.966
805.09	76.471
805.39	78.846
805.70	96.429
806.00	88.525
806.30	77.273
806.61	63.415
806.91	48.101
807.22	73.684
807.52	68.657
807.83	78.873
808.13	82.813
808.43	78.333
808.74	57.895
809.04	68.116
809.35	83.582
809.65	73.684
809.95	98.387
810.26	100.000
810.56	85.714
810.86	115.909
811.17	111.905
811.47	101.667
811.77	107.407
812.08	96.364
812.38	102.000
812.69	175.000
812.99	143.182
813.29	124.490
813.59	85.714
813.90	114.286
814.20	96.364
814.50	81.538
814.81	98.529
815.11	116.327
815.41	100.000
815.72	135.714
816.02	94.545
816.32	121.429
816.62	112.500
816.93	124.390
817.23	140.476
817.53	106.818
817.84	163.636
818.14	123.913
818.44	91.111
818.74	176.471
819.04	137.500
819.35	145.714
819.65	173.529
819.95	175.000
820.25	185.000
820.56	125.641
820.86	109.091
821.16	134.884
821.46	115.385
821.76	122.000
822.07	131.429
822.37	125.000
822.67	136.364
822.97	111.765
823.27	153.571
823.57	137.838
823.88	150.000
824.18	180.000
824.48	142.857
824.78	212.000
825.08	191.667
825.38	156.757
825.69	112.195
825.99	154.167
826.29	144.828
826.59	155.263
826.89	136.842
827.19	152.941
827.49	158.065
827.79	129.545
828.09	131.818
828.39	100.000
828.70	108.163
829.00	166.667
829.30	138.710
829.60	117.500
829.90	300.000
830.20	182.143
830.50	200.000
830.80	147.826
831.10	163.333
831.40	166.667
831.70	208.696
832.00	211.538
832.30	174.074
832.60	300.000
832.90	193.333
833.20	385.714
833.50	193.548
833.80	172.414
834.10	181.250
834.40	219.231
834.70	211.111
835.00	285.714
835.30	131.429
835.60	346.154
835.90	217.241
836.20	371.429
836.50	165.517
836.80	192.000
837.10	147.222
837.40	209.524
837.70	294.118
838.00	200.000
838.30	228.571
838.60	276.190
838.90	211.538
839.19	245.000
839.49	428.571
839.79	320.000
840.09	245.000
840.39	228.571
840.69	239.130
840.99	272.222
841.29	450.000
841.59	308.333
841.88	331.250
842.18	158.621
842.48	247.619
842.78	176.667
843.08	234.783
843.38	200.000
843.68	833.333
843.97	211.538
844.27	203.448
844.57	271.429
844.87	362.500
845.17	211.111
845.47	1533.333
845.76	333.333
846.06	276.471
846.36	350.000
846.66	342.857
846.96	287.500
847.25	409.091
847.55	390.909
847.85	247.826
848.15	500.000
848.44	307.143
848.74	300.000
849.04	282.353
849.34	480.000
849.63	226.316
849.93	445.455
850.23	1000.000
850.53	371.429
850.82	2400.000
851.12	-4500.000
851.42	4800.000
851.71	255.000
852.01	-1133.333
852.31	233.333
852.61	1600.000
852.90	280.952
853.20	256.000
853.50	300.000
853.79	257.143
854.09	212.500
854.39	325.000
854.68	172.973
854.98	164.516
855.28	166.667
855.57	186.207
855.87	211.111
856.17	226.316
856.46	246.667
856.76	270.588
857.05	231.034
857.35	191.667
857.65	360.000
857.94	234.783
858.24	211.538
858.53	300.000
858.83	263.636
859.13	380.000
859.42	0.000
859.72	622.222
860.01	445.455
860.31	272.727
860.60	247.368
860.90	217.391
861.20	500.000
861.49	416.667
861.79	-4600.000
862.08	762.500
862.38	247.619
862.67	315.385
862.97	317.647
863.26	533.333
863.56	266.667
863.85	391.667
864.15	550.000
864.44	353.333
864.74	766.667
865.03	700.000
865.33	284.211
865.62	390.909
865.92	400.000
866.21	416.667
866.51	0.000
866.80	372.727
867.10	1060.000
867.39	446.154
867.69	500.000
867.98	294.737
868.27	481.818
868.57	363.158
868.86	-4600.000
869.16	418.750
869.45	2050.000
869.75	-4700.000
870.04	458.333
870.33	685.714
870.63	1050.000
870.92	2650.000
871.22	642.857
871.51	370.588
871.80	266.667
872.10	335.714
>>>>>End Processed Spectral Data<<<<<
