SpectraSuite Data File
++++++++++++++++++++++++++++++++++++
Date: Wed May 13 19:57:04 PDT 2015
User: schluterlab
Dark Spectrum Present: Yes
Reference Spectrum Present: Yes
Number of Sampled Component Spectra: 1
Spectrometers: USB2E3373
Integration Time (usec): 3000 (USB2E3373)
Spectra Averaged: 3 (USB2E3373)
Boxcar Smoothing: 0 (USB2E3373)
Correct for Electrical Dark: No (USB2E3373)
Strobe/Lamp Enabled: No (USB2E3373)
Correct for Detector Non-linearity: No (USB2E3373)
Correct for Stray Light: No (USB2E3373)
Number of Pixels in Processed Spectrum: 2048
>>>>>Begin Processed Spectral Data<<<<<
178.53	0.000
178.91	-1400.000
179.29	-1100.000
179.67	-244.444
180.04	-975.000
180.42	2700.000
180.80	1140.000
181.18	-1075.000
181.56	742.857
181.94	0.000
182.31	-771.429
182.69	2033.333
183.07	-500.000
183.45	-477.778
183.83	572.727
184.20	-360.000
184.58	2450.000
184.96	5900.000
185.34	-840.000
185.72	-500.000
186.09	-2350.000
186.47	2500.000
186.85	2550.000
187.23	4900.000
187.61	-1600.000
187.98	1200.000
188.36	500.000
188.74	536.364
189.12	-980.000
189.49	580.000
189.87	-4600.000
190.25	-1300.000
190.63	428.571
191.00	484.615
191.38	766.667
191.76	-1325.000
192.14	1600.000
192.51	537.500
192.89	1033.333
193.27	612.500
193.65	-1325.000
194.02	510.000
194.40	960.000
194.78	580.000
195.15	466.667
195.53	630.000
195.91	-2200.000
196.29	343.750
196.66	331.579
197.04	-430.000
197.42	0.000
197.79	630.000
198.17	-4800.000
198.55	714.286
198.92	737.500
199.30	900.000
199.68	0.000
200.05	372.222
200.43	814.286
200.81	5000.000
201.18	1666.667
201.56	-1266.667
201.94	533.333
202.31	633.333
202.69	458.333
203.07	500.000
203.44	0.000
203.82	1250.000
204.19	771.429
204.57	392.857
204.95	562.500
205.32	1300.000
205.70	436.364
206.08	400.000
206.45	2900.000
206.83	300.000
207.20	916.667
207.58	780.000
207.96	327.778
208.33	787.500
208.71	-850.000
209.08	757.143
209.46	700.000
209.84	400.000
210.21	-1433.333
210.59	1350.000
210.96	-537.500
211.34	2600.000
211.71	550.000
212.09	916.667
212.46	0.000
212.84	1733.333
213.22	1125.000
213.59	-4800.000
213.97	700.000
214.34	800.000
214.72	581.818
215.09	1120.000
215.47	-2100.000
215.84	-2950.000
216.22	1933.333
216.59	435.714
216.97	1450.000
217.34	436.364
217.72	-783.333
218.09	0.000
218.47	-4300.000
218.84	611.111
219.22	671.429
219.59	1733.333
219.97	-628.571
220.34	940.000
220.72	-1700.000
221.09	400.000
221.47	1650.000
221.84	-866.667
222.22	0.000
222.59	1350.000
222.97	-2300.000
223.34	1160.000
223.72	400.000
224.09	1220.000
224.46	2550.000
224.84	-5100.000
225.21	-920.000
225.59	-4800.000
225.96	590.000
226.34	330.000
226.71	2550.000
227.08	675.000
227.46	480.000
227.83	-1125.000
228.21	-2600.000
228.58	633.333
228.95	-2850.000
229.33	-2400.000
229.70	1666.667
230.08	828.571
230.45	-860.000
230.82	408.333
231.20	850.000
231.57	642.857
231.95	483.333
232.32	209.091
232.69	400.000
233.07	657.143
233.44	307.692
233.81	-1866.667
234.19	278.947
234.56	441.667
234.93	341.667
235.31	554.545
235.68	307.692
236.05	321.429
236.43	151.515
236.80	263.158
237.17	4000.000
237.55	290.476
237.92	217.857
238.29	233.333
238.67	135.484
239.04	206.897
239.41	158.333
239.79	126.087
240.16	157.143
240.53	138.636
240.91	103.922
241.28	114.000
241.65	92.000
242.02	114.493
242.40	79.032
242.77	96.667
243.14	78.495
243.51	85.393
243.89	77.647
244.26	73.333
244.63	67.742
245.00	52.128
245.38	75.248
245.75	57.944
246.12	68.807
246.49	72.263
246.87	74.400
247.24	60.000
247.61	59.286
247.98	53.595
248.36	45.270
248.73	49.682
249.10	57.962
249.47	48.588
249.84	52.406
250.22	50.267
250.59	53.254
250.96	50.000
251.33	48.815
251.70	46.535
252.08	44.762
252.45	44.395
252.82	42.174
253.19	45.106
253.56	49.020
253.94	44.398
254.31	42.969
254.68	43.462
255.05	41.697
255.42	43.089
255.79	40.074
256.16	37.906
256.54	40.283
256.91	40.925
257.28	36.331
257.65	36.964
258.02	36.025
258.39	38.170
258.76	37.458
259.14	37.202
259.51	36.170
259.88	35.404
260.25	37.160
260.62	37.572
260.99	37.888
261.36	39.940
261.73	33.238
262.10	33.140
262.47	41.127
262.85	36.490
263.22	32.764
263.59	37.037
263.96	34.341
264.33	32.376
264.70	33.158
265.07	34.527
265.44	34.343
265.81	33.090
266.18	36.683
266.55	32.683
266.92	32.924
267.29	35.880
267.66	33.257
268.03	32.500
268.40	34.813
268.77	32.458
269.14	32.432
269.51	31.377
269.88	33.333
270.25	29.797
270.62	31.685
270.99	32.258
271.36	31.974
271.73	32.009
272.10	31.522
272.47	33.333
272.84	32.251
273.21	32.075
273.58	30.568
273.95	30.189
274.32	32.438
274.69	31.692
275.06	30.906
275.43	31.702
275.80	31.864
276.17	31.976
276.54	31.393
276.91	30.830
277.28	30.469
277.65	30.948
278.02	29.607
278.39	31.055
278.76	29.273
279.13	30.000
279.50	30.726
279.87	30.677
280.23	29.541
280.60	27.853
280.97	27.726
281.34	28.673
281.71	29.818
282.08	30.326
282.45	29.273
282.82	28.242
283.19	26.916
283.56	28.772
283.92	31.303
284.29	28.924
284.66	30.490
285.03	26.763
285.40	29.049
285.77	27.946
286.14	29.188
286.51	28.500
286.87	29.573
287.24	30.456
287.61	27.127
287.98	29.545
288.35	29.635
288.72	27.882
289.08	28.795
289.45	29.160
289.82	28.130
290.19	24.647
290.56	26.799
290.93	27.039
291.29	28.374
291.66	25.664
292.03	27.907
292.40	29.075
292.77	26.775
293.13	27.313
293.50	27.988
293.87	26.222
294.24	25.926
294.60	25.182
294.97	25.436
295.34	26.234
295.71	27.841
296.08	26.353
296.44	27.098
296.81	26.288
297.18	26.558
297.55	23.615
297.91	25.594
298.28	26.774
298.65	25.718
299.02	25.955
299.38	25.896
299.75	24.394
300.12	25.670
300.48	25.750
300.85	26.141
301.22	24.331
301.59	25.379
301.95	24.937
302.32	24.134
302.69	26.404
303.05	25.333
303.42	24.691
303.79	23.556
304.15	23.310
304.52	24.913
304.89	23.693
305.25	25.290
305.62	26.048
305.99	24.911
306.35	26.063
306.72	25.785
307.09	26.193
307.45	25.113
307.82	23.549
308.19	25.828
308.55	25.998
308.92	25.349
309.29	24.393
309.65	23.860
310.02	24.947
310.38	25.914
310.75	24.498
311.12	25.691
311.48	27.168
311.85	26.205
312.22	26.223
312.58	24.532
312.95	26.716
313.31	25.243
313.68	26.819
314.05	27.120
314.41	26.533
314.78	26.989
315.14	27.706
315.51	26.777
315.87	28.713
316.24	27.408
316.61	27.875
316.97	27.495
317.34	28.376
317.70	28.681
318.07	28.874
318.43	29.354
318.80	29.241
319.16	29.755
319.53	29.644
319.89	30.190
320.26	31.500
320.62	32.341
320.99	32.929
321.35	32.828
321.72	32.546
322.08	32.675
322.45	34.627
322.81	34.205
323.18	35.067
323.54	34.972
323.91	35.189
324.27	36.138
324.64	35.788
325.00	36.610
325.37	38.217
325.73	39.497
326.10	39.011
326.46	40.143
326.83	40.552
327.19	41.930
327.56	41.115
327.92	42.170
328.29	43.478
328.65	43.462
329.01	44.314
329.38	45.606
329.74	43.490
330.11	43.921
330.47	43.802
330.84	46.324
331.20	44.171
331.56	44.220
331.93	46.296
332.29	45.075
332.66	45.841
333.02	45.064
333.38	44.625
333.75	46.435
334.11	44.840
334.48	45.164
334.84	46.140
335.20	46.273
335.57	46.147
335.93	44.821
336.29	46.612
336.66	46.348
337.02	45.792
337.38	45.093
337.75	44.385
338.11	45.300
338.47	47.330
338.84	45.646
339.20	45.413
339.56	47.445
339.93	46.818
340.29	45.833
340.65	45.900
341.02	46.422
341.38	46.263
341.74	46.491
342.11	45.590
342.47	46.344
342.83	45.377
343.20	45.281
343.56	44.819
343.92	46.316
344.28	45.238
344.65	46.690
345.01	44.444
345.37	44.854
345.73	45.008
346.10	45.439
346.46	46.102
346.82	45.305
347.19	46.032
347.55	45.977
347.91	45.793
348.27	46.179
348.63	44.816
349.00	45.146
349.36	45.402
349.72	44.667
350.08	45.057
350.45	45.647
350.81	45.248
351.17	44.652
351.53	45.127
351.89	44.307
352.26	45.146
352.62	46.592
352.98	46.029
353.34	46.508
353.70	45.172
354.07	45.806
354.43	45.079
354.79	44.891
355.15	45.331
355.51	45.803
355.87	46.694
356.24	46.987
356.60	45.229
356.96	46.742
357.32	46.770
357.68	47.323
358.04	45.843
358.40	45.764
358.77	46.714
359.13	45.146
359.49	46.745
359.85	45.079
360.21	46.651
360.57	46.226
360.93	48.769
361.29	46.107
361.66	46.517
362.02	47.463
362.38	47.452
362.74	48.363
363.10	47.076
363.46	46.735
363.82	47.468
364.18	46.623
364.54	47.845
364.90	47.663
365.26	47.868
365.62	48.356
365.98	47.334
366.35	46.418
366.71	48.879
367.07	48.580
367.43	48.186
367.79	48.608
368.15	48.851
368.51	49.346
368.87	49.822
369.23	47.330
369.59	49.602
369.95	47.132
370.31	48.647
370.67	48.116
371.03	49.888
371.39	48.907
371.75	48.971
372.11	48.080
372.47	50.367
372.83	49.640
373.19	49.928
373.55	51.072
373.91	51.031
374.27	48.729
374.63	49.891
374.99	49.788
375.35	50.803
375.71	50.308
376.07	50.343
376.42	51.651
376.78	51.359
377.14	51.357
377.50	50.331
377.86	50.532
378.22	50.190
378.58	50.063
378.94	49.843
379.30	50.763
379.66	51.904
380.02	51.720
380.38	50.759
380.74	52.161
381.09	51.345
381.45	52.428
381.81	51.781
382.17	52.293
382.53	53.082
382.89	52.469
383.25	53.033
383.61	53.656
383.97	51.782
384.32	51.840
384.68	52.169
385.04	52.182
385.40	50.836
385.76	52.396
386.12	53.174
386.48	53.304
386.83	53.945
387.19	53.247
387.55	52.752
387.91	52.842
388.27	53.158
388.62	52.858
388.98	51.474
389.34	53.942
389.70	52.238
390.06	53.295
390.42	53.632
390.77	52.545
391.13	54.180
391.49	53.490
391.85	52.005
392.20	52.618
392.56	52.967
392.92	53.502
393.28	52.663
393.64	52.578
393.99	52.108
394.35	53.040
394.71	53.262
395.07	53.271
395.42	53.523
395.78	52.481
396.14	52.576
396.50	54.261
396.85	53.465
397.21	52.466
397.57	52.759
397.92	51.382
398.28	51.626
398.64	52.151
399.00	51.595
399.35	51.777
399.71	51.620
400.07	51.094
400.42	51.779
400.78	50.784
401.14	51.707
401.49	52.239
401.85	51.119
402.21	50.240
402.57	51.326
402.92	50.883
403.28	51.905
403.63	51.609
403.99	50.191
404.35	49.697
404.70	50.420
405.06	50.553
405.42	50.156
405.77	49.371
406.13	48.589
406.49	50.976
406.84	49.557
407.20	49.409
407.55	50.351
407.91	51.533
408.27	51.053
408.62	49.187
408.98	48.836
409.34	49.139
409.69	49.548
410.05	50.186
410.40	50.214
410.76	49.761
411.11	48.552
411.47	48.307
411.83	48.992
412.18	49.289
412.54	48.817
412.89	49.277
413.25	48.642
413.60	50.216
413.96	47.480
414.31	49.878
414.67	49.747
415.03	51.192
415.38	50.064
415.74	50.096
416.09	52.711
416.45	50.268
416.80	51.553
417.16	52.145
417.51	51.825
417.87	51.252
418.22	52.744
418.58	51.775
418.93	51.229
419.29	52.005
419.64	52.771
420.00	54.085
420.35	52.348
420.71	53.317
421.06	52.745
421.42	53.860
421.77	54.821
422.12	54.969
422.48	54.128
422.83	57.484
423.19	55.028
423.54	56.007
423.90	56.290
424.25	56.784
424.61	57.857
424.96	59.300
425.31	58.084
425.67	57.416
426.02	58.800
426.38	60.012
426.73	58.514
427.09	59.392
427.44	59.804
427.79	59.919
428.15	62.083
428.50	61.673
428.85	61.502
429.21	62.176
429.56	61.638
429.92	61.198
430.27	62.562
430.62	62.314
430.98	62.377
431.33	62.423
431.68	64.031
432.04	62.620
432.39	65.106
432.74	64.931
433.10	65.591
433.45	65.889
433.80	64.357
434.16	65.064
434.51	64.947
434.86	66.705
435.22	66.148
435.57	67.660
435.92	67.408
436.28	69.158
436.63	67.494
436.98	66.686
437.34	68.813
437.69	69.195
438.04	69.084
438.39	68.418
438.75	68.855
439.10	69.162
439.45	68.713
439.81	69.607
440.16	68.718
440.51	70.240
440.86	70.990
441.22	70.133
441.57	69.798
441.92	70.931
442.27	70.883
442.63	70.458
442.98	71.493
443.33	70.761
443.68	71.606
444.03	71.059
444.39	70.740
444.74	71.320
445.09	70.566
445.44	70.257
445.79	71.598
446.15	71.943
446.50	70.436
446.85	71.994
447.20	71.137
447.55	73.311
447.91	73.138
448.26	72.677
448.61	72.696
448.96	75.138
449.31	74.409
449.66	71.806
450.02	73.816
450.37	72.166
450.72	73.942
451.07	72.943
451.42	71.489
451.77	73.987
452.12	72.864
452.47	73.818
452.83	74.126
453.18	71.944
453.53	75.325
453.88	74.070
454.23	73.401
454.58	74.561
454.93	76.669
455.28	73.753
455.63	76.881
455.98	75.238
456.34	75.565
456.69	75.830
457.04	75.294
457.39	75.453
457.74	75.450
458.09	74.641
458.44	75.086
458.79	73.427
459.14	76.637
459.49	75.482
459.84	75.291
460.19	74.308
460.54	73.958
460.89	74.383
461.24	76.138
461.59	75.828
461.94	75.092
462.29	76.439
462.64	76.260
462.99	75.407
463.34	77.467
463.69	77.298
464.04	73.913
464.39	74.029
464.74	75.045
465.09	75.030
465.44	74.903
465.79	75.447
466.14	74.439
466.49	74.694
466.84	76.065
467.19	74.713
467.54	75.375
467.89	74.190
468.24	76.033
468.59	75.885
468.94	75.626
469.29	76.028
469.64	77.108
469.99	78.552
470.34	76.354
470.68	77.586
471.03	76.599
471.38	78.527
471.73	76.016
472.08	76.513
472.43	75.628
472.78	78.012
473.13	77.150
473.48	77.840
473.83	77.195
474.17	77.100
474.52	76.427
474.87	77.525
475.22	76.785
475.57	75.336
475.92	75.624
476.27	75.930
476.61	76.448
476.96	77.515
477.31	76.295
477.66	76.094
478.01	76.268
478.36	76.679
478.70	76.791
479.05	76.944
479.40	76.714
479.75	75.241
480.10	75.547
480.45	75.012
480.79	75.203
481.14	76.272
481.49	75.937
481.84	75.674
482.19	75.965
482.53	75.229
482.88	75.849
483.23	75.701
483.58	76.115
483.92	76.007
484.27	74.205
484.62	74.741
484.97	72.803
485.31	74.007
485.66	71.067
486.01	69.657
486.36	68.079
486.70	67.954
487.05	69.396
487.40	70.378
487.75	71.988
488.09	72.551
488.44	72.048
488.79	74.358
489.13	74.446
489.48	74.225
489.83	74.709
490.17	75.712
490.52	74.225
490.87	75.848
491.22	75.216
491.56	74.305
491.91	74.128
492.26	74.736
492.60	73.963
492.95	73.573
493.30	73.785
493.64	74.615
493.99	74.420
494.34	73.636
494.68	75.504
495.03	74.107
495.37	73.802
495.72	76.121
496.07	74.385
496.41	73.142
496.76	73.835
497.11	72.895
497.45	74.569
497.80	73.321
498.14	74.155
498.49	73.951
498.84	73.298
499.18	74.286
499.53	73.314
499.87	73.486
500.22	72.869
500.56	74.709
500.91	73.510
501.26	73.068
501.60	75.273
501.95	73.373
502.29	74.508
502.64	74.488
502.98	73.305
503.33	73.583
503.67	73.225
504.02	72.638
504.36	72.625
504.71	73.718
505.06	73.398
505.40	72.922
505.75	73.578
506.09	74.150
506.44	74.396
506.78	72.577
507.13	76.123
507.47	75.101
507.82	74.569
508.16	74.164
508.51	76.306
508.85	73.287
509.19	74.949
509.54	73.776
509.88	74.086
510.23	73.779
510.57	74.768
510.92	73.071
511.26	74.101
511.61	73.237
511.95	73.382
512.30	75.292
512.64	74.530
512.98	75.134
513.33	75.803
513.67	72.839
514.02	75.216
514.36	75.041
514.70	75.484
515.05	77.189
515.39	75.379
515.74	75.619
516.08	74.734
516.42	76.637
516.77	77.313
517.11	75.194
517.46	76.185
517.80	76.190
518.14	76.028
518.49	77.188
518.83	75.000
519.17	76.155
519.52	75.722
519.86	75.642
520.20	76.301
520.55	77.379
520.89	76.095
521.23	77.563
521.58	76.351
521.92	77.526
522.26	76.449
522.61	77.882
522.95	76.918
523.29	76.689
523.64	76.341
523.98	77.942
524.32	76.297
524.66	74.985
525.01	75.919
525.35	76.642
525.69	75.677
526.04	75.078
526.38	76.388
526.72	74.663
527.06	77.464
527.41	75.371
527.75	77.106
528.09	76.044
528.43	76.099
528.78	74.800
529.12	75.333
529.46	76.424
529.80	75.928
530.15	75.389
530.49	74.400
530.83	74.367
531.17	78.133
531.51	75.940
531.86	75.226
532.20	74.837
532.54	75.016
532.88	75.481
533.22	73.766
533.57	73.333
533.91	74.533
534.25	72.965
534.59	73.337
534.93	71.862
535.27	73.748
535.62	72.955
535.96	73.132
536.30	73.744
536.64	72.827
536.98	74.652
537.32	72.943
537.66	75.267
538.01	73.733
538.35	72.786
538.69	73.070
539.03	71.475
539.37	72.907
539.71	73.364
540.05	72.941
540.39	73.488
540.73	72.704
541.07	74.562
541.42	73.255
541.76	72.903
542.10	72.639
542.44	73.179
542.78	73.057
543.12	70.953
543.46	71.803
543.80	72.414
544.14	70.988
544.48	71.683
544.82	72.354
545.16	72.739
545.50	70.308
545.84	70.228
546.18	71.380
546.52	73.434
546.86	73.540
547.20	73.028
547.54	72.679
547.88	71.301
548.22	69.240
548.56	70.252
548.90	69.974
549.24	70.707
549.58	72.578
549.92	72.321
550.26	74.077
550.60	71.784
550.94	72.324
551.28	72.056
551.62	73.688
551.96	71.789
552.30	72.082
552.64	71.805
552.98	72.271
553.32	71.274
553.66	71.575
554.00	71.654
554.34	70.600
554.68	72.890
555.02	71.650
555.36	71.538
555.69	70.568
556.03	71.131
556.37	72.101
556.71	71.419
557.05	71.849
557.39	70.609
557.73	70.642
558.07	72.226
558.41	71.201
558.75	71.418
559.08	73.080
559.42	73.091
559.76	71.029
560.10	69.522
560.44	70.929
560.78	69.594
561.12	68.470
561.45	68.774
561.79	69.216
562.13	68.343
562.47	70.492
562.81	71.060
563.15	68.495
563.48	67.573
563.82	68.493
564.16	68.607
564.50	68.164
564.84	68.205
565.17	68.468
565.51	69.521
565.85	67.703
566.19	67.314
566.52	69.158
566.86	65.883
567.20	66.745
567.54	67.066
567.88	64.204
568.21	64.021
568.55	64.156
568.89	64.835
569.23	63.191
569.56	62.429
569.90	60.566
570.24	61.105
570.57	58.926
570.91	58.662
571.25	58.277
571.59	57.997
571.92	57.344
572.26	57.857
572.60	58.438
572.93	58.141
573.27	57.912
573.61	57.761
573.95	57.571
574.28	56.281
574.62	56.341
574.96	56.249
575.29	56.135
575.63	56.402
575.97	56.678
576.30	55.125
576.64	55.724
576.98	55.931
577.31	55.684
577.65	55.570
577.98	55.468
578.32	54.488
578.66	55.136
578.99	55.512
579.33	55.362
579.67	55.242
580.00	55.191
580.34	55.268
580.67	55.117
581.01	55.341
581.35	54.919
581.68	54.529
582.02	53.630
582.35	54.485
582.69	54.842
583.02	54.949
583.36	55.292
583.70	55.719
584.03	55.538
584.37	56.285
584.70	55.747
585.04	55.210
585.37	54.730
585.71	55.874
586.04	55.521
586.38	56.714
586.72	56.559
587.05	55.175
587.39	55.646
587.72	55.759
588.06	56.403
588.39	56.461
588.73	56.204
589.06	56.934
589.40	58.114
589.73	58.677
590.07	57.331
590.40	57.581
590.73	58.236
591.07	60.236
591.40	59.469
591.74	59.567
592.07	58.726
592.41	58.330
592.74	56.966
593.08	56.462
593.41	56.976
593.75	55.746
594.08	56.923
594.41	56.310
594.75	57.079
595.08	56.836
595.42	56.497
595.75	56.339
596.09	57.529
596.42	57.682
596.75	58.295
597.09	58.615
597.42	56.788
597.75	57.439
598.09	58.522
598.42	55.670
598.76	56.060
599.09	55.644
599.42	55.095
599.76	55.198
600.09	55.920
600.42	55.625
600.76	54.286
601.09	55.519
601.42	55.365
601.76	55.977
602.09	56.166
602.42	55.255
602.76	56.026
603.09	55.389
603.42	56.619
603.76	55.412
604.09	55.370
604.42	55.850
604.76	56.811
605.09	56.924
605.42	55.066
605.75	56.167
606.09	55.714
606.42	56.886
606.75	55.164
607.09	54.960
607.42	56.055
607.75	54.304
608.08	55.232
608.42	56.118
608.75	55.546
609.08	54.718
609.41	56.116
609.75	55.741
610.08	55.514
610.41	55.773
610.74	56.954
611.07	56.571
611.41	55.496
611.74	56.259
612.07	57.609
612.40	57.450
612.73	56.684
613.07	57.058
613.40	57.504
613.73	55.952
614.06	56.935
614.39	55.794
614.72	55.368
615.06	55.305
615.39	55.626
615.72	55.266
616.05	56.087
616.38	56.587
616.71	58.551
617.05	57.362
617.38	57.547
617.71	56.997
618.04	58.173
618.37	57.599
618.70	58.370
619.03	58.421
619.36	58.520
619.69	58.099
620.03	57.555
620.36	57.754
620.69	59.041
621.02	59.661
621.35	59.671
621.68	60.436
622.01	59.288
622.34	59.380
622.67	61.293
623.00	57.373
623.33	58.828
623.66	59.900
623.99	60.236
624.32	56.633
624.65	57.486
624.99	58.924
625.32	56.336
625.65	57.701
625.98	58.724
626.31	57.621
626.64	60.082
626.97	60.682
627.30	60.183
627.63	59.311
627.96	60.639
628.29	59.930
628.62	61.848
628.95	63.302
629.28	61.040
629.61	60.312
629.94	63.048
630.26	61.487
630.59	61.582
630.92	61.398
631.25	61.204
631.58	62.362
631.91	60.953
632.24	62.131
632.57	60.860
632.90	63.596
633.23	63.423
633.56	63.051
633.89	64.326
634.22	63.564
634.55	63.787
634.88	63.952
635.20	63.321
635.53	63.494
635.86	65.965
636.19	63.647
636.52	61.361
636.85	61.970
637.18	61.982
637.51	62.884
637.83	61.776
638.16	65.729
638.49	63.098
638.82	64.223
639.15	65.375
639.48	64.339
639.81	65.147
640.13	66.667
640.46	66.443
640.79	63.540
641.12	64.649
641.45	64.385
641.77	68.336
642.10	65.643
642.43	66.066
642.76	67.802
643.09	68.558
643.41	66.009
643.74	68.673
644.07	67.073
644.40	67.178
644.73	69.134
645.05	71.315
645.38	65.561
645.71	65.217
646.04	68.605
646.36	72.120
646.69	68.395
647.02	66.497
647.35	68.557
647.67	67.434
648.00	65.203
648.33	67.162
648.66	63.939
648.98	64.768
649.31	64.574
649.64	64.126
649.96	60.656
650.29	66.193
650.62	64.887
650.94	64.019
651.27	66.554
651.60	65.557
651.92	63.738
652.25	62.052
652.58	62.617
652.90	66.509
653.23	62.712
653.56	62.047
653.88	64.659
654.21	66.193
654.54	67.327
654.86	63.084
655.19	59.054
655.52	43.933
655.84	39.201
656.17	50.667
656.49	67.603
656.82	68.715
657.15	51.815
657.47	38.501
657.80	29.790
658.13	30.879
658.45	45.726
658.78	45.465
659.10	45.613
659.43	48.536
659.75	50.022
660.08	52.785
660.41	57.542
660.73	61.372
661.06	62.420
661.38	67.273
661.71	66.538
662.03	65.680
662.36	63.618
662.68	66.667
663.01	69.495
663.33	67.728
663.66	65.756
663.98	69.546
664.31	65.966
664.63	64.777
664.96	65.996
665.28	66.393
665.61	62.768
665.93	67.807
666.26	68.966
666.58	66.527
666.91	66.808
667.23	68.315
667.56	67.819
667.88	68.162
668.21	68.017
668.53	66.594
668.86	69.048
669.18	67.804
669.50	65.217
669.83	69.499
670.15	66.222
670.48	65.142
670.80	67.457
671.13	65.180
671.45	64.681
671.77	69.246
672.10	64.695
672.42	61.837
672.75	61.692
673.07	62.324
673.39	59.855
673.72	65.234
674.04	63.529
674.37	61.942
674.69	66.667
675.01	66.527
675.34	66.530
675.66	64.632
675.98	63.544
676.31	63.235
676.63	65.393
676.95	63.732
677.28	67.056
677.60	66.813
677.92	68.565
678.25	63.655
678.57	66.335
678.89	62.926
679.22	61.297
679.54	64.885
679.86	60.550
680.18	60.107
680.51	60.461
680.83	60.320
681.15	60.566
681.48	64.083
681.80	63.056
682.12	61.877
682.44	60.348
682.77	61.914
683.09	66.524
683.41	68.958
683.73	65.784
684.06	63.430
684.38	60.861
684.70	61.240
685.02	62.289
685.34	60.989
685.67	58.916
685.99	58.591
686.31	58.703
686.63	58.127
686.96	57.857
687.28	57.220
687.60	59.783
687.92	59.781
688.24	58.745
688.56	62.651
688.89	64.315
689.21	63.100
689.53	62.839
689.85	63.858
690.17	57.557
690.49	64.119
690.82	64.252
691.14	64.286
691.46	60.338
691.78	57.430
692.10	65.083
692.42	62.076
692.74	58.921
693.06	61.915
693.39	60.164
693.71	64.410
694.03	59.368
694.35	64.069
694.67	60.183
694.99	64.146
695.31	64.461
695.63	62.201
695.95	63.081
696.27	64.213
696.59	65.285
696.91	63.731
697.23	57.042
697.56	59.701
697.88	55.419
698.20	62.708
698.52	60.430
698.84	56.347
699.16	58.525
699.48	58.907
699.80	62.560
700.12	64.935
700.44	61.538
700.76	63.812
701.08	66.667
701.40	65.363
701.72	67.930
702.04	65.909
702.36	64.873
702.68	66.572
703.00	68.698
703.32	63.564
703.64	63.807
703.96	64.903
704.28	65.698
704.60	68.328
704.91	67.953
705.23	67.155
705.55	69.435
705.87	73.422
706.19	69.965
706.51	67.290
706.83	67.576
707.15	67.507
707.47	60.606
707.79	61.671
708.11	57.306
708.43	58.333
708.74	63.520
709.06	58.961
709.38	59.580
709.70	63.372
710.02	65.579
710.34	64.848
710.66	64.179
710.98	63.636
711.29	64.244
711.61	64.897
711.93	67.949
712.25	68.167
712.57	72.794
712.89	68.166
713.20	62.614
713.52	69.408
713.84	64.241
714.16	64.634
714.48	62.931
714.80	65.653
715.11	64.265
715.43	63.501
715.75	61.159
716.07	63.259
716.39	63.950
716.70	68.439
717.02	69.784
717.34	66.431
717.66	66.045
717.97	71.315
718.29	68.519
718.61	65.693
718.93	65.809
719.24	64.360
719.56	65.763
719.88	67.119
720.20	65.878
720.51	65.505
720.83	71.747
721.15	70.896
721.46	68.440
721.78	70.609
722.10	66.415
722.42	71.053
722.73	67.041
723.05	70.492
723.37	66.802
723.68	67.181
724.00	64.634
724.32	68.145
724.63	68.699
724.95	69.456
725.27	72.874
725.58	66.797
725.90	68.248
726.22	69.811
726.53	62.847
726.85	64.164
727.16	67.972
727.48	62.766
727.80	66.667
728.11	62.319
728.43	66.923
728.74	63.082
729.06	68.248
729.38	67.279
729.69	67.616
730.01	56.997
730.32	59.028
730.64	64.883
730.96	58.416
731.27	65.232
731.59	59.633
731.90	62.974
732.22	57.764
732.53	60.991
732.85	61.859
733.16	57.556
733.48	64.784
733.80	60.065
734.11	64.968
734.43	61.834
734.74	56.857
735.06	56.734
735.37	61.561
735.69	57.962
736.00	61.765
736.32	61.371
736.63	59.425
736.95	60.383
737.26	58.163
737.58	57.742
737.89	63.545
738.21	66.894
738.52	62.857
738.83	64.528
739.15	61.923
739.46	66.058
739.78	61.806
740.09	55.077
740.41	60.323
740.72	56.794
741.04	63.704
741.35	64.583
741.66	69.333
741.98	64.623
742.29	70.335
742.61	69.397
742.92	65.158
743.23	65.385
743.55	66.800
743.86	67.982
744.18	68.584
744.49	75.120
744.80	74.178
745.12	68.636
745.43	68.282
745.74	71.622
746.06	64.679
746.37	64.126
746.68	70.136
747.00	73.148
747.31	78.095
747.62	66.814
747.94	66.079
748.25	68.936
748.56	70.485
748.88	66.832
749.19	78.000
749.50	65.581
749.82	63.415
750.13	69.388
750.44	62.409
750.75	62.105
751.07	60.772
751.38	59.582
751.69	60.289
752.01	62.782
752.32	60.289
752.63	64.894
752.94	68.443
753.26	68.000
753.57	60.976
753.88	65.234
754.19	59.286
754.51	58.681
754.82	61.733
755.13	60.000
755.44	66.165
755.75	61.314
756.07	56.028
756.38	59.854
756.69	59.396
757.00	53.293
757.31	55.786
757.63	55.263
757.94	52.011
758.25	53.431
758.56	52.099
758.87	54.032
759.18	51.818
759.50	54.859
759.81	53.271
760.12	54.062
760.43	51.289
760.74	54.076
761.05	57.627
761.36	51.070
761.67	57.670
761.99	55.280
762.30	56.597
762.61	64.885
762.92	57.031
763.23	60.504
763.54	63.600
763.85	59.766
764.16	61.154
764.47	60.076
764.78	55.477
765.10	54.114
765.41	53.982
765.72	51.497
766.03	54.545
766.34	57.000
766.65	65.957
766.96	60.256
767.27	74.619
767.58	67.708
767.89	70.000
768.20	69.540
768.51	68.020
768.82	61.468
769.13	56.504
769.44	57.490
769.75	61.373
770.06	62.385
770.37	61.991
770.68	68.981
770.99	64.444
771.30	54.918
771.61	68.161
771.92	64.344
772.23	61.345
772.54	67.692
772.85	67.016
773.16	69.681
773.47	66.848
773.78	73.604
774.09	73.810
774.39	70.175
774.70	66.049
775.01	76.087
775.32	77.778
775.63	76.316
775.94	76.259
776.25	82.677
776.56	81.343
776.87	75.410
777.18	87.500
777.48	81.679
777.79	81.818
778.10	75.556
778.41	96.429
778.72	75.182
779.03	67.785
779.34	69.799
779.65	78.378
779.95	71.166
780.26	82.353
780.57	73.103
780.88	92.969
781.19	72.180
781.50	74.324
781.80	72.327
782.11	61.582
782.42	72.785
782.73	68.098
783.04	70.946
783.34	64.789
783.65	80.822
783.96	76.119
784.27	70.629
784.57	74.820
784.88	71.296
785.19	85.714
785.50	89.623
785.81	79.104
786.11	79.508
786.42	83.721
786.73	79.646
787.04	96.226
787.34	89.286
787.65	95.000
787.96	80.180
788.26	80.992
788.57	85.593
788.88	86.777
789.19	76.389
789.49	82.576
789.80	86.260
790.11	97.143
790.41	100.990
790.72	106.024
791.03	102.174
791.33	100.000
791.64	96.907
791.95	93.069
792.25	103.333
792.56	97.403
792.87	125.641
793.17	110.127
793.48	96.552
793.79	96.552
794.09	94.318
794.40	81.513
794.70	78.676
795.01	68.889
795.32	71.942
795.62	80.315
795.93	78.448
796.23	92.035
796.54	87.059
796.85	102.703
797.15	111.268
797.46	112.121
797.76	107.229
798.07	107.595
798.37	101.538
798.68	118.182
798.99	98.592
799.29	96.104
799.60	101.136
799.90	101.370
800.21	114.925
800.51	146.552
800.82	142.105
801.12	111.475
801.43	124.242
801.73	94.595
802.04	138.095
802.34	97.531
802.65	118.750
802.95	127.119
803.26	128.125
803.56	115.714
803.87	100.000
804.17	117.647
804.48	153.704
804.78	108.621
805.09	119.118
805.39	125.000
805.70	101.786
806.00	111.475
806.30	112.121
806.61	97.561
806.91	97.468
807.22	114.474
807.52	97.015
807.83	108.451
808.13	121.875
808.43	121.667
808.74	89.474
809.04	118.841
809.35	122.388
809.65	119.737
809.95	135.484
810.26	115.254
810.56	123.810
810.86	140.909
811.17	164.286
811.47	128.333
811.77	124.074
812.08	129.091
812.38	146.000
812.69	183.333
812.99	177.273
813.29	144.898
813.59	140.476
813.90	173.469
814.20	123.636
814.50	124.615
814.81	114.706
815.11	140.816
815.41	122.951
815.72	169.048
816.02	158.182
816.32	171.429
816.62	147.500
816.93	146.341
817.23	164.286
817.53	150.000
817.84	215.152
818.14	158.696
818.44	148.889
818.74	197.059
819.04	170.000
819.35	177.143
819.65	188.235
819.95	242.857
820.25	245.000
820.56	171.795
820.86	152.273
821.16	169.767
821.46	130.769
821.76	140.000
822.07	200.000
822.37	195.000
822.67	212.121
822.97	145.098
823.27	246.429
823.57	175.676
823.88	180.000
824.18	200.000
824.48	164.286
824.78	244.000
825.08	212.500
825.38	172.973
825.69	158.537
825.99	250.000
826.29	220.690
826.59	202.632
826.89	152.632
827.19	194.118
827.49	193.548
827.79	170.455
828.09	156.818
828.39	129.787
828.70	153.061
829.00	192.593
829.30	180.645
829.60	162.500
829.90	286.667
830.20	246.429
830.50	256.522
830.80	247.826
831.10	220.000
831.40	196.667
831.70	221.739
832.00	238.462
832.30	225.926
832.60	337.500
832.90	206.667
833.20	435.714
833.50	203.226
833.80	193.103
834.10	206.250
834.40	269.231
834.70	311.111
835.00	319.048
835.30	168.571
835.60	392.308
835.90	224.138
836.20	378.571
836.50	203.448
836.80	232.000
837.10	197.222
837.40	271.429
837.70	352.941
838.00	244.444
838.30	271.429
838.60	285.714
838.90	276.923
839.19	265.000
839.49	421.429
839.79	345.000
840.09	270.000
840.39	304.762
840.69	269.565
840.99	383.333
841.29	520.000
841.59	391.667
841.88	337.500
842.18	213.793
842.48	266.667
842.78	206.667
843.08	260.870
843.38	190.625
843.68	950.000
843.97	226.923
844.27	196.552
844.57	333.333
844.87	356.250
845.17	222.222
845.47	1600.000
845.76	477.778
846.06	329.412
846.36	700.000
846.66	407.143
846.96	300.000
847.25	500.000
847.55	418.182
847.85	330.435
848.15	510.000
848.44	428.571
848.74	283.333
849.04	311.765
849.34	620.000
849.63	273.684
849.93	527.273
850.23	1120.000
850.53	471.429
850.82	2150.000
851.12	-4500.000
851.42	4500.000
851.71	310.000
852.01	-1466.667
852.31	275.000
852.61	1600.000
852.90	309.524
853.20	240.000
853.50	382.353
853.79	295.238
854.09	229.167
854.39	337.500
854.68	183.784
854.98	187.097
855.28	183.333
855.57	234.483
855.87	218.519
856.17	257.895
856.46	246.667
856.76	282.353
857.05	203.448
857.35	237.500
857.65	380.000
857.94	278.261
858.24	207.692
858.53	275.000
858.83	231.818
859.13	340.000
859.42	0.000
859.72	633.333
860.01	518.182
860.31	309.091
860.60	300.000
860.90	243.478
861.20	600.000
861.49	516.667
861.79	-5400.000
862.08	662.500
862.38	285.714
862.67	400.000
862.97	370.588
863.26	655.556
863.56	344.444
863.85	491.667
864.15	712.500
864.44	393.333
864.74	950.000
865.03	662.500
865.33	315.789
865.62	427.273
865.92	384.615
866.21	383.333
866.51	0.000
866.80	545.455
867.10	1080.000
867.39	476.923
867.69	427.273
867.98	321.053
868.27	500.000
868.57	321.053
868.86	-4400.000
869.16	337.500
869.45	2800.000
869.75	-4100.000
870.04	483.333
870.33	714.286
870.63	1075.000
870.92	2750.000
871.22	842.857
871.51	341.176
871.80	290.476
872.10	392.857
>>>>>End Processed Spectral Data<<<<<
