SpectraSuite Data File
++++++++++++++++++++++++++++++++++++
Date: Wed May 13 19:39:01 PDT 2015
User: schluterlab
Dark Spectrum Present: Yes
Reference Spectrum Present: Yes
Number of Sampled Component Spectra: 1
Spectrometers: USB2E3373
Integration Time (usec): 3000 (USB2E3373)
Spectra Averaged: 3 (USB2E3373)
Boxcar Smoothing: 0 (USB2E3373)
Correct for Electrical Dark: No (USB2E3373)
Strobe/Lamp Enabled: No (USB2E3373)
Correct for Detector Non-linearity: No (USB2E3373)
Correct for Stray Light: No (USB2E3373)
Number of Pixels in Processed Spectrum: 2048
>>>>>Begin Processed Spectral Data<<<<<
178.53	0.000
178.91	-1375.000
179.29	-1550.000
179.67	-233.333
180.04	-1325.000
180.42	2450.000
180.80	1260.000
181.18	-1300.000
181.56	785.714
181.94	0.000
182.31	-714.286
182.69	1633.333
183.07	-600.000
183.45	-488.889
183.83	572.727
184.20	-430.000
184.58	3000.000
184.96	5200.000
185.34	-960.000
185.72	-587.500
186.09	-2500.000
186.47	2850.000
186.85	2500.000
187.23	4900.000
187.61	-1666.667
187.98	1400.000
188.36	627.273
188.74	490.909
189.12	-1000.000
189.49	610.000
189.87	-6400.000
190.25	-1375.000
190.63	442.857
191.00	438.462
191.38	966.667
191.76	-1275.000
192.14	1425.000
192.51	600.000
192.89	1083.333
193.27	612.500
193.65	-1400.000
194.02	490.000
194.40	1220.000
194.78	620.000
195.15	550.000
195.53	700.000
195.91	-2850.000
196.29	362.500
196.66	331.579
197.04	-520.000
197.42	0.000
197.79	660.000
198.17	-5500.000
198.55	771.429
198.92	712.500
199.30	1080.000
199.68	0.000
200.05	383.333
200.43	914.286
200.81	5200.000
201.18	1966.667
201.56	-1400.000
201.94	544.444
202.31	666.667
202.69	475.000
203.07	480.000
203.44	0.000
203.82	1400.000
204.19	814.286
204.57	435.714
204.95	750.000
205.32	1733.333
205.70	536.364
206.08	435.714
206.45	2800.000
206.83	356.250
207.20	900.000
207.58	1000.000
207.96	350.000
208.33	800.000
208.71	-783.333
209.08	928.571
209.46	633.333
209.84	563.636
210.21	-1900.000
210.59	1750.000
210.96	-587.500
211.34	2850.000
211.71	670.000
212.09	1000.000
212.46	0.000
212.84	1666.667
213.22	1300.000
213.59	-5800.000
213.97	900.000
214.34	900.000
214.72	581.818
215.09	1200.000
215.47	-2900.000
215.84	-2500.000
216.22	1633.333
216.59	421.429
216.97	1475.000
217.34	481.818
217.72	-766.667
218.09	0.000
218.47	-6000.000
218.84	844.444
219.22	928.571
219.59	1766.667
219.97	-600.000
220.34	1100.000
220.72	-1966.667
221.09	385.714
221.47	1275.000
221.84	-966.667
222.22	0.000
222.59	1625.000
222.97	-2200.000
223.34	1480.000
223.72	469.231
224.09	1060.000
224.46	2700.000
224.84	-5800.000
225.21	-1040.000
225.59	-4700.000
225.96	620.000
226.34	340.000
226.71	2900.000
227.08	700.000
227.46	540.000
227.83	-1125.000
228.21	-2600.000
228.58	611.111
228.95	-2700.000
229.33	-2650.000
229.70	2000.000
230.08	885.714
230.45	-940.000
230.82	416.667
231.20	783.333
231.57	757.143
231.95	558.333
232.32	263.636
232.69	518.182
233.07	785.714
233.44	384.615
233.81	-1866.667
234.19	331.579
234.56	516.667
234.93	475.000
235.31	590.909
235.68	438.462
236.05	507.143
236.43	181.818
236.80	342.105
237.17	6300.000
237.55	314.286
237.92	250.000
238.29	290.476
238.67	222.581
239.04	251.724
239.41	225.000
239.79	152.174
240.16	200.000
240.53	188.636
240.91	150.980
241.28	162.000
241.65	152.000
242.02	142.029
242.40	146.774
242.77	138.333
243.14	117.204
243.51	122.472
243.89	124.706
244.26	103.333
244.63	115.054
245.00	111.702
245.38	106.931
245.75	95.327
246.12	101.835
246.49	93.431
246.87	100.000
247.24	95.385
247.61	90.000
247.98	86.928
248.36	89.189
248.73	75.159
249.10	84.076
249.47	88.701
249.84	79.679
250.22	78.075
250.59	84.024
250.96	76.768
251.33	80.095
251.70	86.139
252.08	82.381
252.45	72.197
252.82	74.783
253.19	74.894
253.56	76.078
253.94	79.253
254.31	71.094
254.68	72.308
255.05	74.908
255.42	75.203
255.79	74.265
256.16	76.534
256.54	71.025
256.91	72.954
257.28	70.144
257.65	68.647
258.02	68.012
258.39	68.770
258.76	73.244
259.14	69.345
259.51	65.957
259.88	65.528
260.25	68.882
260.62	66.185
260.99	69.876
261.36	70.270
261.73	68.768
262.10	67.442
262.47	70.704
262.85	67.409
263.22	61.538
263.59	66.952
263.96	65.110
264.33	65.274
264.70	65.526
265.07	64.962
265.44	63.636
265.81	59.611
266.18	62.814
266.55	63.171
266.92	64.373
267.29	66.898
267.66	63.991
268.03	63.636
268.40	63.551
268.77	62.768
269.14	59.009
269.51	63.883
269.88	65.035
270.25	59.142
270.62	60.449
270.99	60.645
271.36	61.373
271.73	65.421
272.10	60.652
272.47	63.226
272.84	64.286
273.21	59.119
273.58	58.079
273.95	59.119
274.32	59.298
274.69	63.597
275.06	60.433
275.43	60.851
275.80	61.924
276.17	61.711
276.54	61.331
276.91	60.079
277.28	58.789
277.65	60.348
278.02	60.455
278.39	61.133
278.76	57.818
279.13	58.113
279.50	59.963
279.87	56.375
280.23	62.675
280.60	58.221
280.97	58.226
281.34	57.699
281.71	58.000
282.08	59.885
282.45	58.727
282.82	57.726
283.19	56.684
283.56	58.772
283.92	57.022
284.29	57.672
284.66	55.717
285.03	58.409
285.40	56.338
285.77	55.387
286.14	56.304
286.51	54.667
286.87	57.607
287.24	56.678
287.61	53.612
287.98	54.221
288.35	53.249
288.72	52.648
289.08	53.991
289.45	53.542
289.82	54.472
290.19	52.433
290.56	50.689
290.93	47.885
291.29	51.380
291.66	52.802
292.03	50.872
292.40	51.101
292.77	50.000
293.13	48.358
293.50	49.125
293.87	49.926
294.24	47.704
294.60	46.870
294.97	48.837
295.34	46.121
295.71	48.295
296.08	45.014
296.44	46.630
296.81	44.782
297.18	46.748
297.55	43.404
297.91	44.987
298.28	44.846
298.65	44.778
299.02	46.640
299.38	46.082
299.75	40.970
300.12	43.295
300.48	44.875
300.85	43.280
301.22	42.930
301.59	41.288
301.95	44.836
302.32	43.517
302.69	41.099
303.05	42.182
303.42	42.346
303.79	40.317
304.15	41.026
304.52	40.556
304.89	42.741
305.25	41.183
305.62	42.695
305.99	43.211
306.35	41.834
306.72	41.928
307.09	41.620
307.45	41.104
307.82	40.179
308.19	40.949
308.55	41.316
308.92	40.494
309.29	40.760
309.65	41.251
310.02	41.015
310.38	40.753
310.75	42.027
311.12	40.737
311.48	41.484
311.85	42.872
312.22	41.519
312.58	39.397
312.95	42.555
313.31	41.650
313.68	41.996
314.05	43.491
314.41	44.121
314.78	43.202
315.14	41.112
315.51	43.769
315.87	44.653
316.24	44.786
316.61	44.542
316.97	43.836
317.34	44.325
317.70	45.220
318.07	44.947
318.43	44.912
318.80	45.548
319.16	46.045
319.53	46.529
319.89	47.143
320.26	47.600
320.62	47.817
320.99	48.788
321.35	49.798
321.72	50.719
322.08	50.839
322.45	53.731
322.81	52.229
323.18	50.963
323.54	50.557
323.91	51.887
324.27	52.964
324.64	54.054
325.00	52.750
325.37	53.776
325.73	55.296
326.10	55.516
326.46	55.287
326.83	56.687
327.19	56.533
327.56	56.620
327.92	58.705
328.29	58.651
328.65	59.669
329.01	58.574
329.38	58.927
329.74	58.356
330.11	60.226
330.47	59.688
330.84	60.294
331.20	59.107
331.56	61.376
331.93	61.852
332.29	58.740
332.66	59.558
333.02	62.066
333.38	60.885
333.75	59.537
334.11	59.431
334.48	61.846
334.84	61.581
335.20	60.727
335.57	59.746
335.93	59.375
336.29	59.524
336.66	62.218
337.02	60.905
337.38	60.833
337.75	59.626
338.11	61.504
338.47	62.063
338.84	62.236
339.20	59.266
339.56	62.500
339.93	60.273
340.29	61.051
340.65	59.893
341.02	60.820
341.38	61.477
341.74	59.912
342.11	61.223
342.47	62.996
342.83	60.702
343.20	62.338
343.56	60.067
343.92	61.754
344.28	62.330
344.65	61.565
345.01	58.249
345.37	59.949
345.73	62.606
346.10	60.870
346.46	60.339
346.82	62.026
347.19	60.735
347.55	59.934
347.91	61.893
348.27	61.545
348.63	61.371
349.00	59.790
349.36	60.591
349.72	59.663
350.08	60.211
350.45	60.374
350.81	60.114
351.17	61.912
351.53	61.016
351.89	59.158
352.26	60.142
352.62	60.786
352.98	60.373
353.34	60.148
353.70	60.475
354.07	61.532
354.43	59.286
354.79	60.660
355.15	59.617
355.51	60.831
355.87	61.959
356.24	61.482
356.60	61.026
356.96	61.947
357.32	60.998
357.68	60.551
358.04	59.857
358.40	62.787
358.77	59.937
359.13	60.537
359.49	61.333
359.85	60.159
360.21	61.085
360.57	62.179
360.93	62.000
361.29	61.829
361.66	61.378
362.02	61.940
362.38	60.913
362.74	61.235
363.10	60.770
363.46	60.528
363.82	60.847
364.18	61.233
364.54	61.738
364.90	61.827
365.26	61.397
365.62	61.213
365.98	60.409
366.35	60.029
366.71	61.244
367.07	62.127
367.43	63.062
367.79	61.742
368.15	62.069
368.51	62.282
368.87	62.455
369.23	60.790
369.59	61.912
369.95	61.838
370.31	61.467
370.67	60.217
371.03	62.846
371.39	62.536
371.75	61.544
372.11	63.158
372.47	63.563
372.83	62.392
373.19	61.633
373.55	62.232
373.91	64.359
374.27	59.863
374.63	63.418
374.99	61.582
375.35	61.549
375.71	62.029
376.07	63.649
376.42	62.930
376.78	62.425
377.14	61.330
377.50	63.113
377.86	62.035
378.22	62.453
378.58	61.842
378.94	61.596
379.30	63.486
379.66	63.706
380.02	62.776
380.38	62.720
380.74	63.445
381.09	64.792
381.45	62.631
381.81	62.162
382.17	63.312
382.53	62.579
382.89	64.074
383.25	64.415
383.61	63.631
383.97	62.477
384.32	62.196
384.68	62.577
385.04	63.307
385.40	63.034
385.76	61.118
386.12	63.277
386.48	63.940
386.83	62.733
387.19	62.894
387.55	63.513
387.91	62.152
388.27	62.416
388.62	62.077
388.98	62.408
389.34	63.642
389.70	63.458
390.06	62.801
390.42	64.008
390.77	62.532
391.13	63.752
391.49	62.246
391.85	63.654
392.20	61.830
392.56	63.699
392.92	62.036
393.28	61.953
393.64	62.470
393.99	60.904
394.35	62.469
394.71	62.359
395.07	62.243
395.42	63.226
395.78	62.023
396.14	61.390
396.50	63.095
396.85	63.255
397.21	62.022
397.57	62.120
397.92	61.178
398.28	60.762
398.64	62.186
399.00	61.780
399.35	62.493
399.71	61.690
400.07	61.443
400.42	62.454
400.78	62.485
401.14	61.098
401.49	61.672
401.85	62.371
402.21	60.299
402.57	61.875
402.92	61.791
403.28	62.773
403.63	61.757
403.99	62.994
404.35	61.455
404.70	61.571
405.06	61.503
405.42	62.383
405.77	60.457
406.13	60.835
406.49	60.615
406.84	61.075
407.20	60.993
407.55	60.817
407.91	61.800
408.27	61.327
408.62	60.566
408.98	60.662
409.34	62.116
409.69	62.710
410.05	60.843
410.40	60.122
410.76	60.992
411.11	58.987
411.47	59.808
411.83	60.538
412.18	61.039
412.54	62.204
412.89	60.361
413.25	60.803
413.60	60.593
413.96	59.684
414.31	60.814
414.67	61.280
415.03	61.589
415.38	59.987
415.74	60.514
416.09	61.986
416.45	60.977
416.80	60.872
417.16	62.131
417.51	62.774
417.87	58.382
418.22	60.568
418.58	59.199
418.93	60.504
419.29	60.535
419.64	60.516
420.00	59.939
420.35	59.942
420.71	60.012
421.06	59.368
421.42	59.825
421.77	59.529
422.12	59.349
422.48	58.500
422.83	61.153
423.19	59.061
423.54	59.954
423.90	59.188
424.25	58.906
424.61	59.048
424.96	61.633
425.31	58.859
425.67	58.258
426.02	59.200
426.38	60.134
426.73	59.216
427.09	59.818
427.44	59.057
427.79	59.459
428.15	58.988
428.50	58.689
428.85	58.105
429.21	58.752
429.56	58.372
429.92	58.983
430.27	57.895
430.62	58.269
430.98	59.107
431.33	58.299
431.68	58.901
432.04	58.626
432.39	59.223
432.74	59.306
433.10	59.423
433.45	60.641
433.80	58.925
434.16	58.868
434.51	57.368
434.86	57.925
435.22	58.477
435.57	59.027
435.92	58.514
436.28	59.015
436.63	58.720
436.98	57.756
437.34	59.630
437.69	59.218
438.04	58.066
438.39	58.269
438.75	59.733
439.10	58.492
439.45	59.799
439.81	59.819
440.16	58.498
440.51	57.235
440.86	58.541
441.22	58.009
441.57	57.856
441.92	59.417
442.27	58.827
442.63	57.767
442.98	58.817
443.33	58.913
443.68	58.234
444.03	58.175
444.39	58.325
444.74	59.253
445.09	57.089
445.44	57.682
445.79	58.337
446.15	57.279
446.50	57.512
446.85	57.503
447.20	57.369
447.55	59.631
447.91	57.694
448.26	57.040
448.61	57.886
448.96	57.309
449.31	57.930
449.66	58.582
450.02	57.103
450.37	56.973
450.72	57.868
451.07	56.795
451.42	56.596
451.77	57.487
452.12	56.928
452.47	56.903
452.83	58.100
453.18	57.396
453.53	58.318
453.88	57.354
454.23	56.426
454.58	58.752
454.93	58.932
455.28	57.232
455.63	57.160
455.98	58.393
456.34	58.417
456.69	58.297
457.04	56.223
457.39	56.867
457.74	56.413
458.09	57.102
458.44	57.184
458.79	55.315
459.14	56.885
459.49	56.801
459.84	56.066
460.19	55.922
460.54	55.035
460.89	55.952
461.24	56.891
461.59	56.653
461.94	55.672
462.29	56.380
462.64	55.775
462.99	57.515
463.34	56.600
463.69	57.098
464.04	55.188
464.39	56.000
464.74	55.080
465.09	56.454
465.44	55.125
465.79	55.761
466.14	55.556
466.49	55.451
466.84	54.466
467.19	55.824
467.54	55.688
467.89	55.702
468.24	55.207
468.59	56.105
468.94	54.184
469.29	55.784
469.64	55.422
469.99	56.022
470.34	55.218
470.68	56.250
471.03	54.490
471.38	55.942
471.73	55.430
472.08	56.711
472.43	54.460
472.78	54.312
473.13	54.108
473.48	54.557
473.83	55.061
474.17	54.138
474.52	55.335
474.87	55.517
475.22	54.266
475.57	54.057
475.92	53.797
476.27	53.608
476.61	53.447
476.96	54.261
477.31	53.532
477.66	54.267
478.01	52.692
478.36	54.310
478.70	54.206
479.05	53.142
479.40	53.992
479.75	53.584
480.10	53.429
480.45	53.356
480.79	52.795
481.14	53.033
481.49	52.776
481.84	52.538
482.19	53.430
482.53	53.165
482.88	52.583
483.23	52.196
483.58	52.775
483.92	52.718
484.27	51.198
484.62	51.379
484.97	52.148
485.31	52.603
485.66	51.377
486.01	49.724
486.36	48.244
486.70	47.383
487.05	48.466
487.40	49.642
487.75	50.192
488.09	51.259
488.44	50.000
488.79	52.080
489.13	51.451
489.48	50.897
489.83	51.360
490.17	51.995
490.52	51.373
490.87	51.515
491.22	51.432
491.56	50.296
491.91	51.466
492.26	50.574
492.60	50.046
492.95	51.076
493.30	50.093
493.64	51.097
493.99	50.511
494.34	50.879
494.68	50.046
495.03	50.658
495.37	49.698
495.72	51.170
496.07	51.415
496.41	49.469
496.76	50.352
497.11	50.698
497.45	50.442
497.80	50.576
498.14	49.758
498.49	49.951
498.84	50.144
499.18	49.143
499.53	49.335
499.87	50.652
500.22	49.647
500.56	51.117
500.91	49.760
501.26	50.213
501.60	51.210
501.95	48.533
502.29	50.375
502.64	49.674
502.98	49.229
503.33	48.995
503.67	49.142
504.02	49.673
504.36	49.836
504.71	49.585
505.06	49.349
505.40	48.809
505.75	48.602
506.09	48.834
506.44	50.025
506.78	49.148
507.13	49.975
507.47	49.444
507.82	49.645
508.16	49.493
508.51	50.076
508.85	48.659
509.19	49.133
509.54	49.337
509.88	49.408
510.23	48.535
510.57	50.052
510.92	51.113
511.26	47.996
511.61	48.548
511.95	48.643
512.30	47.932
512.64	49.866
512.98	49.464
513.33	49.036
513.67	47.759
514.02	48.485
514.36	48.990
514.70	48.976
515.05	49.470
515.39	48.738
515.74	48.536
516.08	48.966
516.42	48.502
516.77	49.554
517.11	48.391
517.46	49.153
517.80	49.884
518.14	48.350
518.49	49.708
518.83	48.182
519.17	47.691
519.52	48.783
519.86	47.576
520.20	49.364
520.55	48.534
520.89	48.905
521.23	50.302
521.58	49.940
521.92	48.990
522.26	47.895
522.61	48.847
522.95	48.005
523.29	48.144
523.64	48.902
523.98	48.799
524.32	48.673
524.66	49.308
525.01	48.836
525.35	47.770
525.69	46.983
526.04	48.349
526.38	48.200
526.72	48.589
527.06	48.776
527.41	47.215
527.75	49.132
528.09	49.133
528.43	48.948
528.78	47.388
529.12	47.455
529.46	48.316
529.80	49.629
530.15	47.352
530.49	47.385
530.83	48.418
531.17	48.956
531.51	48.768
531.86	48.581
532.20	49.022
532.54	48.495
532.88	48.010
533.22	46.846
533.57	46.296
533.91	46.719
534.25	47.631
534.59	47.102
534.93	46.222
535.27	46.409
535.62	47.985
535.96	47.207
536.30	46.599
536.64	46.684
536.98	47.445
537.32	47.795
537.66	47.267
538.01	47.465
538.35	47.382
538.69	48.373
539.03	46.849
539.37	46.326
539.71	47.181
540.05	46.144
540.39	47.110
540.73	45.731
541.07	47.047
541.42	47.489
541.76	48.065
542.10	47.413
542.44	47.285
542.78	47.628
543.12	46.641
543.46	47.082
543.80	46.259
544.14	46.149
544.48	46.540
544.82	46.889
545.16	47.430
545.50	45.823
545.84	46.371
546.18	47.071
546.52	46.731
546.86	45.704
547.20	45.381
547.54	45.625
547.88	47.577
548.22	45.579
548.56	45.472
548.90	45.262
549.24	45.926
549.58	46.726
549.92	46.360
550.26	46.662
550.60	46.404
550.94	46.127
551.28	45.428
551.62	46.298
551.96	45.965
552.30	45.666
552.64	45.504
552.98	45.424
553.32	44.909
553.66	45.671
554.00	45.985
554.34	44.030
554.68	46.209
555.02	45.275
555.36	44.468
555.69	45.264
556.03	45.087
556.37	44.816
556.71	43.997
557.05	45.868
557.39	44.717
557.73	43.684
558.07	46.265
558.41	44.284
558.75	44.893
559.08	44.668
559.42	45.881
559.76	44.926
560.10	44.254
560.44	45.143
560.78	43.912
561.12	43.865
561.45	43.677
561.79	42.650
562.13	44.064
562.47	44.194
562.81	44.630
563.15	44.883
563.48	44.828
563.82	44.879
564.16	43.950
564.50	42.969
564.84	44.437
565.17	44.852
565.51	44.665
565.85	43.972
566.19	44.458
566.52	44.142
566.86	42.917
567.20	43.632
567.54	42.865
567.88	44.106
568.21	43.598
568.55	42.265
568.89	42.510
569.23	42.246
569.56	40.000
569.90	41.660
570.24	41.227
570.57	40.394
570.91	39.625
571.25	40.210
571.59	40.147
571.92	40.265
572.26	39.919
572.60	39.550
572.93	39.460
573.27	39.840
573.61	39.978
573.95	40.129
574.28	39.598
574.62	39.359
574.96	39.355
575.29	39.016
575.63	38.821
575.97	39.000
576.30	39.352
576.64	39.348
576.98	39.864
577.31	39.233
577.65	39.935
577.98	39.345
578.32	38.503
578.66	38.847
578.99	39.717
579.33	38.562
579.67	38.020
580.00	38.648
580.34	38.894
580.67	39.211
581.01	39.690
581.35	39.231
581.68	39.185
582.02	38.237
582.35	38.354
582.69	38.431
583.02	38.648
583.36	39.175
583.70	38.137
584.03	39.159
584.37	39.315
584.70	38.976
585.04	39.066
585.37	38.886
585.71	38.957
586.04	38.971
586.38	39.368
586.72	38.967
587.05	38.006
587.39	38.417
587.72	38.856
588.06	38.367
588.39	39.204
588.73	38.956
589.06	39.140
589.40	39.360
589.73	39.493
590.07	39.288
590.40	38.911
590.73	39.617
591.07	41.188
591.40	39.941
591.74	40.303
592.07	39.180
592.41	39.479
592.74	38.839
593.08	39.141
593.41	38.564
593.75	37.289
594.08	38.351
594.41	39.378
594.75	39.261
595.08	38.153
595.42	38.809
595.75	38.782
596.09	39.054
596.42	39.018
596.75	39.341
597.09	39.610
597.42	38.449
597.75	40.103
598.09	37.957
598.42	38.316
598.76	38.833
599.09	38.236
599.42	37.955
599.76	38.360
600.09	38.761
600.42	37.619
600.76	37.714
601.09	37.486
601.42	37.976
601.76	37.647
602.09	38.063
602.42	39.053
602.76	39.218
603.09	38.159
603.42	38.188
603.76	38.643
604.09	38.658
604.42	37.954
604.76	39.013
605.09	39.362
605.42	38.307
605.75	38.369
606.09	38.552
606.42	38.087
606.75	38.075
607.09	38.552
607.42	38.383
607.75	37.468
608.08	37.907
608.42	38.189
608.75	37.872
609.08	37.835
609.41	37.554
609.75	38.161
610.08	38.077
610.41	38.687
610.74	38.363
611.07	37.846
611.41	39.156
611.74	38.864
612.07	39.027
612.40	38.982
612.73	38.421
613.07	39.224
613.40	39.336
613.73	37.861
614.06	38.763
614.39	38.228
614.72	37.579
615.06	38.498
615.39	37.208
615.72	38.446
616.05	37.852
616.38	39.022
616.71	39.489
617.05	40.459
617.38	38.605
617.71	39.099
618.04	39.363
618.37	38.794
618.70	39.452
619.03	39.211
619.36	39.104
619.69	38.732
620.03	39.835
620.36	39.906
620.69	39.384
621.02	40.339
621.35	39.781
621.68	38.006
622.01	40.557
622.34	39.788
622.67	39.544
623.00	40.059
623.33	39.743
623.66	40.172
623.99	39.396
624.32	38.659
624.65	39.124
624.99	37.465
625.32	38.595
625.65	39.970
625.98	40.507
626.31	40.280
626.64	40.980
626.97	39.817
627.30	39.485
627.63	40.279
627.96	41.295
628.29	41.207
628.62	40.805
628.95	40.943
629.28	40.602
629.61	40.605
629.94	41.714
630.26	39.752
630.59	39.276
630.92	39.847
631.25	40.573
631.58	40.040
631.91	40.467
632.24	40.295
632.57	41.553
632.90	40.899
633.23	39.485
633.56	41.469
633.89	40.430
634.22	40.068
634.55	42.485
634.88	40.719
635.20	41.577
635.53	42.289
635.86	41.832
636.19	39.176
636.52	40.484
636.85	40.206
637.18	39.055
637.51	42.435
637.83	39.088
638.16	42.072
638.49	42.065
638.82	42.478
639.15	41.625
639.48	41.895
639.81	44.236
640.13	42.187
640.46	43.758
640.79	43.461
641.12	42.091
641.45	41.620
641.77	41.532
642.10	40.936
642.43	40.991
642.76	41.331
643.09	43.865
643.41	42.640
643.74	43.056
644.07	43.598
644.40	42.485
644.73	46.142
645.05	45.008
645.38	44.392
645.71	43.800
646.04	41.694
646.36	43.239
646.69	42.308
647.02	42.177
647.35	42.784
647.67	43.717
648.00	42.114
648.33	42.244
648.66	43.333
648.98	43.628
649.31	42.152
649.64	42.302
649.96	41.282
650.29	43.760
650.62	44.175
650.94	41.491
651.27	44.764
651.60	42.596
651.92	44.728
652.25	40.228
652.58	43.614
652.90	43.760
653.23	40.524
653.56	42.205
653.88	42.631
654.21	42.022
654.54	40.759
654.86	39.875
655.19	38.649
655.52	31.441
655.84	30.187
656.17	39.594
656.49	52.915
656.82	53.106
657.15	40.061
657.47	29.701
657.80	22.708
658.13	23.529
658.45	34.897
658.78	34.351
659.10	35.782
659.43	36.794
659.75	39.169
660.08	41.519
660.41	43.855
660.73	44.727
661.06	42.197
661.38	45.091
661.71	47.308
662.03	45.365
662.36	44.135
662.68	43.976
663.01	45.051
663.33	47.134
663.66	46.429
663.98	45.140
664.31	44.538
664.63	45.749
664.96	42.052
665.28	45.287
665.61	44.055
665.93	43.058
666.26	42.191
666.58	43.515
666.91	47.992
667.23	46.067
667.56	41.253
667.88	46.368
668.21	44.350
668.53	44.252
668.86	46.104
669.18	44.563
669.50	42.174
669.83	47.277
670.15	47.556
670.48	43.791
670.80	47.629
671.13	42.038
671.45	42.766
671.77	44.196
672.10	43.993
672.42	44.170
672.75	40.133
673.07	44.014
673.39	41.230
673.72	44.531
674.04	42.157
674.37	41.359
674.69	42.127
675.01	44.142
675.34	43.326
675.66	49.053
675.98	45.418
676.31	44.538
676.63	43.737
676.95	44.654
677.28	47.664
677.60	45.495
677.92	45.359
678.25	42.916
678.57	44.024
678.89	45.892
679.22	42.240
679.54	43.321
679.86	45.688
680.18	40.250
680.51	43.617
680.83	43.238
681.15	44.528
681.48	44.423
681.80	42.553
682.12	43.295
682.44	40.426
682.77	43.177
683.09	49.142
683.41	45.898
683.73	46.358
684.06	48.967
684.38	43.640
684.70	44.767
685.02	45.028
685.34	40.659
685.67	40.559
685.99	41.065
686.31	40.273
686.63	38.869
686.96	40.536
687.28	41.697
687.60	41.667
687.92	43.327
688.24	42.205
688.56	45.382
688.89	47.095
689.21	45.197
689.53	41.754
689.85	45.233
690.17	40.373
690.49	44.374
690.82	43.224
691.14	42.188
691.46	41.983
691.78	42.169
692.10	45.041
692.42	46.307
692.74	42.739
693.06	42.340
693.39	44.148
693.71	45.633
694.03	43.368
694.35	40.693
694.67	43.936
694.99	44.390
695.31	43.382
695.63	43.062
695.95	46.699
696.27	42.893
696.59	46.632
696.91	46.373
697.23	40.845
697.56	44.136
697.88	39.264
698.20	41.458
698.52	45.376
698.84	41.648
699.16	42.166
699.48	44.418
699.80	44.444
700.12	51.169
700.44	49.337
700.76	49.171
701.08	49.138
701.40	45.810
701.72	50.146
702.04	50.284
702.36	45.042
702.68	46.176
703.00	46.260
703.32	44.681
703.64	47.185
703.96	46.797
704.28	43.605
704.60	47.801
704.91	48.368
705.23	46.628
705.55	52.492
705.87	52.824
706.19	47.350
706.51	45.483
706.83	52.121
707.15	47.339
707.47	42.424
707.79	46.683
708.11	43.379
708.43	44.048
708.74	43.622
709.06	45.195
709.38	44.882
709.70	45.640
710.02	47.478
710.34	44.848
710.66	48.358
710.98	46.591
711.29	47.965
711.61	46.018
711.93	42.949
712.25	50.161
712.57	50.000
712.89	47.751
713.20	45.593
713.52	53.618
713.84	46.519
714.16	45.732
714.48	44.253
714.80	50.152
715.11	48.127
715.43	43.620
715.75	45.797
716.07	47.284
716.39	43.574
716.70	52.824
717.02	50.360
717.34	47.350
717.66	52.985
717.97	56.574
718.29	51.111
718.61	47.080
718.93	50.368
719.24	48.443
719.56	49.153
719.88	50.847
720.20	48.649
720.51	51.916
720.83	52.788
721.15	47.761
721.46	49.291
721.78	52.688
722.10	52.075
722.42	52.256
722.73	49.813
723.05	51.639
723.37	51.012
723.68	52.124
724.00	52.033
724.32	54.435
724.63	49.593
724.95	47.699
725.27	52.227
725.58	51.563
725.90	50.730
726.22	49.434
726.53	49.306
726.85	51.536
727.16	52.313
727.48	46.099
727.80	55.682
728.11	54.348
728.43	49.231
728.74	48.029
729.06	53.650
729.38	53.676
729.69	50.178
730.01	47.099
730.32	46.528
730.64	50.502
730.96	45.215
731.27	53.642
731.59	48.930
731.90	47.522
732.22	44.720
732.53	44.272
732.85	47.115
733.16	47.267
733.48	47.176
733.80	50.000
734.11	50.637
734.43	45.858
734.74	45.143
735.06	45.559
735.37	47.399
735.69	44.268
736.00	49.673
736.32	47.664
736.63	45.687
736.95	45.048
737.26	43.197
737.58	41.290
737.89	47.826
738.21	48.805
738.52	48.571
738.83	45.283
739.15	49.231
739.46	54.380
739.78	47.222
740.09	47.077
740.41	49.355
740.72	46.690
741.04	49.259
741.35	50.833
741.66	57.333
741.98	52.830
742.29	56.459
742.61	54.310
742.92	53.846
743.23	49.573
743.55	50.400
743.86	55.263
744.18	57.965
744.49	58.852
744.80	57.746
745.12	57.273
745.43	48.458
745.74	54.505
746.06	52.752
746.37	54.709
746.68	53.394
747.00	56.944
747.31	57.619
747.62	49.115
747.94	52.423
748.25	53.617
748.56	54.185
748.88	53.465
749.19	65.500
749.50	53.488
749.82	45.122
750.13	50.204
750.44	48.540
750.75	53.684
751.07	48.875
751.38	50.871
751.69	51.986
752.01	52.256
752.32	47.653
752.63	50.000
752.94	54.918
753.26	51.200
753.57	45.935
753.88	51.172
754.19	54.286
754.51	50.694
754.82	43.682
755.13	48.302
755.44	48.872
755.75	46.350
756.07	46.809
756.38	47.810
756.69	45.973
757.00	43.413
757.31	43.620
757.63	45.029
757.94	43.164
758.25	41.667
758.56	42.222
758.87	42.742
759.18	49.091
759.50	46.708
759.81	40.498
760.12	45.312
760.43	45.845
760.74	44.565
761.05	45.480
761.36	39.037
761.67	48.011
761.99	47.826
762.30	45.833
762.61	47.328
762.92	53.125
763.23	50.420
763.54	54.000
763.85	51.563
764.16	50.385
764.47	51.331
764.78	45.936
765.10	45.253
765.41	47.493
765.72	47.904
766.03	46.708
766.34	44.333
766.65	56.596
766.96	54.701
767.27	58.376
767.58	53.125
767.89	61.579
768.20	54.023
768.51	55.330
768.82	59.633
769.13	48.374
769.44	46.559
769.75	52.361
770.06	52.294
770.37	57.014
770.68	56.944
770.99	47.111
771.30	50.000
771.61	60.090
771.92	48.361
772.23	58.403
772.54	56.923
772.85	60.209
773.16	57.979
773.47	61.957
773.78	57.360
774.09	63.095
774.39	61.988
774.70	64.815
775.01	73.913
775.32	67.974
775.63	67.763
775.94	69.065
776.25	70.866
776.56	64.925
776.87	66.393
777.18	71.875
777.48	71.756
777.79	72.727
778.10	69.630
778.41	72.321
778.72	57.664
779.03	62.416
779.34	62.416
779.65	65.541
779.95	60.123
780.26	56.863
780.57	66.207
780.88	78.125
781.19	68.421
781.50	66.216
781.80	73.585
782.11	61.017
782.42	60.127
782.73	56.442
783.04	58.784
783.34	73.239
783.65	69.863
783.96	74.627
784.27	65.734
784.57	56.115
784.88	73.148
785.19	69.841
785.50	75.472
785.81	72.388
786.11	80.328
786.42	71.318
786.73	72.566
787.04	83.962
787.34	86.607
787.65	96.000
787.96	70.270
788.26	69.421
788.57	80.508
788.88	81.818
789.19	63.194
789.49	71.212
789.80	66.412
790.11	76.190
790.41	83.168
790.72	93.976
791.03	98.913
791.33	91.860
791.64	90.722
791.95	82.178
792.25	91.111
792.56	106.494
792.87	106.410
793.17	98.734
793.48	101.149
793.79	82.759
794.09	96.591
794.40	68.908
794.70	80.882
795.01	60.741
795.32	59.712
795.62	66.142
795.93	77.586
796.23	77.876
796.54	75.294
796.85	98.649
797.15	104.225
797.46	103.030
797.76	103.614
798.07	91.139
798.37	100.000
798.68	103.030
798.99	83.099
799.29	93.506
799.60	88.636
799.90	110.959
800.21	102.985
800.51	106.897
800.82	131.579
801.12	98.361
801.43	113.636
801.73	102.703
802.04	122.222
802.34	95.062
802.65	103.125
802.95	103.390
803.26	117.188
803.56	104.286
803.87	101.538
804.17	101.471
804.48	144.444
804.78	110.345
805.09	101.471
805.39	140.385
805.70	121.429
806.00	113.115
806.30	104.545
806.61	101.220
806.91	97.468
807.22	98.684
807.52	101.493
807.83	100.000
808.13	110.938
808.43	125.000
808.74	92.105
809.04	107.246
809.35	110.448
809.65	101.316
809.95	135.484
810.26	98.305
810.56	114.286
810.86	147.727
811.17	180.952
811.47	146.667
811.77	133.333
812.08	143.636
812.38	142.000
812.69	186.111
812.99	175.000
813.29	142.857
813.59	133.333
813.90	151.020
814.20	127.273
814.50	107.692
814.81	126.471
815.11	122.449
815.41	126.230
815.72	147.619
816.02	140.000
816.32	159.524
816.62	157.500
816.93	148.780
817.23	159.524
817.53	163.636
817.84	227.273
818.14	150.000
818.44	144.444
818.74	167.647
819.04	155.000
819.35	177.143
819.65	188.235
819.95	242.857
820.25	285.000
820.56	197.436
820.86	147.727
821.16	193.023
821.46	174.359
821.76	148.000
822.07	177.143
822.37	170.000
822.67	224.242
822.97	141.176
823.27	221.429
823.57	183.784
823.88	182.500
824.18	243.333
824.48	159.524
824.78	248.000
825.08	229.167
825.38	151.351
825.69	187.805
825.99	250.000
826.29	189.655
826.59	178.947
826.89	181.579
827.19	173.529
827.49	225.806
827.79	152.273
828.09	154.545
828.39	144.681
828.70	148.980
829.00	211.111
829.30	183.871
829.60	145.000
829.90	353.333
830.20	239.286
830.50	230.435
830.80	260.870
831.10	233.333
831.40	206.667
831.70	239.130
832.00	253.846
832.30	248.148
832.60	325.000
832.90	186.667
833.20	428.571
833.50	206.452
833.80	213.793
834.10	225.000
834.40	253.846
834.70	355.556
835.00	266.667
835.30	194.286
835.60	453.846
835.90	251.724
836.20	407.143
836.50	217.241
836.80	232.000
837.10	186.111
837.40	309.524
837.70	317.647
838.00	251.852
838.30	280.952
838.60	304.762
838.90	265.385
839.19	230.000
839.49	464.286
839.79	365.000
840.09	260.000
840.39	271.429
840.69	252.174
840.99	333.333
841.29	530.000
841.59	333.333
841.88	375.000
842.18	196.552
842.48	285.714
842.78	193.333
843.08	234.783
843.38	212.500
843.68	916.667
843.97	269.231
844.27	251.724
844.57	328.571
844.87	375.000
845.17	233.333
845.47	1933.333
845.76	544.444
846.06	341.176
846.36	550.000
846.66	414.286
846.96	331.250
847.25	463.636
847.55	463.636
847.85	234.783
848.15	540.000
848.44	385.714
848.74	261.111
849.04	388.235
849.34	540.000
849.63	273.684
849.93	509.091
850.23	1140.000
850.53	507.143
850.82	2300.000
851.12	-5000.000
851.42	6500.000
851.71	315.000
852.01	-1666.667
852.31	291.667
852.61	1600.000
852.90	328.571
853.20	280.000
853.50	358.824
853.79	300.000
854.09	237.500
854.39	387.500
854.68	191.892
854.98	193.548
855.28	206.667
855.57	237.931
855.87	288.889
856.17	247.368
856.46	280.000
856.76	358.824
857.05	244.828
857.35	237.500
857.65	420.000
857.94	243.478
858.24	253.846
858.53	300.000
858.83	290.909
859.13	426.667
859.42	0.000
859.72	566.667
860.01	590.909
860.31	245.455
860.60	315.789
860.90	269.565
861.20	644.444
861.49	533.333
861.79	-5100.000
862.08	675.000
862.38	280.952
862.67	430.769
862.97	358.824
863.26	611.111
863.56	272.222
863.85	466.667
864.15	687.500
864.44	393.333
864.74	1000.000
865.03	750.000
865.33	310.526
865.62	472.727
865.92	507.692
866.21	400.000
866.51	0.000
866.80	372.727
867.10	1100.000
867.39	484.615
867.69	481.818
867.98	242.105
868.27	454.545
868.57	342.105
868.86	-4900.000
869.16	368.750
869.45	2150.000
869.75	-5100.000
870.04	525.000
870.33	785.714
870.63	1000.000
870.92	2900.000
871.22	828.571
871.51	376.471
871.80	200.000
872.10	385.714
>>>>>End Processed Spectral Data<<<<<
