SpectraSuite Data File
++++++++++++++++++++++++++++++++++++
Date: Wed May 13 19:55:50 PDT 2015
User: schluterlab
Dark Spectrum Present: Yes
Reference Spectrum Present: Yes
Number of Sampled Component Spectra: 1
Spectrometers: USB2E3373
Integration Time (usec): 3000 (USB2E3373)
Spectra Averaged: 3 (USB2E3373)
Boxcar Smoothing: 0 (USB2E3373)
Correct for Electrical Dark: No (USB2E3373)
Strobe/Lamp Enabled: No (USB2E3373)
Correct for Detector Non-linearity: No (USB2E3373)
Correct for Stray Light: No (USB2E3373)
Number of Pixels in Processed Spectrum: 2048
>>>>>Begin Processed Spectral Data<<<<<
178.53	0.000
178.91	-1275.000
179.29	-1300.000
179.67	-238.889
180.04	-1400.000
180.42	2650.000
180.80	1120.000
181.18	-1100.000
181.56	742.857
181.94	0.000
182.31	-614.286
182.69	1733.333
183.07	-687.500
183.45	-444.444
183.83	490.909
184.20	-350.000
184.58	2300.000
184.96	6600.000
185.34	-860.000
185.72	-700.000
186.09	-2250.000
186.47	2750.000
186.85	2550.000
187.23	4700.000
187.61	-1866.667
187.98	1450.000
188.36	563.636
188.74	509.091
189.12	-940.000
189.49	540.000
189.87	-5200.000
190.25	-1175.000
190.63	400.000
191.00	415.385
191.38	766.667
191.76	-1150.000
192.14	1600.000
192.51	587.500
192.89	966.667
193.27	575.000
193.65	-1100.000
194.02	560.000
194.40	1100.000
194.78	500.000
195.15	458.333
195.53	610.000
195.91	-1950.000
196.29	400.000
196.66	315.789
197.04	-390.000
197.42	0.000
197.79	730.000
198.17	-5800.000
198.55	742.857
198.92	737.500
199.30	1080.000
199.68	0.000
200.05	327.778
200.43	800.000
200.81	4600.000
201.18	1933.333
201.56	-1533.333
201.94	577.778
202.31	644.444
202.69	466.667
203.07	470.000
203.44	0.000
203.82	1300.000
204.19	757.143
204.57	435.714
204.95	512.500
205.32	1733.333
205.70	500.000
206.08	407.143
206.45	2800.000
206.83	350.000
207.20	900.000
207.58	940.000
207.96	327.778
208.33	787.500
208.71	-816.667
209.08	785.714
209.46	611.111
209.84	509.091
210.21	-1800.000
210.59	1300.000
210.96	-487.500
211.34	2800.000
211.71	580.000
212.09	800.000
212.46	0.000
212.84	1666.667
213.22	1450.000
213.59	-4100.000
213.97	966.667
214.34	800.000
214.72	527.273
215.09	1240.000
215.47	-2750.000
215.84	-2600.000
216.22	1800.000
216.59	421.429
216.97	1400.000
217.34	509.091
217.72	-850.000
218.09	0.000
218.47	-5300.000
218.84	622.222
219.22	828.571
219.59	1933.333
219.97	-700.000
220.34	1040.000
220.72	-1600.000
221.09	385.714
221.47	1400.000
221.84	-866.667
222.22	0.000
222.59	1125.000
222.97	-2600.000
223.34	1280.000
223.72	492.308
224.09	1120.000
224.46	2100.000
224.84	-5200.000
225.21	-1040.000
225.59	-4500.000
225.96	540.000
226.34	345.000
226.71	2650.000
227.08	637.500
227.46	490.000
227.83	-1175.000
228.21	-1850.000
228.58	633.333
228.95	-2600.000
229.33	-2400.000
229.70	1500.000
230.08	885.714
230.45	-820.000
230.82	425.000
231.20	1016.667
231.57	642.857
231.95	583.333
232.32	231.818
232.69	445.455
233.07	585.714
233.44	430.769
233.81	-1600.000
234.19	294.737
234.56	408.333
234.93	366.667
235.31	463.636
235.68	323.077
236.05	400.000
236.43	166.667
236.80	278.947
237.17	4200.000
237.55	276.190
237.92	217.857
238.29	266.667
238.67	177.419
239.04	217.241
239.41	130.556
239.79	132.609
240.16	133.333
240.53	106.818
240.91	92.157
241.28	98.000
241.65	114.000
242.02	84.058
242.40	70.968
242.77	81.667
243.14	66.667
243.51	71.910
243.89	65.882
244.26	51.111
244.63	67.742
245.00	60.638
245.38	53.465
245.75	51.402
246.12	55.046
246.49	55.474
246.87	57.600
247.24	54.615
247.61	38.571
247.98	35.948
248.36	39.189
248.73	45.860
249.10	42.038
249.47	38.418
249.84	40.107
250.22	36.898
250.59	33.728
250.96	33.838
251.33	32.701
251.70	37.624
252.08	30.476
252.45	33.632
252.82	31.304
253.19	34.468
253.56	29.020
253.94	31.950
254.31	25.391
254.68	31.923
255.05	28.413
255.42	24.797
255.79	22.794
256.16	28.159
256.54	26.502
256.91	27.758
257.28	20.504
257.65	21.122
258.02	26.398
258.39	28.707
258.76	28.428
259.14	24.405
259.51	24.620
259.88	20.807
260.25	24.169
260.62	23.988
260.99	25.155
261.36	23.423
261.73	20.630
262.10	22.093
262.47	23.380
262.85	22.563
263.22	17.379
263.59	25.071
263.96	21.154
264.33	22.454
264.70	21.579
265.07	21.228
265.44	21.717
265.81	19.221
266.18	21.859
266.55	19.756
266.92	20.393
267.29	20.833
267.66	20.642
268.03	20.909
268.40	21.729
268.77	19.093
269.14	20.270
269.51	20.767
269.88	22.844
270.25	20.316
270.62	19.551
270.99	21.720
271.36	19.313
271.73	20.327
272.10	18.261
272.47	22.151
272.84	18.398
273.21	20.755
273.58	17.467
273.95	16.143
274.32	16.942
274.69	19.058
275.06	17.126
275.43	18.723
275.80	17.836
276.17	17.719
276.54	15.800
276.91	17.787
277.28	16.797
277.65	18.182
278.02	16.770
278.39	19.336
278.76	16.909
279.13	17.736
279.50	17.877
279.87	17.729
280.23	17.764
280.60	16.248
280.97	14.603
281.34	17.168
281.71	17.455
282.08	16.891
282.45	16.727
282.82	16.519
283.19	14.439
283.56	16.140
283.92	17.259
284.29	16.578
284.66	15.789
285.03	16.998
285.40	14.613
285.77	16.330
286.14	15.544
286.51	16.667
286.87	17.265
287.24	15.961
287.61	14.446
287.98	18.019
288.35	15.214
288.72	15.576
289.08	15.493
289.45	14.992
289.82	14.797
290.19	13.972
290.56	14.701
290.93	14.199
291.29	14.571
291.66	14.159
292.03	15.843
292.40	15.125
292.77	13.314
293.13	14.776
293.50	14.723
293.87	14.074
294.24	10.963
294.60	12.373
294.97	13.227
295.34	14.669
295.71	15.199
296.08	13.960
296.44	12.242
296.81	13.474
297.18	14.634
297.55	11.873
297.91	12.797
298.28	14.190
298.65	14.360
299.02	12.121
299.38	11.155
299.75	10.377
300.12	11.494
300.48	11.500
300.85	12.700
301.22	11.847
301.59	11.237
301.95	11.587
302.32	11.040
302.69	12.067
303.05	11.152
303.42	9.877
303.79	12.344
304.15	9.790
304.52	9.849
304.89	10.105
305.25	9.977
305.62	10.985
305.99	11.806
306.35	12.081
306.72	10.650
307.09	11.321
307.45	10.923
307.82	10.603
308.19	11.700
308.55	11.974
308.92	11.815
309.29	10.560
309.65	10.286
310.02	10.782
310.38	10.323
310.75	11.299
311.12	11.566
311.48	12.644
311.85	12.788
312.22	11.446
312.58	10.811
312.95	11.827
313.31	11.748
313.68	11.435
314.05	13.018
314.41	12.563
314.78	10.977
315.14	12.115
315.51	13.079
315.87	12.475
316.24	13.108
316.61	12.378
316.97	13.112
317.34	11.742
317.70	14.245
318.07	13.378
318.43	14.873
318.80	15.276
319.16	14.972
319.53	15.478
319.89	16.000
320.26	15.400
320.62	16.369
320.99	17.273
321.35	18.081
321.72	16.632
322.08	17.966
322.45	20.000
322.81	19.477
323.18	19.557
323.54	19.109
323.91	21.226
324.27	20.554
324.64	21.342
325.00	22.092
325.37	22.657
325.73	23.339
326.10	23.036
326.46	21.774
326.83	25.280
327.19	24.082
327.56	24.826
327.92	24.497
328.29	26.087
328.65	27.072
329.01	25.812
329.38	27.937
329.74	26.962
330.11	26.861
330.47	28.191
330.84	28.493
331.20	29.235
331.56	28.349
331.93	28.611
332.29	28.128
332.66	29.204
333.02	29.250
333.38	29.268
333.75	29.234
334.11	30.249
334.48	27.950
334.84	29.412
335.20	30.545
335.57	30.009
335.93	28.571
336.29	30.311
336.66	28.855
337.02	29.864
337.38	30.000
337.75	30.214
338.11	30.260
338.47	31.308
338.84	31.347
339.20	30.459
339.56	31.387
339.93	29.636
340.29	30.254
340.65	30.392
341.02	31.501
341.38	31.584
341.74	31.228
342.11	31.441
342.47	31.278
342.83	30.479
343.20	32.294
343.56	31.508
343.92	31.930
344.28	31.463
344.65	32.416
345.01	30.556
345.37	31.218
345.73	31.472
346.10	31.799
346.46	31.695
346.82	32.784
347.19	31.245
347.55	31.117
347.91	32.362
348.27	32.128
348.63	31.940
349.00	31.472
349.36	31.691
349.72	33.119
350.08	32.901
350.45	33.442
350.81	33.387
351.17	32.658
351.53	31.859
351.89	31.601
352.26	33.070
352.62	33.360
352.98	33.144
353.34	33.772
353.70	32.324
354.07	33.710
354.43	32.698
354.79	32.824
355.15	33.679
355.51	34.373
355.87	33.959
356.24	33.388
356.60	32.799
356.96	34.111
357.32	33.688
357.68	34.488
358.04	33.492
358.40	35.550
358.77	34.898
359.13	33.307
359.49	34.588
359.85	33.095
360.21	34.609
360.57	35.331
360.93	36.154
361.29	35.752
361.66	34.598
362.02	35.373
362.38	35.970
362.74	35.937
363.10	34.863
363.46	35.216
363.82	35.525
364.18	34.435
364.54	37.370
364.90	35.907
365.26	37.059
365.62	35.720
365.98	36.231
366.35	36.032
366.71	35.792
367.07	36.271
367.43	37.518
367.79	37.759
368.15	37.644
368.51	35.320
368.87	37.045
369.23	37.747
369.59	37.581
369.95	38.015
370.31	37.536
370.67	37.246
371.03	38.577
371.39	37.682
371.75	37.426
372.11	37.909
372.47	39.956
372.83	39.625
373.19	39.451
373.55	39.246
373.91	40.280
374.27	38.488
374.63	38.909
374.99	40.113
375.35	38.241
375.71	39.273
376.07	39.575
376.42	40.509
376.78	40.490
377.14	40.909
377.50	40.464
377.86	39.229
378.22	41.150
378.58	38.033
378.94	39.598
379.30	39.949
379.66	40.926
380.02	40.725
380.38	40.559
380.74	41.717
381.09	41.320
381.45	41.610
381.81	42.322
382.17	41.401
382.53	41.258
382.89	41.358
383.25	42.464
383.61	43.494
383.97	41.964
384.32	41.734
384.68	41.822
385.04	43.024
385.40	42.167
385.76	43.428
386.12	42.098
386.48	42.668
386.83	43.938
387.19	44.094
387.55	42.424
387.91	43.289
388.27	42.796
388.62	43.270
388.98	42.445
389.34	44.368
389.70	42.612
390.06	43.980
390.42	43.191
390.77	44.402
391.13	44.927
391.49	45.622
391.85	43.603
392.20	43.785
392.56	44.381
392.92	44.438
393.28	42.426
393.64	44.964
393.99	44.411
394.35	44.479
394.71	44.228
395.07	43.738
395.42	45.117
395.78	44.402
396.14	45.438
396.50	45.238
396.85	46.154
397.21	44.390
397.57	44.761
397.92	44.892
398.28	43.722
398.64	44.325
399.00	45.271
399.35	43.598
399.71	44.850
400.07	45.003
400.42	45.276
400.78	45.899
401.14	45.122
401.49	45.612
401.85	46.098
402.21	45.030
402.57	43.924
402.92	46.784
403.28	45.159
403.63	45.483
403.99	45.287
404.35	45.879
404.70	45.204
405.06	45.428
405.42	45.664
405.77	45.086
406.13	44.357
406.49	45.713
406.84	44.773
407.20	44.622
407.55	45.437
407.91	45.400
408.27	47.479
408.62	44.792
408.98	45.772
409.34	45.264
409.69	46.000
410.05	45.477
410.40	46.055
410.76	44.982
411.11	45.356
411.47	45.495
411.83	46.121
412.18	44.960
412.54	46.389
412.89	44.880
413.25	44.923
413.60	45.769
413.96	44.930
414.31	45.079
414.67	44.677
415.03	45.960
415.38	45.747
415.74	45.659
416.09	46.506
416.45	45.448
416.80	46.728
417.16	47.051
417.51	46.583
417.87	44.701
418.22	45.174
418.58	45.965
418.93	46.314
419.29	44.558
419.64	45.718
420.00	45.122
420.35	45.739
420.71	45.069
421.06	44.809
421.42	45.205
421.77	46.132
422.12	45.424
422.48	44.846
422.83	46.360
423.19	44.862
423.54	45.444
423.90	44.986
424.25	45.338
424.61	45.417
424.96	46.239
425.31	44.352
425.67	45.000
426.02	44.857
426.38	45.971
426.73	44.997
427.09	44.559
427.44	45.256
427.79	44.681
428.15	45.119
428.50	45.056
428.85	45.471
429.21	44.616
429.56	45.049
429.92	44.338
430.27	43.793
430.62	44.700
430.98	43.643
431.33	43.505
431.68	44.398
432.04	43.717
432.39	44.603
432.74	44.883
433.10	45.218
433.45	44.431
433.80	45.122
434.16	45.246
434.51	43.842
434.86	44.413
435.22	44.302
435.57	44.377
435.92	44.705
436.28	45.730
436.63	44.426
436.98	44.476
437.34	44.365
437.69	44.574
438.04	44.463
438.39	44.955
438.75	44.974
439.10	45.363
439.45	45.041
439.81	45.317
440.16	44.156
440.51	44.640
440.86	45.512
441.22	44.772
441.57	43.896
441.92	44.933
442.27	44.564
442.63	43.865
442.98	45.746
443.33	44.022
443.68	43.624
444.03	43.582
444.39	43.622
444.74	44.859
445.09	44.528
445.44	44.068
445.79	44.433
446.15	44.044
446.50	44.157
446.85	44.502
447.20	44.161
447.55	43.942
447.91	43.905
448.26	43.962
448.61	44.262
448.96	44.961
449.31	44.938
449.66	43.500
450.02	43.844
450.37	42.687
450.72	42.865
451.07	43.266
451.42	42.675
451.77	44.921
452.12	43.764
452.47	43.719
452.83	44.114
453.18	43.765
453.53	44.156
453.88	43.001
454.23	42.439
454.58	44.276
454.93	44.120
455.28	42.519
455.63	42.476
455.98	44.524
456.34	43.656
456.69	43.519
457.04	43.096
457.39	42.490
457.74	43.703
458.09	42.668
458.44	42.645
458.79	41.811
459.14	43.341
459.49	42.674
459.84	42.050
460.19	42.487
460.54	40.972
460.89	42.293
461.24	43.169
461.59	43.114
461.94	42.293
462.29	42.908
462.64	41.608
462.99	41.509
463.34	42.267
463.69	41.588
464.04	42.029
464.39	41.913
464.74	40.879
465.09	41.556
465.44	40.166
465.79	40.157
466.14	40.558
466.49	39.711
466.84	40.806
467.19	40.917
467.54	41.625
467.89	39.976
468.24	38.976
468.59	41.087
468.94	40.501
469.29	40.874
469.64	42.035
469.99	41.069
470.34	40.357
470.68	41.954
471.03	40.136
471.38	40.931
471.73	40.240
472.08	40.724
472.43	39.573
472.78	39.763
473.13	39.281
473.48	40.325
473.83	39.878
474.17	39.017
474.52	39.144
474.87	39.696
475.22	39.640
475.57	38.098
475.92	38.980
476.27	38.331
476.61	38.500
476.96	39.032
477.31	38.514
477.66	38.512
478.01	38.735
478.36	37.969
478.70	38.837
479.05	38.179
479.40	38.025
479.75	37.672
480.10	37.425
480.45	37.030
480.79	37.172
481.14	37.133
481.49	37.162
481.84	36.763
482.19	38.074
482.53	36.284
482.88	37.087
483.23	36.916
483.58	36.442
483.92	36.785
484.27	35.076
484.62	35.991
484.97	35.317
485.31	35.479
485.66	34.612
486.01	33.309
486.36	32.726
486.70	32.339
487.05	33.153
487.40	33.759
487.75	33.927
488.09	34.516
488.44	34.123
488.79	34.901
489.13	35.218
489.48	34.747
489.83	35.304
490.17	35.555
490.52	34.632
490.87	34.645
491.22	34.561
491.56	34.260
491.91	34.760
492.26	33.578
492.60	34.654
492.95	34.097
493.30	33.505
493.64	34.064
493.99	34.123
494.34	33.765
494.68	34.844
495.03	34.727
495.37	33.737
495.72	34.357
496.07	34.246
496.41	32.566
496.76	33.465
497.11	32.913
497.45	33.535
497.80	33.685
498.14	33.237
498.49	32.439
498.84	33.605
499.18	32.619
499.53	33.096
499.87	33.038
500.22	32.313
500.56	33.738
500.91	31.971
501.26	33.001
501.60	33.365
501.95	32.035
502.29	32.006
502.64	33.520
502.98	32.492
503.33	31.764
503.67	32.111
504.02	32.133
504.36	31.399
504.71	30.972
505.06	31.518
505.40	31.551
505.75	31.196
506.09	31.924
506.44	32.116
506.78	31.905
507.13	31.954
507.47	31.515
507.82	31.459
508.16	31.104
508.51	32.116
508.85	31.231
509.19	31.531
509.54	31.429
509.88	31.170
510.23	31.105
510.57	31.579
510.92	30.865
511.26	30.473
511.61	30.913
511.95	30.376
512.30	30.594
512.64	30.897
512.98	30.439
513.33	30.032
513.67	30.256
514.02	30.411
514.36	30.421
514.70	30.825
515.05	30.229
515.39	30.510
515.74	30.856
516.08	30.520
516.42	31.077
516.77	30.936
517.11	30.133
517.46	30.192
517.80	30.081
518.14	29.299
518.49	30.688
518.83	30.000
519.17	30.370
519.52	30.164
519.86	29.835
520.20	31.098
520.55	31.119
520.89	30.535
521.23	30.820
521.58	30.432
521.92	29.822
522.26	29.042
522.61	30.717
522.95	29.466
523.29	29.337
523.64	29.878
523.98	30.006
524.32	29.131
524.66	29.946
525.01	28.860
525.35	29.926
525.69	29.618
526.04	29.595
526.38	29.713
526.72	29.509
527.06	30.069
527.41	28.218
527.75	30.096
528.09	29.287
528.43	29.127
528.78	29.625
529.12	28.788
529.46	29.884
529.80	29.270
530.15	29.595
530.49	28.431
530.83	28.354
531.17	29.700
531.51	29.896
531.86	29.548
532.20	29.922
532.54	28.956
532.88	29.910
533.22	28.420
533.57	28.580
533.91	28.055
534.25	29.040
534.59	28.066
534.93	27.960
535.27	28.183
535.62	27.656
535.96	28.249
536.30	27.781
536.64	28.912
536.98	27.538
537.32	27.781
537.66	28.533
538.01	28.506
538.35	28.442
538.69	28.079
539.03	28.460
539.37	27.093
539.71	26.896
540.05	27.451
540.39	27.309
540.73	27.102
541.07	27.060
541.42	27.658
541.76	27.935
542.10	27.749
542.44	27.483
542.78	27.207
543.12	25.592
543.46	27.607
543.80	27.391
544.14	25.931
544.48	27.746
544.82	26.684
545.16	27.586
545.50	26.414
545.84	26.277
546.18	26.195
546.52	26.428
546.86	26.323
547.20	27.512
547.54	27.121
547.88	26.020
548.22	25.716
548.56	26.667
548.90	25.608
549.24	25.724
549.58	27.149
549.92	26.236
550.26	26.705
550.60	26.418
550.94	26.901
551.28	26.481
551.62	26.456
551.96	26.105
552.30	25.870
552.64	25.490
552.98	26.576
553.32	25.489
553.66	26.312
554.00	26.218
554.34	24.845
554.68	25.823
555.02	25.882
555.36	24.495
555.69	24.831
556.03	25.034
556.37	25.648
556.71	25.171
557.05	25.840
557.39	25.192
557.73	25.124
558.07	26.323
558.41	25.977
558.75	26.451
559.08	26.547
559.42	25.397
559.76	24.779
560.10	25.625
560.44	24.668
560.78	25.150
561.12	24.274
561.45	26.010
561.79	24.852
562.13	24.614
562.47	24.658
562.81	25.244
563.15	24.749
563.48	25.000
563.82	24.723
564.16	24.133
564.50	23.958
564.84	23.767
565.17	24.389
565.51	24.984
565.85	23.985
566.19	23.857
566.52	24.509
566.86	22.604
567.20	23.762
567.54	23.516
567.88	21.673
568.21	23.757
568.55	22.599
568.89	22.617
569.23	21.569
569.56	21.822
569.90	21.774
570.24	21.206
570.57	20.639
570.91	20.427
571.25	20.754
571.59	20.707
571.92	20.565
572.26	20.855
572.60	20.931
572.93	20.540
573.27	20.793
573.61	20.743
573.95	20.698
574.28	20.302
574.62	20.311
574.96	19.904
575.29	19.665
575.63	19.970
575.97	19.656
576.30	19.995
576.64	19.712
576.98	19.519
577.31	19.385
577.65	19.805
577.98	19.582
578.32	18.924
578.66	18.847
578.99	19.493
579.33	19.656
579.67	19.606
580.00	19.276
580.34	19.910
580.67	19.617
581.01	19.474
581.35	19.063
581.68	18.970
582.02	18.541
582.35	19.005
582.69	19.197
583.02	19.042
583.36	19.368
583.70	19.356
584.03	19.462
584.37	19.921
584.70	19.619
585.04	19.521
585.37	19.175
585.71	19.455
586.04	19.473
586.38	19.671
586.72	19.829
587.05	18.908
587.39	18.813
587.72	18.990
588.06	18.997
588.39	19.369
588.73	19.331
589.06	19.882
589.40	19.798
589.73	19.641
590.07	19.644
590.40	19.985
590.73	19.828
591.07	20.472
591.40	20.371
591.74	20.736
592.07	20.462
592.41	19.843
592.74	19.288
593.08	19.021
593.41	19.013
593.75	18.520
594.08	19.008
594.41	19.406
594.75	18.669
595.08	19.077
595.42	19.054
595.75	19.124
596.09	19.640
596.42	19.804
596.75	20.177
597.09	20.043
597.42	18.718
597.75	19.577
598.09	19.304
598.42	19.287
598.76	19.173
599.09	18.168
599.42	18.668
599.76	19.034
600.09	18.033
600.42	18.481
600.76	18.536
601.09	17.923
601.42	18.912
601.76	18.710
602.09	18.696
602.42	19.387
602.76	18.823
603.09	19.001
603.42	18.782
603.76	18.598
604.09	18.224
604.42	19.160
604.76	19.359
605.09	19.048
605.42	18.982
605.75	18.833
606.09	18.219
606.42	18.799
606.75	18.333
607.09	18.794
607.42	18.485
607.75	17.975
608.08	18.367
608.42	19.364
608.75	18.891
609.08	18.733
609.41	18.753
609.75	18.961
610.08	18.850
610.41	18.063
610.74	18.307
611.07	19.911
611.41	19.578
611.74	19.256
612.07	19.617
612.40	19.727
612.73	19.737
613.07	19.774
613.40	19.537
613.73	18.878
614.06	19.086
614.39	18.878
614.72	19.368
615.06	18.960
615.39	18.524
615.72	18.303
616.05	18.713
616.38	19.177
616.71	20.131
617.05	19.435
617.38	19.483
617.71	18.739
618.04	20.012
618.37	19.160
618.70	19.415
619.03	19.342
619.36	19.959
619.69	20.070
620.03	18.887
620.36	19.385
620.69	21.027
621.02	20.280
621.35	19.421
621.68	19.237
622.01	20.433
622.34	19.970
622.67	19.696
623.00	19.002
623.33	19.157
623.66	19.371
623.99	19.956
624.32	19.971
624.65	19.633
624.99	19.334
625.32	19.696
625.65	20.511
625.98	19.908
626.31	20.218
626.64	20.898
626.97	20.698
627.30	18.620
627.63	20.509
627.96	20.690
628.29	21.435
628.62	21.409
628.95	22.170
629.28	21.715
629.61	21.173
629.94	20.571
630.26	21.449
630.59	20.591
630.92	19.923
631.25	19.645
631.58	20.521
631.91	21.805
632.24	20.886
632.57	21.931
632.90	21.162
633.23	21.365
633.56	22.260
633.89	22.084
634.22	21.566
634.55	24.024
634.88	22.275
635.20	23.536
635.53	22.289
635.86	21.535
636.19	20.706
636.52	21.107
636.85	22.451
637.18	21.544
637.51	21.395
637.83	19.729
638.16	24.552
638.49	23.174
638.82	24.020
639.15	21.375
639.48	23.691
639.81	22.386
640.13	23.568
640.46	22.685
640.79	23.250
641.12	20.358
641.45	23.045
641.77	25.184
642.10	24.708
642.43	22.673
642.76	22.446
643.09	23.620
643.41	22.307
643.74	25.154
644.07	22.256
644.40	24.693
644.73	25.039
645.05	24.089
645.38	23.381
645.71	23.510
646.04	24.419
646.36	26.544
646.69	24.749
647.02	24.320
647.35	23.368
647.67	25.133
648.00	24.878
648.33	23.102
648.66	23.182
648.98	24.288
649.31	21.973
649.64	21.824
649.96	22.206
650.29	22.433
650.62	21.683
650.94	25.608
651.27	25.338
651.60	25.957
651.92	23.482
652.25	22.638
652.58	23.832
652.90	21.643
653.23	21.263
653.56	23.622
653.88	24.564
654.21	24.487
654.54	24.917
654.86	23.676
655.19	21.351
655.52	14.585
655.84	11.554
656.17	14.741
656.49	19.856
656.82	20.718
657.15	15.968
657.47	12.025
657.80	9.526
658.13	9.916
658.45	15.236
658.78	15.550
659.10	16.438
659.43	17.291
659.75	18.490
660.08	19.241
660.41	21.974
660.73	21.474
661.06	22.611
661.38	25.091
661.71	23.077
662.03	24.655
662.36	21.074
662.68	23.092
663.01	26.061
663.33	24.628
663.66	24.580
663.98	25.054
664.31	23.739
664.63	24.899
664.96	24.950
665.28	24.180
665.61	24.561
665.93	24.950
666.26	26.369
666.58	24.268
666.91	25.370
667.23	26.966
667.56	25.270
667.88	27.778
668.21	27.719
668.53	21.475
668.86	27.273
669.18	27.079
669.50	26.739
669.83	27.233
670.15	26.889
670.48	23.965
670.80	27.802
671.13	24.841
671.45	24.468
671.77	24.236
672.10	23.845
672.42	23.145
672.75	24.212
673.07	22.359
673.39	21.338
673.72	22.852
674.04	22.941
674.37	22.913
674.69	23.517
675.01	24.059
675.34	28.337
675.66	26.526
675.98	26.477
676.31	25.000
676.63	25.053
676.95	23.061
677.28	25.234
677.60	24.835
677.92	26.160
678.25	26.283
678.57	27.092
678.89	25.651
679.22	23.969
679.54	23.282
679.86	23.303
680.18	21.825
680.51	23.227
680.83	24.021
681.15	24.340
681.48	26.465
681.80	23.791
682.12	22.797
682.44	23.211
682.77	23.829
683.09	26.180
683.41	25.721
683.73	22.737
684.06	26.033
684.38	23.679
684.70	24.419
685.02	24.953
685.34	24.542
685.67	22.028
685.99	18.900
686.31	24.573
686.63	20.495
686.96	21.964
687.28	22.022
687.60	21.196
687.92	23.035
688.24	22.243
688.56	25.904
688.89	24.274
689.21	27.511
689.53	22.756
689.85	26.164
690.17	24.224
690.49	25.265
690.82	25.234
691.14	23.437
691.46	22.785
691.78	23.896
692.10	25.000
692.42	25.150
692.74	23.859
693.06	24.043
693.39	25.257
693.71	24.454
694.03	27.158
694.35	25.108
694.67	24.485
694.99	27.073
695.31	26.225
695.63	24.402
695.95	25.428
696.27	23.350
696.59	24.611
696.91	27.979
697.23	21.127
697.56	26.226
697.88	20.654
698.20	22.500
698.52	21.505
698.84	25.390
699.16	24.424
699.48	26.841
699.80	25.845
700.12	27.792
700.44	28.912
700.76	26.243
701.08	26.724
701.40	26.816
701.72	30.612
702.04	32.386
702.36	25.496
702.68	25.496
703.00	24.377
703.32	23.936
703.64	29.759
703.96	26.462
704.28	29.070
704.60	28.739
704.91	27.300
705.23	27.566
705.55	28.571
705.87	29.568
706.19	28.269
706.51	30.218
706.83	30.303
707.15	29.692
707.47	25.505
707.79	25.799
708.11	24.658
708.43	23.571
708.74	23.980
709.06	26.494
709.38	27.822
709.70	29.942
710.02	29.377
710.34	26.667
710.66	31.642
710.98	27.273
711.29	29.070
711.61	29.499
711.93	26.923
712.25	33.119
712.57	28.309
712.89	30.796
713.20	28.267
713.52	28.947
713.84	28.797
714.16	26.220
714.48	28.161
714.80	33.435
715.11	28.530
715.43	26.409
715.75	27.826
716.07	24.601
716.39	27.900
716.70	30.565
717.02	31.295
717.34	28.622
717.66	34.701
717.97	29.084
718.29	32.593
718.61	25.912
718.93	34.191
719.24	28.374
719.56	25.085
719.88	27.797
720.20	30.068
720.51	29.268
720.83	33.829
721.15	25.746
721.46	32.624
721.78	31.183
722.10	33.585
722.42	33.083
722.73	30.337
723.05	30.328
723.37	27.935
723.68	33.205
724.00	31.301
724.32	32.258
724.63	30.894
724.95	24.268
725.27	34.818
725.58	33.203
725.90	35.766
726.22	30.943
726.53	29.514
726.85	27.986
727.16	29.181
727.48	29.433
727.80	32.197
728.11	29.348
728.43	32.308
728.74	32.258
729.06	32.847
729.38	31.618
729.69	32.028
730.01	23.891
730.32	30.208
730.64	27.759
730.96	28.053
731.27	30.464
731.59	30.887
731.90	24.198
732.22	27.019
732.53	27.864
732.85	26.923
733.16	26.688
733.48	28.239
733.80	33.442
734.11	30.255
734.43	27.219
734.74	24.286
735.06	24.642
735.37	27.457
735.69	28.344
736.00	31.699
736.32	29.907
736.63	24.601
736.95	26.518
737.26	25.510
737.58	28.387
737.89	31.438
738.21	26.621
738.52	27.143
738.83	31.321
739.15	30.000
739.46	30.292
739.78	31.944
740.09	28.615
740.41	31.613
740.72	26.829
741.04	31.481
741.35	32.917
741.66	36.444
741.98	35.849
742.29	33.971
742.61	38.793
742.92	35.747
743.23	32.906
743.55	34.000
743.86	35.965
744.18	38.053
744.49	34.928
744.80	40.845
745.12	37.273
745.43	32.599
745.74	37.838
746.06	37.615
746.37	32.735
746.68	32.579
747.00	38.889
747.31	36.667
747.62	33.186
747.94	33.040
748.25	33.191
748.56	33.480
748.88	36.139
749.19	37.500
749.50	31.163
749.82	33.740
750.13	29.388
750.44	31.387
750.75	31.228
751.07	30.547
751.38	30.662
751.69	32.130
752.01	28.571
752.32	29.603
752.63	29.787
752.94	34.016
753.26	34.400
753.57	29.675
753.88	35.547
754.19	28.929
754.51	32.986
754.82	27.076
755.13	33.585
755.44	32.331
755.75	22.993
756.07	28.014
756.38	28.467
756.69	28.523
757.00	27.545
757.31	26.409
757.63	23.977
757.94	21.984
758.25	24.510
758.56	22.963
758.87	23.925
759.18	26.970
759.50	28.527
759.81	28.037
760.12	19.375
760.43	24.355
760.74	22.283
761.05	27.401
761.36	23.262
761.67	27.557
761.99	27.019
762.30	25.347
762.61	31.679
762.92	31.641
763.23	31.933
763.54	35.200
763.85	28.906
764.16	35.000
764.47	26.236
764.78	30.742
765.10	26.266
765.41	28.319
765.72	23.653
766.03	26.959
766.34	26.000
766.65	30.638
766.96	36.325
767.27	37.056
767.58	36.979
767.89	42.632
768.20	43.103
768.51	38.071
768.82	41.743
769.13	32.520
769.44	29.960
769.75	37.339
770.06	23.394
770.37	35.747
770.68	35.185
770.99	34.222
771.30	27.869
771.61	34.978
771.92	27.869
772.23	36.555
772.54	35.897
772.85	40.314
773.16	39.362
773.47	41.304
773.78	40.102
774.09	41.071
774.39	38.596
774.70	46.914
775.01	54.348
775.32	49.020
775.63	45.395
775.94	40.288
776.25	48.819
776.56	51.493
776.87	50.820
777.18	52.344
777.48	50.382
777.79	43.182
778.10	48.889
778.41	45.536
778.72	43.066
779.03	48.322
779.34	47.651
779.65	39.189
779.95	38.650
780.26	46.405
780.57	46.207
780.88	45.312
781.19	44.361
781.50	45.270
781.80	35.849
782.11	35.028
782.42	36.076
782.73	44.785
783.04	41.216
783.34	44.366
783.65	50.000
783.96	47.761
784.27	46.154
784.57	40.288
784.88	45.370
785.19	53.968
785.50	50.000
785.81	61.940
786.11	59.016
786.42	55.814
786.73	58.407
787.04	67.925
787.34	56.250
787.65	59.000
787.96	59.459
788.26	52.066
788.57	60.169
788.88	56.198
789.19	41.667
789.49	59.091
789.80	53.435
790.11	64.762
790.41	78.218
790.72	68.675
791.03	56.522
791.33	69.767
791.64	69.072
791.95	62.376
792.25	70.000
792.56	75.325
792.87	87.179
793.17	83.544
793.48	68.966
793.79	74.713
794.09	60.227
794.40	52.101
794.70	55.147
795.01	43.704
795.32	47.482
795.62	55.118
795.93	52.586
796.23	59.292
796.54	67.059
796.85	70.270
797.15	87.324
797.46	80.303
797.76	77.108
798.07	77.215
798.37	95.385
798.68	81.818
798.99	73.239
799.29	72.727
799.60	64.773
799.90	82.192
800.21	92.537
800.51	87.931
800.82	110.526
801.12	103.279
801.43	93.939
801.73	85.135
802.04	92.063
802.34	87.654
802.65	98.437
802.95	110.169
803.26	96.875
803.56	84.286
803.87	78.462
804.17	82.353
804.48	124.074
804.78	82.759
805.09	76.471
805.39	103.846
805.70	89.286
806.00	90.164
806.30	98.485
806.61	84.146
806.91	60.759
807.22	67.105
807.52	77.612
807.83	78.873
808.13	78.125
808.43	96.667
808.74	76.316
809.04	94.203
809.35	100.000
809.65	78.947
809.95	100.000
810.26	83.051
810.56	95.238
810.86	118.182
811.17	133.333
811.47	101.667
811.77	85.185
812.08	105.455
812.38	104.000
812.69	141.667
812.99	120.455
813.29	130.612
813.59	95.238
813.90	136.735
814.20	116.364
814.50	84.615
814.81	105.882
815.11	110.204
815.41	93.443
815.72	159.524
816.02	114.545
816.32	116.667
816.62	117.500
816.93	131.707
817.23	133.333
817.53	125.000
817.84	139.394
818.14	119.565
818.44	131.111
818.74	158.824
819.04	140.000
819.35	168.571
819.65	150.000
819.95	192.857
820.25	200.000
820.56	153.846
820.86	143.182
821.16	139.535
821.46	130.769
821.76	116.000
822.07	180.000
822.37	150.000
822.67	172.727
822.97	96.078
823.27	182.143
823.57	132.432
823.88	170.000
824.18	173.333
824.48	142.857
824.78	188.000
825.08	183.333
825.38	156.757
825.69	153.659
825.99	220.833
826.29	162.069
826.59	136.842
826.89	134.211
827.19	182.353
827.49	164.516
827.79	127.273
828.09	125.000
828.39	114.894
828.70	118.367
829.00	181.481
829.30	125.806
829.60	172.500
829.90	273.333
830.20	182.143
830.50	169.565
830.80	186.957
831.10	173.333
831.40	183.333
831.70	186.957
832.00	223.077
832.30	237.037
832.60	331.250
832.90	210.000
833.20	428.571
833.50	200.000
833.80	203.448
834.10	184.375
834.40	192.308
834.70	272.222
835.00	323.810
835.30	128.571
835.60	376.923
835.90	213.793
836.20	328.571
836.50	213.793
836.80	200.000
837.10	200.000
837.40	271.429
837.70	341.176
838.00	229.630
838.30	252.381
838.60	247.619
838.90	230.769
839.19	265.000
839.49	371.429
839.79	310.000
840.09	280.000
840.39	319.048
840.69	239.130
840.99	261.111
841.29	410.000
841.59	308.333
841.88	337.500
842.18	162.069
842.48	290.476
842.78	180.000
843.08	265.217
843.38	162.500
843.68	816.667
843.97	219.231
844.27	213.793
844.57	252.381
844.87	381.250
845.17	203.704
845.47	1500.000
845.76	633.333
846.06	347.059
846.36	437.500
846.66	335.714
846.96	343.750
847.25	327.273
847.55	418.182
847.85	282.609
848.15	540.000
848.44	371.429
848.74	244.444
849.04	294.118
849.34	530.000
849.63	200.000
849.93	527.273
850.23	1020.000
850.53	478.571
850.82	2050.000
851.12	-5000.000
851.42	3900.000
851.71	270.000
852.01	-933.333
852.31	258.333
852.61	1666.667
852.90	276.190
853.20	240.000
853.50	341.176
853.79	261.905
854.09	220.833
854.39	262.500
854.68	159.459
854.98	187.097
855.28	186.667
855.57	203.448
855.87	222.222
856.17	284.211
856.46	260.000
856.76	288.235
857.05	217.241
857.35	237.500
857.65	326.667
857.94	252.174
858.24	196.154
858.53	310.000
858.83	254.545
859.13	326.667
859.42	0.000
859.72	511.111
860.01	454.545
860.31	277.273
860.60	331.579
860.90	217.391
861.20	611.111
861.49	483.333
861.79	-4900.000
862.08	662.500
862.38	285.714
862.67	338.462
862.97	329.412
863.26	600.000
863.56	272.222
863.85	391.667
864.15	637.500
864.44	340.000
864.74	733.333
865.03	587.500
865.33	321.053
865.62	463.636
865.92	407.692
866.21	283.333
866.51	0.000
866.80	463.636
867.10	1280.000
867.39	423.077
867.69	436.364
867.98	278.947
868.27	454.545
868.57	315.789
868.86	-4800.000
869.16	375.000
869.45	2100.000
869.75	-4700.000
870.04	416.667
870.33	714.286
870.63	1000.000
870.92	2950.000
871.22	871.429
871.51	341.176
871.80	285.714
872.10	407.143
>>>>>End Processed Spectral Data<<<<<
