SpectraSuite Data File
++++++++++++++++++++++++++++++++++++
Date: Wed May 13 19:46:24 PDT 2015
User: schluterlab
Dark Spectrum Present: Yes
Reference Spectrum Present: Yes
Number of Sampled Component Spectra: 1
Spectrometers: USB2E3373
Integration Time (usec): 3000 (USB2E3373)
Spectra Averaged: 3 (USB2E3373)
Boxcar Smoothing: 0 (USB2E3373)
Correct for Electrical Dark: No (USB2E3373)
Strobe/Lamp Enabled: No (USB2E3373)
Correct for Detector Non-linearity: No (USB2E3373)
Correct for Stray Light: No (USB2E3373)
Number of Pixels in Processed Spectrum: 2048
>>>>>Begin Processed Spectral Data<<<<<
178.53	0.000
178.91	-1250.000
179.29	-1200.000
179.67	-222.222
180.04	-1425.000
180.42	2700.000
180.80	1140.000
181.18	-1100.000
181.56	585.714
181.94	0.000
182.31	-585.714
182.69	1766.667
183.07	-487.500
183.45	-522.222
183.83	500.000
184.20	-460.000
184.58	2050.000
184.96	6000.000
185.34	-960.000
185.72	-562.500
186.09	-2400.000
186.47	2700.000
186.85	2800.000
187.23	6300.000
187.61	-1433.333
187.98	1400.000
188.36	581.818
188.74	554.545
189.12	-820.000
189.49	550.000
189.87	-4500.000
190.25	-1325.000
190.63	435.714
191.00	392.308
191.38	750.000
191.76	-1150.000
192.14	1275.000
192.51	687.500
192.89	983.333
193.27	387.500
193.65	-1200.000
194.02	510.000
194.40	980.000
194.78	510.000
195.15	541.667
195.53	660.000
195.91	-2250.000
196.29	337.500
196.66	336.842
197.04	-380.000
197.42	0.000
197.79	610.000
198.17	-4300.000
198.55	742.857
198.92	800.000
199.30	740.000
199.68	0.000
200.05	322.222
200.43	642.857
200.81	3500.000
201.18	1500.000
201.56	-1933.333
201.94	611.111
202.31	711.111
202.69	525.000
203.07	560.000
203.44	0.000
203.82	1150.000
204.19	800.000
204.57	500.000
204.95	600.000
205.32	1733.333
205.70	454.545
206.08	400.000
206.45	2550.000
206.83	368.750
207.20	783.333
207.58	700.000
207.96	322.222
208.33	662.500
208.71	-666.667
209.08	757.143
209.46	622.222
209.84	436.364
210.21	-1600.000
210.59	1275.000
210.96	-575.000
211.34	2300.000
211.71	620.000
212.09	850.000
212.46	0.000
212.84	1633.333
213.22	1450.000
213.59	-5200.000
213.97	816.667
214.34	842.857
214.72	481.818
215.09	1080.000
215.47	-2100.000
215.84	-2750.000
216.22	1633.333
216.59	464.286
216.97	1375.000
217.34	427.273
217.72	-700.000
218.09	0.000
218.47	-4500.000
218.84	688.889
219.22	728.571
219.59	1733.333
219.97	-685.714
220.34	880.000
220.72	-1700.000
221.09	478.571
221.47	1550.000
221.84	-866.667
222.22	0.000
222.59	1100.000
222.97	-2350.000
223.34	1060.000
223.72	423.077
224.09	1100.000
224.46	2250.000
224.84	-4900.000
225.21	-1000.000
225.59	-4800.000
225.96	550.000
226.34	330.000
226.71	2400.000
227.08	587.500
227.46	580.000
227.83	-1000.000
228.21	-2300.000
228.58	600.000
228.95	-2350.000
229.33	-2950.000
229.70	1566.667
230.08	814.286
230.45	-960.000
230.82	425.000
231.20	933.333
231.57	785.714
231.95	416.667
232.32	213.636
232.69	390.909
233.07	728.571
233.44	369.231
233.81	-1833.333
234.19	310.526
234.56	466.667
234.93	375.000
235.31	427.273
235.68	323.077
236.05	342.857
236.43	190.909
236.80	278.947
237.17	3800.000
237.55	219.048
237.92	203.571
238.29	266.667
238.67	148.387
239.04	162.069
239.41	152.778
239.79	113.043
240.16	128.571
240.53	111.364
240.91	94.118
241.28	102.000
241.65	106.000
242.02	81.159
242.40	80.645
242.77	81.667
243.14	67.742
243.51	67.416
243.89	64.706
244.26	55.556
244.63	55.914
245.00	60.638
245.38	53.465
245.75	46.729
246.12	35.780
246.49	56.204
246.87	59.200
247.24	54.615
247.61	52.857
247.98	40.523
248.36	36.486
248.73	38.217
249.10	40.764
249.47	35.593
249.84	40.107
250.22	33.155
250.59	31.953
250.96	38.384
251.33	35.071
251.70	32.673
252.08	31.429
252.45	30.942
252.82	32.174
253.19	31.489
253.56	34.118
253.94	29.876
254.31	29.297
254.68	30.769
255.05	27.675
255.42	27.642
255.79	27.206
256.16	34.657
256.54	24.735
256.91	27.402
257.28	25.540
257.65	26.073
258.02	25.155
258.39	22.397
258.76	27.759
259.14	25.893
259.51	24.316
259.88	24.534
260.25	27.190
260.62	22.832
260.99	23.913
261.36	23.123
261.73	23.209
262.10	20.058
262.47	23.380
262.85	25.348
263.22	21.083
263.59	24.786
263.96	23.352
264.33	22.193
264.70	19.737
265.07	23.274
265.44	19.444
265.81	20.925
266.18	22.111
266.55	22.683
266.92	17.936
267.29	20.370
267.66	20.872
268.03	20.000
268.40	18.925
268.77	17.900
269.14	20.946
269.51	20.542
269.88	21.212
270.25	17.833
270.62	19.551
270.99	20.430
271.36	19.528
271.73	19.393
272.10	18.043
272.47	19.570
272.84	20.130
273.21	21.384
273.58	16.157
273.95	16.562
274.32	19.835
274.69	19.700
275.06	18.898
275.43	20.000
275.80	20.441
276.17	18.737
276.54	18.503
276.91	17.391
277.28	17.578
277.65	19.342
278.02	18.219
278.39	18.750
278.76	17.455
279.13	18.113
279.50	16.946
279.87	18.526
280.23	17.166
280.60	17.021
280.97	17.375
281.34	18.053
281.71	19.091
282.08	18.810
282.45	19.091
282.82	16.696
283.19	15.330
283.56	18.246
283.92	18.105
284.29	17.637
284.66	17.786
285.03	16.817
285.40	16.021
285.77	15.152
286.14	16.235
286.51	17.000
286.87	16.752
287.24	16.450
287.61	17.014
287.98	16.721
288.35	14.263
288.72	15.109
289.08	14.554
289.45	15.157
289.82	13.984
290.19	12.873
290.56	14.395
290.93	13.142
291.29	13.650
291.66	15.929
292.03	18.750
292.40	16.887
292.77	14.941
293.13	14.328
293.50	16.181
293.87	12.741
294.24	12.741
294.60	12.664
294.97	13.227
295.34	14.951
295.71	13.636
296.08	12.963
296.44	12.517
296.81	13.078
297.18	14.092
297.55	11.346
297.91	12.929
298.28	12.851
298.65	14.491
299.02	12.253
299.38	12.351
299.75	10.512
300.12	12.388
300.48	14.000
300.85	13.194
301.22	13.376
301.59	12.500
301.95	10.579
302.32	11.810
302.69	12.186
303.05	11.394
303.42	10.494
303.79	12.911
304.15	12.354
304.52	10.660
304.89	11.382
305.25	10.789
305.62	11.325
305.99	10.980
306.35	10.738
306.72	10.874
307.09	11.321
307.45	12.838
307.82	10.937
308.19	11.810
308.55	11.866
308.92	10.526
309.29	11.193
309.65	11.135
310.02	10.677
310.38	12.581
310.75	10.454
311.12	11.566
311.48	9.718
311.85	11.006
312.22	11.550
312.58	10.811
312.95	10.771
313.31	9.806
313.68	11.850
314.05	11.834
314.41	11.759
314.78	10.675
315.14	11.122
315.51	11.020
315.87	10.693
316.24	10.725
316.61	10.819
316.97	9.980
317.34	9.295
317.70	10.134
318.07	11.165
318.43	10.176
318.80	11.153
319.16	11.394
319.53	11.069
319.89	11.905
320.26	11.400
320.62	11.607
320.99	9.798
321.35	10.202
321.72	11.088
322.08	12.537
322.45	13.632
322.81	12.209
323.18	12.235
323.54	11.967
323.91	11.887
324.27	10.994
324.64	9.786
325.00	10.550
325.37	11.283
325.73	11.759
326.10	11.650
326.46	10.305
326.83	11.734
327.19	11.272
327.56	11.498
327.92	10.411
328.29	12.156
328.65	10.681
329.01	12.455
329.38	11.656
329.74	11.265
330.11	11.122
330.47	11.570
330.84	13.327
331.20	10.565
331.56	12.018
331.93	11.296
332.29	11.180
332.66	12.566
333.02	11.335
333.38	11.743
333.75	12.478
334.11	11.210
334.48	11.003
334.84	11.029
335.20	11.091
335.57	11.967
335.93	10.089
336.29	11.538
336.66	11.542
337.02	10.588
337.38	9.907
337.75	10.250
338.11	10.743
338.47	11.878
338.84	11.274
339.20	10.917
339.56	11.314
339.93	10.273
340.29	10.145
340.65	10.517
341.02	11.431
341.38	12.100
341.74	10.263
342.11	11.179
342.47	11.101
342.83	11.045
343.20	10.996
343.56	11.457
343.92	11.404
344.28	11.310
344.65	11.436
345.01	11.195
345.37	9.863
345.73	11.083
346.10	10.401
346.46	10.169
346.82	11.285
347.19	9.942
347.55	9.852
347.91	9.951
348.27	11.257
348.63	10.619
349.00	10.680
349.36	10.591
349.72	9.944
350.08	10.778
350.45	10.578
350.81	11.210
351.17	10.697
351.53	11.220
351.89	9.736
352.26	10.182
352.62	10.505
352.98	10.130
353.34	10.435
353.70	10.311
354.07	9.839
354.43	10.079
354.79	9.252
355.15	9.417
355.51	10.711
355.87	10.041
356.24	10.749
356.60	9.623
356.96	10.056
357.32	9.485
357.68	10.236
358.04	10.451
358.40	10.847
358.77	10.798
359.13	9.392
359.49	9.176
359.85	8.095
360.21	9.410
360.57	9.416
360.93	9.846
361.29	10.128
361.66	8.282
362.02	10.149
362.38	9.886
362.74	9.598
363.10	9.474
363.46	8.951
363.82	10.280
364.18	9.618
364.54	10.327
364.90	10.836
365.26	10.956
365.62	10.007
365.98	8.912
366.35	9.742
366.71	9.544
367.07	8.449
367.43	9.507
367.79	10.849
368.15	10.129
368.51	9.448
368.87	10.064
369.23	9.217
369.59	9.486
369.95	10.000
370.31	9.687
370.67	9.783
371.03	10.337
371.39	9.985
371.75	9.559
372.11	9.673
372.47	10.484
372.83	9.438
373.19	9.104
373.55	9.608
373.91	10.015
374.27	8.660
374.63	8.436
374.99	9.181
375.35	8.514
375.71	9.938
376.07	9.534
376.42	9.010
376.78	9.344
377.14	9.294
377.50	9.735
377.86	9.043
378.22	9.355
378.58	8.647
378.94	8.360
379.30	8.524
379.66	9.518
380.02	8.538
380.38	8.500
380.74	8.523
381.09	9.780
381.45	9.404
381.81	9.214
382.17	8.153
382.53	8.931
382.89	9.691
383.25	9.006
383.61	9.665
383.97	9.443
384.32	8.734
384.68	9.356
385.04	9.158
385.40	8.607
385.76	9.214
386.12	8.225
386.48	8.936
386.83	8.852
387.19	9.029
387.55	9.153
387.91	8.404
388.27	8.461
388.62	8.912
388.98	8.784
389.34	9.387
389.70	9.810
390.06	9.316
390.42	9.339
390.77	8.842
391.13	9.190
391.49	8.883
391.85	7.893
392.20	7.634
392.56	8.333
392.92	8.064
393.28	7.574
393.64	8.393
393.99	8.735
394.35	8.189
394.71	8.720
395.07	8.660
395.42	8.591
395.78	8.906
396.14	8.318
396.50	9.211
396.85	9.091
397.21	8.323
397.57	9.237
397.92	8.173
398.28	7.343
398.64	10.335
399.00	8.674
399.35	7.953
399.71	8.102
400.07	8.457
400.42	8.834
400.78	8.926
401.14	8.171
401.49	8.478
401.85	8.046
402.21	7.964
402.57	8.205
402.92	8.638
403.28	9.057
403.63	8.354
403.99	8.344
404.35	8.000
404.70	8.333
405.06	8.212
405.42	8.921
405.77	8.229
406.13	7.788
406.49	8.397
406.84	8.860
407.20	8.511
407.55	7.722
407.91	8.800
408.27	8.296
408.62	9.332
408.98	8.211
409.34	8.364
409.69	8.452
410.05	8.302
410.40	8.563
410.76	8.124
411.11	8.444
411.47	8.690
411.83	8.980
412.18	8.040
412.54	8.842
412.89	8.253
413.25	8.501
413.60	7.906
413.96	8.318
414.31	8.627
414.67	9.062
415.03	7.947
415.38	9.149
415.74	8.875
416.09	9.014
416.45	8.902
416.80	8.724
417.16	9.249
417.51	9.754
417.87	8.863
418.22	8.644
418.58	8.715
418.93	8.477
419.29	9.102
419.64	8.816
420.00	8.720
420.35	9.159
420.71	9.205
421.06	8.652
421.42	8.480
421.77	8.128
422.12	7.692
422.48	7.285
422.83	8.387
423.19	8.674
423.54	8.241
423.90	8.870
424.25	8.431
424.61	8.631
424.96	8.630
425.31	8.583
425.67	7.921
426.02	8.457
426.38	8.730
426.73	8.075
427.09	8.754
427.44	7.878
427.79	8.626
428.15	8.571
428.50	9.011
428.85	8.641
429.21	8.338
429.56	8.035
429.92	7.750
430.27	7.895
430.62	7.885
430.98	8.614
431.33	8.505
431.68	8.639
432.04	8.040
432.39	8.395
432.74	8.977
433.10	8.149
433.45	8.688
433.80	7.705
434.16	8.547
434.51	8.053
434.86	8.324
435.22	8.505
435.57	8.875
435.92	8.719
436.28	8.778
436.63	9.216
436.98	8.243
437.34	9.362
437.69	8.576
438.04	9.219
438.39	8.776
438.75	8.890
439.10	8.659
439.45	9.150
439.81	8.701
440.16	8.413
440.51	8.377
440.86	8.570
441.22	8.676
441.57	8.705
441.92	8.393
442.27	9.365
442.63	8.425
442.98	8.901
443.33	9.293
443.68	8.312
444.03	8.785
444.39	7.984
444.74	8.550
445.09	8.679
445.44	8.365
445.79	8.461
446.15	8.788
446.50	8.885
446.85	8.736
447.20	7.955
447.55	9.604
447.91	9.101
448.26	8.681
448.61	9.045
448.96	9.358
449.31	8.943
449.66	8.779
450.02	8.635
450.37	9.014
450.72	8.460
451.07	8.775
451.42	8.815
451.77	9.513
452.12	8.487
452.47	9.204
452.83	8.974
453.18	9.108
453.53	9.215
453.88	8.210
454.23	9.205
454.58	9.509
454.93	9.663
455.28	8.915
455.63	8.434
455.98	9.821
456.34	8.920
456.69	9.267
457.04	8.731
457.39	8.182
457.74	8.938
458.09	10.063
458.44	9.179
458.79	9.056
459.14	8.521
459.49	9.457
459.84	8.199
460.19	8.662
460.54	9.086
460.89	8.338
461.24	9.593
461.59	10.227
461.94	8.816
462.29	9.258
462.64	9.381
462.99	9.434
463.34	10.067
463.69	9.631
464.04	9.797
464.39	9.217
464.74	9.804
465.09	8.504
465.44	9.086
465.79	7.998
466.14	9.086
466.49	9.344
466.84	9.807
467.19	9.958
467.54	9.688
467.89	9.244
468.24	9.889
468.59	9.829
468.94	8.858
469.29	9.769
469.64	10.509
469.99	9.066
470.34	8.851
470.68	9.483
471.03	9.388
471.38	9.590
471.73	9.993
472.08	10.395
472.43	9.799
472.78	9.019
473.13	10.077
473.48	9.925
473.83	9.207
474.17	8.836
474.52	9.367
474.87	9.749
475.22	8.996
475.57	8.490
475.92	8.922
476.27	8.625
476.61	9.101
476.96	8.796
477.31	8.844
477.66	9.190
478.01	9.148
478.36	9.149
478.70	8.152
479.05	9.425
479.40	8.649
479.75	9.049
480.10	8.002
480.45	8.948
480.79	8.935
481.14	9.100
481.49	8.923
481.84	8.596
482.19	8.405
482.53	8.853
482.88	8.981
483.23	8.318
483.58	9.327
483.92	8.716
484.27	8.279
484.62	7.931
484.97	8.120
485.31	8.356
485.66	7.080
486.01	6.245
486.36	6.429
486.70	6.351
487.05	6.811
487.40	7.176
487.75	7.558
488.09	8.068
488.44	7.672
488.79	8.137
489.13	7.983
489.48	8.075
489.83	8.243
490.17	8.417
490.52	8.592
490.87	8.367
491.22	8.504
491.56	8.155
491.91	8.609
492.26	8.498
492.60	8.940
492.95	7.624
493.30	9.393
493.64	8.446
493.99	8.449
494.34	8.973
494.68	8.471
495.03	8.647
495.37	9.074
495.72	9.113
496.07	8.863
496.41	8.496
496.76	9.059
497.11	8.735
497.45	8.710
497.80	8.877
498.14	8.551
498.49	8.293
498.84	8.533
499.18	8.619
499.53	8.500
499.87	8.807
500.22	9.185
500.56	9.078
500.91	8.606
501.26	8.914
501.60	8.970
501.95	8.845
502.29	8.763
502.64	8.799
502.98	8.602
503.33	9.004
503.67	8.585
504.02	8.980
504.36	9.125
504.71	8.549
505.06	9.060
505.40	8.799
505.75	8.631
506.09	9.378
506.44	8.140
506.78	9.450
507.13	8.682
507.47	9.343
507.82	9.220
508.16	9.372
508.51	8.777
508.85	8.689
509.19	8.878
509.54	9.388
509.88	9.377
510.23	9.203
510.57	9.701
510.92	9.322
511.26	9.866
511.61	9.699
511.95	8.716
512.30	9.120
512.64	9.618
512.98	9.325
513.33	9.636
513.67	9.925
514.02	8.658
514.36	9.776
514.70	9.242
515.05	9.091
515.39	10.320
515.74	10.135
516.08	10.173
516.42	9.933
516.77	10.312
517.11	9.378
517.46	9.368
517.80	9.756
518.14	9.670
518.49	9.685
518.83	10.170
519.17	9.353
519.52	9.904
519.86	9.983
520.20	10.636
520.55	10.413
520.89	10.888
521.23	10.495
521.58	10.204
521.92	9.982
522.26	9.640
522.61	9.720
522.95	10.006
523.29	9.921
523.64	10.915
523.98	9.550
524.32	10.676
524.66	10.764
525.01	9.314
525.35	9.913
525.69	9.791
526.04	10.218
526.38	10.738
526.72	10.368
527.06	10.232
527.41	9.839
527.75	10.547
528.09	9.955
528.43	10.198
528.78	10.387
529.12	10.364
529.46	10.349
529.80	10.334
530.15	10.343
530.49	10.523
530.83	10.316
531.17	10.705
531.51	11.933
531.86	10.774
532.20	10.887
532.54	11.019
532.88	10.847
533.22	10.244
533.57	9.691
533.91	10.957
534.25	10.875
534.59	10.128
534.93	10.291
535.27	9.897
535.62	10.440
535.96	10.107
536.30	10.172
536.64	10.818
536.98	10.551
537.32	10.797
537.66	10.200
538.01	10.731
538.35	11.183
538.69	10.530
539.03	9.812
539.37	9.840
539.71	9.397
540.05	10.261
540.39	10.365
540.73	10.543
541.07	10.967
541.42	10.437
541.76	11.355
542.10	10.996
542.44	10.596
542.78	11.265
543.12	11.068
543.46	11.410
543.80	10.800
544.14	9.884
544.48	10.667
544.82	10.135
545.16	11.191
545.50	10.604
545.84	10.349
546.18	11.044
546.52	11.149
546.86	10.034
547.20	10.047
547.54	11.156
547.88	10.714
548.22	10.710
548.56	11.384
548.90	10.243
549.24	9.764
549.58	11.119
549.92	10.920
550.26	11.506
550.60	11.134
550.94	11.549
551.28	11.046
551.62	11.287
551.96	10.807
552.30	10.648
552.64	11.224
552.98	10.915
553.32	11.126
553.66	12.543
554.00	11.599
554.34	11.387
554.68	10.801
555.02	11.072
555.36	10.647
555.69	10.352
556.03	11.306
556.37	11.119
556.71	10.368
557.05	11.625
557.39	11.197
557.73	11.150
558.07	11.603
558.41	10.999
558.75	11.315
559.08	11.409
559.42	10.884
559.76	11.103
560.10	11.777
560.44	11.251
560.78	10.712
561.12	10.554
561.45	11.604
561.79	10.415
562.13	10.932
562.47	11.202
562.81	11.227
563.15	10.702
563.48	11.207
563.82	10.046
564.16	10.072
564.50	10.612
564.84	10.619
565.17	10.425
565.51	11.565
565.85	10.343
566.19	10.019
566.52	9.943
566.86	9.584
567.20	10.554
567.54	10.103
567.88	9.614
568.21	10.635
568.55	9.505
568.89	9.484
569.23	9.002
569.56	9.231
569.90	8.906
570.24	8.504
570.57	8.535
570.91	7.822
571.25	7.813
571.59	8.454
571.92	8.353
572.26	8.174
572.60	8.228
572.93	8.096
573.27	8.696
573.61	8.068
573.95	8.062
574.28	7.915
574.62	7.823
574.96	7.861
575.29	7.881
575.63	8.079
575.97	8.253
576.30	7.993
576.64	7.480
576.98	7.657
577.31	7.671
577.65	7.275
577.98	7.459
578.32	7.506
578.66	7.715
578.99	7.784
579.33	7.771
579.67	7.784
580.00	7.720
580.34	7.784
580.67	7.823
581.01	7.983
581.35	7.363
581.68	7.420
582.02	7.049
582.35	7.468
582.69	7.372
583.02	7.491
583.36	8.278
583.70	8.167
584.03	7.837
584.37	8.458
584.70	7.680
585.04	8.121
585.37	7.922
585.71	7.730
586.04	7.925
586.38	7.602
586.72	8.368
587.05	7.634
587.39	7.467
587.72	7.936
588.06	7.924
588.39	8.752
588.73	8.243
589.06	8.227
589.40	8.788
589.73	8.377
590.07	9.217
590.40	8.842
590.73	9.016
591.07	9.483
591.40	9.110
591.74	9.524
592.07	9.337
592.41	9.508
592.74	9.026
593.08	8.661
593.41	8.984
593.75	7.964
594.08	8.515
594.41	8.766
594.75	8.762
595.08	8.268
595.42	8.967
595.75	8.440
596.09	9.238
596.42	9.509
596.75	9.160
597.09	9.697
597.42	8.727
597.75	9.185
598.09	9.565
598.42	9.278
598.76	8.877
599.09	8.476
599.42	8.297
599.76	8.931
600.09	8.306
600.42	8.656
600.76	7.679
601.09	8.634
601.42	8.790
601.76	8.805
602.09	9.209
602.42	9.156
602.76	9.472
603.09	8.537
603.42	8.825
603.76	8.613
604.09	8.647
604.42	9.050
604.76	9.152
605.09	9.393
605.42	9.320
605.75	9.354
606.09	8.621
606.42	8.296
606.75	9.498
607.09	8.958
607.42	8.686
607.75	8.819
608.08	8.684
608.42	9.547
608.75	8.972
609.08	8.973
609.41	9.472
609.75	8.766
610.08	9.614
610.41	8.845
610.74	8.893
611.07	9.634
611.41	9.127
611.74	9.804
612.07	9.731
612.40	10.493
612.73	9.579
613.07	10.453
613.40	9.689
613.73	9.282
614.06	9.462
614.39	10.016
614.72	9.737
615.06	9.926
615.39	9.766
615.72	10.020
616.05	9.729
616.38	9.561
616.71	9.620
617.05	10.306
617.38	10.764
617.71	9.730
618.04	10.276
618.37	10.053
618.70	9.583
619.03	10.987
619.36	10.523
619.69	10.563
620.03	10.920
620.36	10.829
620.69	11.096
621.02	10.398
621.35	9.945
621.68	11.604
622.01	11.300
622.34	10.817
622.67	11.635
623.00	10.785
623.33	11.008
623.66	12.080
623.99	11.856
624.32	10.770
624.65	11.158
624.99	9.915
625.32	10.500
625.65	11.044
625.98	11.760
626.31	12.364
626.64	11.592
626.97	12.635
627.30	11.139
627.63	11.403
627.96	11.606
628.29	12.336
628.62	12.626
628.95	13.868
629.28	12.500
629.61	12.466
629.94	11.524
630.26	12.488
630.59	12.774
630.92	12.548
631.25	11.747
631.58	12.012
631.91	11.968
632.24	12.025
632.57	13.012
632.90	13.048
633.23	12.640
633.56	13.785
633.89	12.684
634.22	13.280
634.55	13.018
634.88	13.293
635.20	13.262
635.53	13.494
635.86	13.738
636.19	12.941
636.52	13.841
636.85	13.402
637.18	13.594
637.51	13.239
637.83	10.851
638.16	13.683
638.49	14.610
638.82	13.274
639.15	14.625
639.48	14.713
639.81	15.818
640.13	15.365
640.46	13.960
640.79	14.927
641.12	13.618
641.45	14.385
641.77	16.200
642.10	15.936
642.43	15.315
642.76	13.313
643.09	15.644
643.41	16.237
643.74	17.130
644.07	14.177
644.40	16.871
644.73	17.165
645.05	17.274
645.38	14.376
645.71	16.908
646.04	16.611
646.36	18.197
646.69	18.729
647.02	15.986
647.35	16.495
647.67	18.938
648.00	18.049
648.33	15.182
648.66	15.303
648.98	16.342
649.31	14.798
649.64	16.891
649.96	14.754
650.29	17.694
650.62	14.563
650.94	17.990
651.27	14.865
651.60	17.637
651.92	16.613
652.25	13.844
652.58	16.978
652.90	15.482
653.23	13.713
653.56	15.433
653.88	16.165
654.21	17.694
654.54	15.842
654.86	16.822
655.19	13.649
655.52	7.591
655.84	5.429
656.17	6.581
656.49	9.079
656.82	9.846
657.15	7.895
657.47	6.042
657.80	4.920
658.13	5.260
658.45	8.074
658.78	8.632
659.10	9.012
659.43	9.905
659.75	10.362
660.08	11.139
660.41	14.060
660.73	15.375
661.06	15.127
661.38	17.091
661.71	17.500
662.03	17.751
662.36	18.091
662.68	16.265
663.01	19.394
663.33	17.410
663.66	15.966
663.98	19.006
664.31	18.487
664.63	18.623
664.96	16.298
665.28	18.443
665.61	17.934
665.93	17.907
666.26	15.619
666.58	17.782
666.91	19.239
667.23	19.101
667.56	15.983
667.88	18.590
668.21	18.977
668.53	17.137
668.86	17.532
669.18	18.763
669.50	20.870
669.83	20.044
670.15	16.667
670.48	18.519
670.80	15.733
671.13	17.197
671.45	19.362
671.77	19.145
672.10	17.006
672.42	16.078
672.75	16.750
673.07	17.606
673.39	14.286
673.72	15.820
674.04	16.863
674.37	16.893
674.69	18.200
675.01	16.527
675.34	20.329
675.66	19.789
675.98	16.701
676.31	18.487
676.63	20.807
676.95	15.723
677.28	16.589
677.60	19.560
677.92	18.565
678.25	19.713
678.57	17.729
678.89	19.238
679.22	17.485
679.54	16.794
679.86	16.881
680.18	17.889
680.51	16.135
680.83	18.327
681.15	16.604
681.48	20.038
681.80	15.861
682.12	16.284
682.44	17.408
682.77	19.145
683.09	19.957
683.41	20.177
683.73	17.881
684.06	19.628
684.38	18.004
684.70	17.248
685.02	17.448
685.34	15.934
685.67	14.336
685.99	15.979
686.31	15.700
686.63	13.958
686.96	14.821
687.28	16.787
687.60	16.667
687.92	18.099
688.24	17.110
688.56	20.683
688.89	18.672
689.21	19.651
689.53	20.459
689.85	19.512
690.17	16.149
690.49	17.622
690.82	18.692
691.14	16.964
691.46	19.198
691.78	18.675
692.10	19.008
692.42	18.962
692.74	18.257
693.06	18.298
693.39	20.329
693.71	19.651
694.03	19.368
694.35	19.264
694.67	18.307
694.99	20.244
695.31	20.098
695.63	18.660
695.95	18.582
696.27	18.020
696.59	18.394
696.91	17.617
697.23	18.545
697.56	18.337
697.88	14.315
698.20	17.917
698.52	18.925
698.84	20.935
699.16	16.590
699.48	17.815
699.80	20.531
700.12	23.636
700.44	21.220
700.76	21.547
701.08	18.966
701.40	22.346
701.72	23.032
702.04	26.420
702.36	18.697
702.68	20.397
703.00	21.607
703.32	17.819
703.64	19.035
703.96	22.284
704.28	20.930
704.60	23.754
704.91	21.068
705.23	23.460
705.55	26.246
705.87	29.236
706.19	24.735
706.51	25.545
706.83	24.242
707.15	21.289
707.47	23.232
707.79	21.130
708.11	20.548
708.43	19.762
708.74	15.816
709.06	21.818
709.38	22.835
709.70	21.802
710.02	21.958
710.34	20.606
710.66	23.582
710.98	22.443
711.29	21.221
711.61	24.189
711.93	22.115
712.25	24.759
712.57	21.324
712.89	24.221
713.20	24.924
713.52	24.013
713.84	21.519
714.16	23.171
714.48	20.690
714.80	24.620
715.11	22.190
715.43	22.255
715.75	22.899
716.07	20.767
716.39	24.451
716.70	26.246
717.02	25.180
717.34	27.915
717.66	28.731
717.97	30.279
718.29	26.667
718.61	28.102
718.93	24.632
719.24	25.260
719.56	24.407
719.88	24.407
720.20	24.662
720.51	25.436
720.83	24.164
721.15	20.522
721.46	21.986
721.78	25.806
722.10	22.642
722.42	27.068
722.73	28.090
723.05	27.459
723.37	29.150
723.68	26.641
724.00	27.642
724.32	27.419
724.63	22.764
724.95	23.431
725.27	26.316
725.58	26.562
725.90	27.372
726.22	26.792
726.53	24.306
726.85	24.573
727.16	23.843
727.48	25.532
727.80	24.242
728.11	26.449
728.43	21.538
728.74	24.373
729.06	29.197
729.38	26.838
729.69	29.893
730.01	24.232
730.32	22.917
730.64	24.415
730.96	20.132
731.27	20.199
731.59	23.242
731.90	24.490
732.22	19.876
732.53	21.672
732.85	23.077
733.16	22.830
733.48	27.243
733.80	23.701
734.11	22.611
734.43	21.893
734.74	19.714
735.06	19.484
735.37	22.832
735.69	17.834
736.00	26.797
736.32	21.495
736.63	23.003
736.95	25.240
737.26	17.687
737.58	20.968
737.89	22.074
738.21	23.549
738.52	22.500
738.83	26.038
739.15	21.154
739.46	25.912
739.78	19.444
740.09	24.000
740.41	23.871
740.72	21.951
741.04	28.148
741.35	24.583
741.66	32.444
741.98	24.528
742.29	29.665
742.61	33.621
742.92	25.339
743.23	29.487
743.55	30.400
743.86	29.825
744.18	33.628
744.49	33.971
744.80	30.986
745.12	30.000
745.43	25.551
745.74	29.279
746.06	31.193
746.37	31.390
746.68	30.769
747.00	29.167
747.31	30.476
747.62	24.336
747.94	28.194
748.25	29.362
748.56	32.159
748.88	25.248
749.19	32.000
749.50	33.953
749.82	26.829
750.13	25.714
750.44	25.912
750.75	25.965
751.07	24.116
751.38	29.268
751.69	25.271
752.01	27.820
752.32	22.022
752.63	29.078
752.94	23.770
753.26	28.000
753.57	27.642
753.88	27.734
754.19	23.214
754.51	26.042
754.82	23.105
755.13	30.189
755.44	24.812
755.75	22.263
756.07	21.631
756.38	24.818
756.69	22.819
757.00	17.964
757.31	21.958
757.63	21.930
757.94	19.303
758.25	20.833
758.56	19.506
758.87	19.892
759.18	24.242
759.50	22.571
759.81	20.249
760.12	21.250
760.43	19.771
760.74	19.837
761.05	21.751
761.36	20.856
761.67	24.432
761.99	22.360
762.30	25.347
762.61	26.336
762.92	28.516
763.23	26.050
763.54	30.000
763.85	25.000
764.16	28.462
764.47	27.757
764.78	25.442
765.10	23.418
765.41	23.599
765.72	20.359
766.03	23.197
766.34	21.333
766.65	27.234
766.96	31.624
767.27	31.980
767.58	31.771
767.89	38.421
768.20	36.207
768.51	33.503
768.82	30.734
769.13	29.268
769.44	24.696
769.75	27.897
770.06	19.266
770.37	26.244
770.68	30.093
770.99	26.222
771.30	25.000
771.61	26.906
771.92	26.230
772.23	35.294
772.54	28.205
772.85	37.173
773.16	31.915
773.47	29.891
773.78	36.548
774.09	31.548
774.39	36.257
774.70	36.420
775.01	39.130
775.32	43.791
775.63	38.158
775.94	38.849
776.25	48.031
776.56	43.284
776.87	50.820
777.18	50.000
777.48	54.962
777.79	43.182
778.10	45.926
778.41	55.357
778.72	37.226
779.03	40.940
779.34	36.242
779.65	39.189
779.95	39.877
780.26	42.484
780.57	48.966
780.88	46.875
781.19	42.105
781.50	41.892
781.80	35.849
782.11	35.028
782.42	39.873
782.73	28.221
783.04	42.568
783.34	47.183
783.65	50.000
783.96	41.045
784.27	37.063
784.57	37.410
784.88	49.074
785.19	56.349
785.50	50.000
785.81	46.269
786.11	55.738
786.42	42.636
786.73	56.637
787.04	47.170
787.34	56.250
787.65	54.000
787.96	47.748
788.26	45.455
788.57	55.085
788.88	51.240
789.19	42.361
789.49	53.030
789.80	46.565
790.11	57.143
790.41	55.446
790.72	62.651
791.03	67.391
791.33	60.465
791.64	58.763
791.95	58.416
792.25	55.556
792.56	63.636
792.87	67.949
793.17	73.418
793.48	75.862
793.79	68.966
794.09	62.500
794.40	47.899
794.70	50.735
795.01	48.889
795.32	42.446
795.62	53.543
795.93	51.724
796.23	55.752
796.54	58.824
796.85	77.027
797.15	84.507
797.46	80.303
797.76	86.747
798.07	77.215
798.37	70.769
798.68	71.212
798.99	67.606
799.29	83.117
799.60	53.409
799.90	78.082
800.21	94.030
800.51	84.483
800.82	91.228
801.12	98.361
801.43	89.394
801.73	70.270
802.04	96.825
802.34	79.012
802.65	93.750
802.95	98.305
803.26	100.000
803.56	62.857
803.87	83.077
804.17	75.000
804.48	101.852
804.78	82.759
805.09	76.471
805.39	94.231
805.70	89.286
806.00	95.082
806.30	81.818
806.61	78.049
806.91	54.430
807.22	59.211
807.52	50.746
807.83	71.831
808.13	73.438
808.43	90.000
808.74	67.105
809.04	86.957
809.35	89.552
809.65	73.684
809.95	122.581
810.26	89.831
810.56	90.476
810.86	131.818
811.17	142.857
811.47	96.667
811.77	90.741
812.08	107.273
812.38	122.000
812.69	133.333
812.99	145.455
813.29	102.041
813.59	92.857
813.90	146.939
814.20	87.273
814.50	78.462
814.81	95.588
815.11	114.286
815.41	91.803
815.72	164.286
816.02	112.727
816.32	128.571
816.62	110.000
816.93	117.073
817.23	150.000
817.53	125.000
817.84	172.727
818.14	113.043
818.44	128.889
818.74	155.882
819.04	130.000
819.35	165.714
819.65	147.059
819.95	207.143
820.25	230.000
820.56	130.769
820.86	131.818
821.16	120.930
821.46	141.026
821.76	120.000
822.07	177.143
822.37	152.500
822.67	181.818
822.97	101.961
823.27	210.714
823.57	159.459
823.88	127.500
824.18	163.333
824.48	154.762
824.78	192.000
825.08	179.167
825.38	154.054
825.69	124.390
825.99	183.333
826.29	162.069
826.59	144.737
826.89	134.211
827.19	167.647
827.49	158.065
827.79	109.091
828.09	113.636
828.39	110.638
828.70	136.735
829.00	159.259
829.30	174.194
829.60	145.000
829.90	306.667
830.20	182.143
830.50	208.696
830.80	221.739
831.10	160.000
831.40	186.667
831.70	160.870
832.00	203.846
832.30	214.815
832.60	350.000
832.90	220.000
833.20	385.714
833.50	164.516
833.80	168.966
834.10	203.125
834.40	188.462
834.70	316.667
835.00	323.810
835.30	145.714
835.60	253.846
835.90	203.448
836.20	335.714
836.50	179.310
836.80	204.000
837.10	169.444
837.40	252.381
837.70	347.059
838.00	196.296
838.30	223.810
838.60	261.905
838.90	234.615
839.19	225.000
839.49	350.000
839.79	320.000
840.09	305.000
840.39	200.000
840.69	234.783
840.99	300.000
841.29	490.000
841.59	333.333
841.88	343.750
842.18	203.448
842.48	200.000
842.78	206.667
843.08	239.130
843.38	156.250
843.68	916.667
843.97	211.538
844.27	179.310
844.57	295.238
844.87	406.250
845.17	214.815
845.47	1766.667
845.76	511.111
846.06	264.706
846.36	425.000
846.66	378.571
846.96	325.000
847.25	363.636
847.55	363.636
847.85	256.522
848.15	500.000
848.44	385.714
848.74	311.111
849.04	264.706
849.34	560.000
849.63	257.895
849.93	390.909
850.23	980.000
850.53	335.714
850.82	1900.000
851.12	-3900.000
851.42	4200.000
851.71	270.000
852.01	-1200.000
852.31	258.333
852.61	1600.000
852.90	261.905
853.20	232.000
853.50	364.706
853.79	261.905
854.09	175.000
854.39	268.750
854.68	172.973
854.98	180.645
855.28	190.000
855.57	237.931
855.87	188.889
856.17	242.105
856.46	320.000
856.76	305.882
857.05	231.034
857.35	212.500
857.65	353.333
857.94	195.652
858.24	223.077
858.53	255.000
858.83	190.909
859.13	273.333
859.42	0.000
859.72	566.667
860.01	445.455
860.31	277.273
860.60	268.421
860.90	213.043
861.20	522.222
861.49	433.333
861.79	-4600.000
862.08	475.000
862.38	271.429
862.67	361.538
862.97	411.765
863.26	600.000
863.56	333.333
863.85	333.333
864.15	675.000
864.44	393.333
864.74	850.000
865.03	737.500
865.33	273.684
865.62	354.545
865.92	353.846
866.21	383.333
866.51	0.000
866.80	372.727
867.10	1080.000
867.39	407.692
867.69	318.182
867.98	284.211
868.27	454.545
868.57	300.000
868.86	-3500.000
869.16	325.000
869.45	2300.000
869.75	-3700.000
870.04	350.000
870.33	585.714
870.63	1075.000
870.92	3000.000
871.22	842.857
871.51	347.059
871.80	223.810
872.10	378.571
>>>>>End Processed Spectral Data<<<<<
