SpectraSuite Data File
++++++++++++++++++++++++++++++++++++
Date: Wed May 13 19:57:22 PDT 2015
User: schluterlab
Dark Spectrum Present: Yes
Reference Spectrum Present: Yes
Number of Sampled Component Spectra: 1
Spectrometers: USB2E3373
Integration Time (usec): 3000 (USB2E3373)
Spectra Averaged: 3 (USB2E3373)
Boxcar Smoothing: 0 (USB2E3373)
Correct for Electrical Dark: No (USB2E3373)
Strobe/Lamp Enabled: No (USB2E3373)
Correct for Detector Non-linearity: No (USB2E3373)
Correct for Stray Light: No (USB2E3373)
Number of Pixels in Processed Spectrum: 2048
>>>>>Begin Processed Spectral Data<<<<<
178.53	0.000
178.91	-1325.000
179.29	-1325.000
179.67	-250.000
180.04	-1275.000
180.42	2900.000
180.80	980.000
181.18	-1100.000
181.56	771.429
181.94	0.000
182.31	-757.143
182.69	1833.333
183.07	-512.500
183.45	-511.111
183.83	527.273
184.20	-400.000
184.58	2300.000
184.96	5500.000
185.34	-760.000
185.72	-550.000
186.09	-2350.000
186.47	2650.000
186.85	2850.000
187.23	4800.000
187.61	-1966.667
187.98	1275.000
188.36	518.182
188.74	481.818
189.12	-840.000
189.49	590.000
189.87	-5400.000
190.25	-1425.000
190.63	442.857
191.00	469.231
191.38	716.667
191.76	-925.000
192.14	1350.000
192.51	650.000
192.89	1033.333
193.27	625.000
193.65	-925.000
194.02	480.000
194.40	1140.000
194.78	520.000
195.15	466.667
195.53	660.000
195.91	-2150.000
196.29	325.000
196.66	342.105
197.04	-240.000
197.42	0.000
197.79	650.000
198.17	-3700.000
198.55	742.857
198.92	537.500
199.30	840.000
199.68	0.000
200.05	338.889
200.43	742.857
200.81	4400.000
201.18	1400.000
201.56	-2000.000
201.94	511.111
202.31	666.667
202.69	416.667
203.07	530.000
203.44	0.000
203.82	1250.000
204.19	757.143
204.57	364.286
204.95	687.500
205.32	1700.000
205.70	572.727
206.08	414.286
206.45	2650.000
206.83	356.250
207.20	950.000
207.58	740.000
207.96	300.000
208.33	812.500
208.71	-816.667
209.08	800.000
209.46	600.000
209.84	454.545
210.21	-1333.333
210.59	1500.000
210.96	-412.500
211.34	2850.000
211.71	590.000
212.09	733.333
212.46	0.000
212.84	1700.000
213.22	1300.000
213.59	-4300.000
213.97	983.333
214.34	885.714
214.72	627.273
215.09	1040.000
215.47	-2750.000
215.84	-2250.000
216.22	1900.000
216.59	414.286
216.97	1350.000
217.34	454.545
217.72	-633.333
218.09	0.000
218.47	-4400.000
218.84	744.444
219.22	800.000
219.59	1800.000
219.97	-671.429
220.34	980.000
220.72	-1633.333
221.09	400.000
221.47	1525.000
221.84	-766.667
222.22	0.000
222.59	1500.000
222.97	-2250.000
223.34	1160.000
223.72	415.385
224.09	1020.000
224.46	2200.000
224.84	-4800.000
225.21	-1040.000
225.59	-5300.000
225.96	570.000
226.34	295.000
226.71	3000.000
227.08	500.000
227.46	530.000
227.83	-1125.000
228.21	-2200.000
228.58	655.556
228.95	-2350.000
229.33	-2050.000
229.70	1900.000
230.08	842.857
230.45	-860.000
230.82	425.000
231.20	733.333
231.57	757.143
231.95	400.000
232.32	281.818
232.69	454.545
233.07	600.000
233.44	276.923
233.81	-1733.333
234.19	300.000
234.56	408.333
234.93	400.000
235.31	454.545
235.68	353.846
236.05	385.714
236.43	166.667
236.80	252.632
237.17	4000.000
237.55	238.095
237.92	217.857
238.29	280.952
238.67	177.419
239.04	186.207
239.41	116.667
239.79	102.174
240.16	119.048
240.53	109.091
240.91	94.118
241.28	104.000
241.65	86.000
242.02	97.101
242.40	91.935
242.77	86.667
243.14	62.366
243.51	74.157
243.89	62.353
244.26	63.333
244.63	69.892
245.00	52.128
245.38	65.347
245.75	56.075
246.12	58.716
246.49	57.664
246.87	61.600
247.24	54.615
247.61	43.571
247.98	39.216
248.36	37.162
248.73	43.312
249.10	43.312
249.47	40.113
249.84	44.920
250.22	40.642
250.59	34.320
250.96	40.404
251.33	37.915
251.70	40.594
252.08	31.429
252.45	31.390
252.82	33.478
253.19	36.170
253.56	31.765
253.94	39.419
254.31	33.984
254.68	34.231
255.05	29.889
255.42	28.455
255.79	28.309
256.16	34.296
256.54	25.795
256.91	29.537
257.28	26.259
257.65	26.073
258.02	27.019
258.39	23.975
258.76	25.418
259.14	25.000
259.51	26.444
259.88	25.155
260.25	28.701
260.62	23.699
260.99	25.155
261.36	23.724
261.73	24.355
262.10	24.709
262.47	27.324
262.85	27.298
263.22	20.798
263.59	25.926
263.96	23.901
264.33	24.543
264.70	23.684
265.07	24.808
265.44	22.222
265.81	19.951
266.18	22.613
266.55	25.122
266.92	23.833
267.29	22.222
267.66	20.872
268.03	21.591
268.40	23.598
268.77	21.241
269.14	21.171
269.51	20.993
269.88	22.611
270.25	22.122
270.62	22.022
270.99	23.871
271.36	23.176
271.73	19.860
272.10	23.478
272.47	24.301
272.84	24.026
273.21	22.222
273.58	20.087
273.95	20.755
274.32	19.628
274.69	21.842
275.06	20.079
275.43	20.638
275.80	21.443
276.17	21.385
276.54	20.998
276.91	21.146
277.28	19.922
277.65	22.050
278.02	18.219
278.39	22.461
278.76	19.818
279.13	19.811
279.50	18.808
279.87	20.319
280.23	19.960
280.60	20.503
280.97	19.963
281.34	20.531
281.71	20.364
282.08	20.154
282.45	19.273
282.82	19.183
283.19	18.538
283.56	20.175
283.92	19.797
284.29	18.871
284.66	17.786
285.03	17.722
285.40	18.486
285.77	19.360
286.14	16.926
286.51	17.833
286.87	19.316
287.24	19.870
287.61	17.014
287.98	18.019
288.35	18.067
288.72	17.445
289.08	17.371
289.45	17.957
289.82	15.935
290.19	14.914
290.56	17.917
290.93	15.257
291.29	15.798
291.66	15.929
292.03	18.023
292.40	16.887
292.77	16.420
293.13	15.821
293.50	15.452
293.87	16.296
294.24	15.704
294.60	16.012
294.97	13.372
295.34	15.797
295.71	15.199
296.08	15.100
296.44	13.893
296.81	15.720
297.18	15.312
297.55	14.248
297.91	14.776
298.28	15.797
298.65	15.274
299.02	15.547
299.38	13.944
299.75	12.803
300.12	13.027
300.48	14.375
300.85	13.810
301.22	14.140
301.59	13.384
301.95	14.358
302.32	14.249
302.69	14.098
303.05	13.333
303.42	13.951
303.79	13.817
304.15	12.704
304.52	12.630
304.89	13.821
305.25	12.297
305.62	12.911
305.99	12.633
306.35	13.870
306.72	13.453
307.09	12.542
307.45	14.414
307.82	11.607
308.19	13.797
308.55	13.916
308.92	12.782
309.29	12.249
309.65	12.407
310.02	12.896
310.38	12.903
310.75	13.200
311.12	13.715
311.48	11.808
311.85	13.836
312.22	12.799
312.58	13.202
312.95	13.305
313.31	11.748
313.68	14.553
314.05	13.905
314.41	14.070
314.78	14.300
315.14	14.300
315.51	14.933
315.87	14.455
316.24	14.399
316.61	14.133
316.97	14.677
317.34	13.894
317.70	16.635
318.07	15.303
318.43	16.830
318.80	16.120
319.16	16.478
319.53	17.073
319.89	17.810
320.26	19.600
320.62	18.155
320.99	19.293
321.35	20.000
321.72	20.226
322.08	19.348
322.45	20.995
322.81	21.802
323.18	22.062
323.54	22.078
323.91	22.830
324.27	23.901
324.64	23.206
325.00	22.543
325.37	25.569
325.73	25.494
326.10	25.331
326.46	25.896
326.83	27.437
327.19	26.217
327.56	25.784
327.92	27.734
328.29	28.305
328.65	29.466
329.01	27.978
329.38	28.492
329.74	29.732
330.11	30.160
330.47	30.211
330.84	30.239
331.20	29.417
331.56	31.651
331.93	30.741
332.29	31.411
332.66	31.858
333.02	31.353
333.38	29.991
333.75	31.640
334.11	31.406
334.48	32.387
334.84	31.985
335.20	33.000
335.57	31.732
335.93	30.357
336.29	31.044
336.66	31.921
337.02	31.674
337.38	33.241
337.75	33.422
338.11	33.035
338.47	33.425
338.84	32.631
339.20	31.835
339.56	32.391
339.93	33.636
340.29	31.884
340.65	32.264
341.02	33.072
341.38	33.897
341.74	31.667
342.11	32.576
342.47	33.392
342.83	32.449
343.20	33.766
343.56	33.024
343.92	32.982
344.28	34.014
344.65	33.018
345.01	32.071
345.37	31.990
345.73	32.995
346.10	33.078
346.46	33.559
346.82	32.867
347.19	32.916
347.55	33.662
347.91	33.333
348.27	34.675
348.63	33.528
349.00	31.715
349.36	32.430
349.72	33.841
350.08	33.630
350.45	32.791
350.81	32.981
351.17	33.549
351.53	34.070
351.89	32.591
352.26	32.833
352.62	34.002
352.98	33.306
353.34	33.279
353.70	33.388
354.07	34.113
354.43	33.889
354.79	34.031
355.15	33.998
355.51	35.012
355.87	35.102
356.24	34.365
356.60	34.002
356.96	34.996
357.32	35.241
357.68	35.827
358.04	34.759
358.40	35.392
358.77	34.351
359.13	34.570
359.49	34.824
359.85	33.889
360.21	35.167
360.57	35.798
360.93	34.923
361.29	34.769
361.66	35.139
362.02	35.746
362.38	36.806
362.74	36.012
363.10	35.085
363.46	35.437
363.82	36.508
364.18	35.977
364.54	37.370
364.90	36.756
365.26	36.765
365.62	37.838
365.98	36.596
366.35	36.533
366.71	37.238
367.07	36.854
367.43	37.591
367.79	38.044
368.15	38.937
368.51	37.791
368.87	37.973
369.23	38.405
369.59	38.885
369.95	38.824
370.31	38.248
370.67	37.464
371.03	39.176
371.39	39.067
371.75	39.338
372.11	38.620
372.47	39.443
372.83	39.986
373.19	40.679
373.55	39.320
373.91	40.795
374.27	38.900
374.63	40.727
374.99	40.678
375.35	39.916
375.71	40.164
376.07	40.672
376.42	42.091
376.78	41.484
377.14	41.248
377.50	41.854
377.86	41.489
378.22	41.340
378.58	40.476
378.94	41.295
379.30	42.239
379.66	41.942
380.02	42.260
380.38	41.530
380.74	42.557
381.09	43.215
381.45	43.270
381.81	43.305
382.17	44.650
382.53	43.208
382.89	44.198
383.25	44.590
383.61	45.105
383.97	44.215
384.32	44.167
384.68	44.734
385.04	45.544
385.40	43.963
385.76	45.393
386.12	45.402
386.48	46.633
386.83	46.825
387.19	46.691
387.55	46.691
387.91	45.949
388.27	45.800
388.62	46.835
388.98	46.192
389.34	47.309
389.70	46.781
390.06	47.148
390.42	48.054
390.77	47.074
391.13	47.607
391.49	46.954
391.85	46.849
392.20	46.940
392.56	48.927
392.92	47.675
393.28	46.331
393.64	47.362
393.99	47.404
394.35	47.829
394.71	47.365
395.07	47.103
395.42	48.578
395.78	48.410
396.14	47.921
396.50	49.123
396.85	49.078
397.21	49.014
397.57	48.419
397.92	48.798
398.28	48.543
398.64	48.984
399.00	48.069
399.35	49.351
399.71	49.306
400.07	48.965
400.42	48.957
400.78	49.698
401.14	49.390
401.49	49.612
401.85	47.671
402.21	48.383
402.57	50.154
402.92	49.685
403.28	48.657
403.63	49.505
403.99	49.363
404.35	49.152
404.70	48.801
405.06	49.097
405.42	50.094
405.77	49.371
406.13	48.758
406.49	48.433
406.84	48.966
407.20	47.872
407.55	49.904
407.91	49.800
408.27	49.968
408.62	49.548
408.98	49.510
409.34	48.893
409.69	49.097
410.05	49.318
410.40	49.480
410.76	49.522
411.11	47.889
411.47	48.435
411.83	48.870
412.18	48.980
412.54	50.249
412.89	49.458
413.25	48.524
413.60	49.537
413.96	48.391
414.31	48.481
414.67	50.000
415.03	49.007
415.38	48.582
415.74	48.875
416.09	50.816
416.45	48.594
416.80	49.174
417.16	50.402
417.51	49.768
417.87	48.748
418.22	49.905
418.58	48.806
418.93	49.816
419.29	49.268
419.64	48.174
420.00	48.720
420.35	49.507
420.71	48.476
421.06	49.463
421.42	47.427
421.77	47.926
422.12	48.063
422.48	47.598
422.83	48.864
423.19	48.122
423.54	49.623
423.90	49.043
424.25	48.520
424.61	49.286
424.96	48.338
425.31	48.283
425.67	47.079
426.02	48.571
426.38	49.878
426.73	48.157
427.09	48.085
427.44	48.879
427.79	48.074
428.15	50.238
428.50	48.098
428.85	48.093
429.21	47.267
429.56	47.745
429.92	47.509
430.27	47.368
430.62	48.438
430.98	46.964
431.33	47.526
431.68	48.063
432.04	47.178
432.39	49.001
432.74	48.953
433.10	48.953
433.45	48.338
433.80	47.395
434.16	47.329
434.51	47.105
434.86	48.746
435.22	46.915
435.57	47.720
435.92	47.806
436.28	48.577
436.63	49.062
436.98	48.598
437.34	47.943
437.69	48.950
438.04	46.936
438.39	48.060
438.75	48.112
439.10	47.263
439.45	48.288
439.81	48.640
440.16	47.600
440.51	48.506
440.86	48.639
441.22	47.775
441.57	46.762
441.92	47.697
442.27	47.524
442.63	46.340
442.98	47.887
443.33	47.228
443.68	47.290
444.03	47.535
444.39	46.349
444.74	47.186
445.09	46.846
445.44	45.981
445.79	47.254
446.15	47.327
446.50	46.365
446.85	47.533
447.20	47.017
447.55	47.069
447.91	46.608
448.26	46.411
448.61	46.354
448.96	46.622
449.31	47.638
449.66	46.483
450.02	46.852
450.37	45.918
450.72	47.377
451.07	44.607
451.42	45.836
451.77	45.978
452.12	45.092
452.47	46.144
452.83	46.270
453.18	45.599
453.53	46.877
453.88	45.600
454.23	46.384
454.58	46.336
454.93	45.772
455.28	45.200
455.63	44.903
455.98	46.726
456.34	46.671
456.69	44.897
457.04	45.511
457.39	43.717
457.74	45.212
458.09	43.991
458.44	44.641
458.79	43.655
459.14	45.090
459.49	45.009
459.84	44.765
460.19	44.255
460.54	43.634
460.89	43.939
461.24	44.627
461.59	45.729
461.94	44.636
462.29	44.688
462.64	43.076
462.99	42.550
463.34	44.000
463.69	43.152
464.04	44.232
464.39	42.841
464.74	43.553
465.09	44.210
465.44	43.934
465.79	42.673
466.14	41.598
466.49	42.659
466.84	43.608
467.19	42.305
467.54	43.313
467.89	42.377
468.24	42.874
468.59	42.674
468.94	41.356
469.29	42.159
469.64	42.570
469.99	42.625
470.34	42.338
470.68	42.313
471.03	42.789
471.38	43.224
471.73	43.371
472.08	42.566
472.43	40.264
472.78	40.619
473.13	41.207
473.48	41.261
473.83	41.341
474.17	41.008
474.52	41.191
474.87	41.740
475.22	40.104
475.57	39.979
475.92	40.945
476.27	39.741
476.61	40.430
476.96	39.637
477.31	39.560
477.66	40.481
478.01	38.840
478.36	39.344
478.70	40.031
479.05	40.096
479.40	39.560
479.75	40.264
480.10	39.463
480.45	38.791
480.79	38.892
481.14	39.384
481.49	38.538
481.84	38.317
482.19	38.755
482.53	37.615
482.88	38.297
483.23	38.505
483.58	38.262
483.92	38.988
484.27	36.427
484.62	37.069
484.97	36.224
485.31	38.048
485.66	35.865
486.01	35.538
486.36	34.757
486.70	34.773
487.05	35.002
487.40	35.112
487.75	35.980
488.09	35.760
488.44	35.357
488.79	36.600
489.13	36.287
489.48	35.971
489.83	36.124
490.17	36.607
490.52	35.695
490.87	35.640
491.22	36.107
491.56	34.715
491.91	34.621
492.26	35.370
492.60	35.300
492.95	35.220
493.30	34.953
493.64	35.698
493.99	35.980
494.34	35.661
494.68	34.799
495.03	35.197
495.37	34.016
495.72	35.088
496.07	34.988
496.41	33.673
496.76	34.169
497.11	34.039
497.45	34.467
497.80	33.973
498.14	33.671
498.49	34.146
498.84	34.995
499.18	33.381
499.53	33.286
499.87	32.992
500.22	33.490
500.56	34.563
500.91	33.125
501.26	32.859
501.60	34.124
501.95	32.631
502.29	33.786
502.64	33.380
502.98	32.258
503.33	31.901
503.67	33.271
504.02	32.507
504.36	31.961
504.71	32.242
505.06	31.855
505.40	31.842
505.75	31.003
506.09	31.876
506.44	32.511
506.78	32.489
507.13	32.408
507.47	31.818
507.82	31.611
508.16	31.915
508.51	32.166
508.85	30.735
509.19	31.480
509.54	31.429
509.88	31.479
510.23	31.928
510.57	31.992
510.92	32.263
511.26	30.987
511.61	30.757
511.95	30.741
512.30	30.965
512.64	31.220
512.98	30.815
513.33	31.424
513.67	30.363
514.02	30.357
514.36	30.639
514.70	30.493
515.05	30.842
515.39	30.118
515.74	29.899
516.08	30.464
516.42	30.910
516.77	30.546
517.11	29.467
517.46	30.248
517.80	30.139
518.14	29.589
518.49	30.163
518.83	29.489
519.17	30.139
519.52	30.221
519.86	28.751
520.20	30.751
520.55	30.102
520.89	30.109
521.23	29.554
521.58	30.312
521.92	30.374
522.26	29.042
522.61	30.031
522.95	28.975
523.29	28.545
523.64	29.390
523.98	28.712
524.32	28.951
524.66	28.623
525.01	29.963
525.35	28.501
525.69	28.695
526.04	28.100
526.38	28.920
526.72	28.160
527.06	28.625
527.41	27.723
527.75	28.746
528.09	28.645
528.43	28.235
528.78	28.580
529.12	27.697
529.46	27.924
529.80	27.166
530.15	28.162
530.49	27.631
530.83	28.481
531.17	28.851
531.51	28.470
531.86	28.065
532.20	28.292
532.54	27.739
532.88	27.856
533.22	27.483
533.57	26.358
533.91	27.393
534.25	26.671
534.59	26.297
534.93	26.829
535.27	26.373
535.62	26.862
535.96	27.181
536.30	26.510
536.64	26.722
536.98	27.074
537.32	27.255
537.66	27.000
538.01	26.794
538.35	26.438
538.69	27.250
539.03	25.991
539.37	25.815
539.71	25.988
540.05	27.059
540.39	26.844
540.73	25.809
541.07	26.801
541.42	27.006
541.76	27.097
542.10	26.908
542.44	26.424
542.78	26.614
543.12	25.464
543.46	25.574
543.80	25.634
544.14	25.096
544.48	25.968
544.82	25.529
545.16	25.374
545.50	25.193
545.84	25.134
546.18	25.253
546.52	26.153
546.86	25.636
547.20	25.421
547.54	24.916
547.88	26.212
548.22	25.405
548.56	24.340
548.90	25.096
549.24	25.320
549.58	24.625
549.92	24.931
550.26	25.497
550.60	25.104
550.94	24.648
551.28	24.360
551.62	24.515
551.96	25.053
552.30	24.505
552.64	24.476
552.98	24.881
553.32	24.680
553.66	25.562
554.00	24.708
554.34	24.638
554.68	25.179
555.02	24.683
555.36	24.426
555.69	23.072
556.03	25.236
556.37	24.216
556.71	23.602
557.05	24.370
557.39	24.633
557.73	24.982
558.07	24.075
558.41	24.385
558.75	24.614
559.08	24.534
559.42	23.658
559.76	24.338
560.10	23.340
560.44	22.991
560.78	23.486
561.12	22.427
561.45	23.664
561.79	22.742
562.13	23.139
562.47	23.702
562.81	23.849
563.15	22.341
563.48	24.005
563.82	23.027
564.16	23.349
564.50	22.786
564.84	22.946
565.17	22.716
565.51	23.067
565.85	22.589
566.19	22.167
566.52	22.356
566.86	22.061
567.20	22.465
567.54	22.717
567.88	22.271
568.21	22.381
568.55	22.497
568.89	21.790
569.23	21.123
569.56	20.931
569.90	20.906
570.24	20.775
570.57	20.571
570.91	20.136
571.25	20.043
571.59	20.236
571.92	20.075
572.26	19.873
572.60	20.360
572.93	19.790
573.27	20.408
573.61	19.542
573.95	20.336
574.28	19.447
574.62	19.995
574.96	19.140
575.29	19.520
575.63	19.690
575.97	19.682
576.30	19.862
576.64	19.383
576.98	19.494
577.31	19.316
577.65	19.587
577.98	18.737
578.32	18.507
578.66	19.518
578.99	19.493
579.33	18.954
579.67	18.511
580.00	19.036
580.34	19.198
580.67	19.192
581.01	19.406
581.35	19.084
581.68	18.430
582.02	18.349
582.35	18.409
582.69	18.950
583.02	18.749
583.36	18.838
583.70	19.505
584.03	19.436
584.37	19.447
584.70	19.122
585.04	19.080
585.37	18.966
585.71	19.008
586.04	18.483
586.38	18.521
586.72	19.332
587.05	18.256
587.39	18.707
587.72	19.145
588.06	18.730
588.39	19.095
588.73	19.038
589.06	18.978
589.40	19.192
589.73	19.395
590.07	19.324
590.40	19.182
590.73	19.711
591.07	19.943
591.40	19.317
591.74	20.260
592.07	20.201
592.41	19.719
592.74	18.352
593.08	18.654
593.41	18.728
593.75	18.332
594.08	18.605
594.41	18.876
594.75	19.076
595.08	18.683
595.42	19.159
595.75	18.768
596.09	18.926
596.42	19.136
596.75	19.586
597.09	19.740
597.42	18.929
597.75	18.887
598.09	18.565
598.42	18.771
598.76	18.160
599.09	18.396
599.42	17.940
599.76	18.594
600.09	18.397
600.42	18.335
600.76	17.643
601.09	18.069
601.42	18.607
601.76	18.975
602.09	18.538
602.42	19.228
602.76	18.742
603.09	18.765
603.42	18.782
603.76	18.674
604.09	18.224
604.42	18.141
604.76	18.558
605.09	19.004
605.42	18.469
605.75	18.419
606.09	17.446
606.42	18.349
606.75	18.623
607.09	18.669
607.42	18.228
607.75	17.806
608.08	18.367
608.42	18.870
608.75	18.801
609.08	18.871
609.41	18.182
609.75	18.818
610.08	18.473
610.41	17.924
610.74	17.881
611.07	18.528
611.41	19.038
611.74	19.507
612.07	19.048
612.40	19.465
612.73	18.158
613.07	19.181
613.40	18.589
613.73	18.301
614.06	19.032
614.39	19.192
614.72	18.684
615.06	19.118
615.39	17.781
615.72	18.763
616.05	18.235
616.38	18.288
616.71	18.943
617.05	19.022
617.38	19.122
617.71	18.378
618.04	18.630
618.37	19.160
618.70	19.104
619.03	18.553
619.36	18.601
619.69	19.789
620.03	19.437
620.36	18.516
620.69	19.795
621.02	19.248
621.35	18.794
621.68	19.393
622.01	20.666
622.34	19.894
622.67	19.316
623.00	19.002
623.33	18.299
623.66	18.799
623.99	19.514
624.32	19.401
624.65	18.785
624.99	19.901
625.32	18.827
625.65	19.234
625.98	20.446
626.31	20.140
626.64	20.163
626.97	19.202
627.30	19.618
627.63	20.263
627.96	20.858
628.29	19.598
628.62	20.586
628.95	22.075
629.28	19.891
629.61	21.540
629.94	20.857
630.26	20.400
630.59	20.305
630.92	20.402
631.25	18.855
631.58	21.121
631.91	19.371
632.24	20.675
632.57	20.042
632.90	20.943
633.23	22.483
633.56	22.712
633.89	21.404
634.22	21.793
634.55	21.538
634.88	21.677
635.20	21.625
635.53	22.169
635.86	21.658
636.19	22.824
636.52	20.185
636.85	21.420
637.18	20.737
637.51	23.168
637.83	18.372
638.16	22.123
638.49	22.418
638.82	23.135
639.15	21.500
639.48	20.948
639.81	23.324
640.13	23.177
640.46	22.685
640.79	22.061
641.12	20.358
641.45	21.229
641.77	23.711
642.10	22.953
642.43	21.321
642.76	22.291
643.09	23.313
643.41	21.244
643.74	23.765
644.07	23.018
644.40	22.853
644.73	23.780
645.05	24.406
645.38	22.749
645.71	23.188
646.04	23.754
646.36	25.710
646.69	25.251
647.02	24.490
647.35	24.227
647.67	23.186
648.00	24.553
648.33	21.617
648.66	21.667
648.98	22.789
649.31	20.628
649.64	23.916
649.96	22.355
650.29	22.749
650.62	24.110
650.94	22.042
651.27	24.831
651.60	24.126
651.92	24.920
652.25	22.638
652.58	23.053
652.90	24.329
653.23	21.572
653.56	22.835
653.88	21.870
654.21	24.329
654.54	23.102
654.86	21.963
655.19	21.216
655.52	14.764
655.84	12.108
656.17	15.539
656.49	21.324
656.82	22.000
657.15	17.105
657.47	12.636
657.80	9.958
658.13	10.196
658.45	15.597
658.78	15.704
659.10	16.887
659.43	17.529
659.75	18.267
660.08	18.924
660.41	22.160
660.73	22.999
661.06	22.293
661.38	24.545
661.71	25.000
662.03	25.247
662.36	21.471
662.68	24.498
663.01	24.444
663.33	23.355
663.66	24.370
663.98	25.486
664.31	22.059
664.63	22.874
664.96	23.541
665.28	23.975
665.61	23.977
665.93	22.938
666.26	24.544
666.58	24.686
666.91	26.004
667.23	28.090
667.56	23.326
667.88	26.923
668.21	25.586
668.53	23.644
668.86	24.892
669.18	26.226
669.50	24.783
669.83	28.105
670.15	26.000
670.48	23.965
670.80	25.647
671.13	25.053
671.45	26.809
671.77	24.440
672.10	23.660
672.42	25.088
672.75	21.227
673.07	22.183
673.39	24.051
673.72	22.852
674.04	25.490
674.37	25.437
674.69	22.290
675.01	24.059
675.34	25.873
675.66	26.947
675.98	25.866
676.31	26.891
676.63	25.053
676.95	25.577
677.28	24.299
677.60	26.154
677.92	27.215
678.25	25.051
678.57	24.502
678.89	25.451
679.22	24.951
679.54	23.855
679.86	26.606
680.18	23.614
680.51	22.163
680.83	24.021
681.15	23.208
681.48	25.898
681.80	24.952
682.12	24.330
682.44	22.050
682.77	23.829
683.09	30.043
683.41	26.164
683.73	26.932
684.06	22.727
684.38	24.462
684.70	23.643
685.02	24.578
685.34	23.260
685.67	21.503
685.99	20.619
686.31	23.549
686.63	21.378
686.96	22.679
687.28	21.841
687.60	21.739
687.92	23.035
688.24	23.004
688.56	21.888
688.89	26.141
689.21	26.201
689.53	23.173
689.85	26.164
690.17	23.602
690.49	24.204
690.82	24.533
691.14	25.446
691.46	21.097
691.78	24.498
692.10	24.380
692.42	25.150
692.74	23.029
693.06	25.106
693.39	23.614
693.71	26.201
694.03	25.263
694.35	26.190
694.67	23.799
694.99	26.341
695.31	25.245
695.63	22.249
695.95	26.650
696.27	21.574
696.59	25.907
696.91	25.907
697.23	22.770
697.56	26.439
697.88	21.677
698.20	22.083
698.52	23.441
698.84	25.835
699.16	23.502
699.48	21.853
699.80	28.019
700.12	30.649
700.44	29.708
700.76	23.757
701.08	28.736
701.40	27.933
701.72	32.653
702.04	31.250
702.36	22.946
702.68	24.646
703.00	29.917
703.32	26.064
703.64	26.810
703.96	26.462
704.28	29.070
704.60	31.965
704.91	28.487
705.23	28.739
705.55	28.904
705.87	31.561
706.19	28.975
706.51	30.841
706.83	31.515
707.15	29.412
707.47	24.495
707.79	24.079
708.11	25.342
708.43	24.048
708.74	27.296
709.06	27.273
709.38	25.722
709.70	29.070
710.02	29.377
710.34	28.485
710.66	30.149
710.98	27.841
711.29	30.233
711.61	28.909
711.93	30.769
712.25	32.476
712.57	29.044
712.89	29.412
713.20	30.395
713.52	24.013
713.84	26.899
714.16	25.610
714.48	27.586
714.80	30.395
715.11	24.784
715.43	25.519
715.75	24.638
716.07	28.115
716.39	26.959
716.70	31.561
717.02	30.935
717.34	31.095
717.66	29.851
717.97	30.677
718.29	30.000
718.61	28.832
718.93	32.353
719.24	32.180
719.56	27.458
719.88	32.542
720.20	34.122
720.51	34.495
720.83	28.996
721.15	30.597
721.46	28.723
721.78	32.616
722.10	32.453
722.42	34.586
722.73	34.457
723.05	29.098
723.37	30.769
723.68	31.660
724.00	29.268
724.32	33.468
724.63	30.081
724.95	31.381
725.27	32.389
725.58	30.078
725.90	32.847
726.22	31.698
726.53	34.028
726.85	28.669
727.16	33.096
727.48	31.206
727.80	32.197
728.11	30.072
728.43	34.615
728.74	28.674
729.06	33.577
729.38	33.824
729.69	32.740
730.01	29.352
730.32	27.778
730.64	33.779
730.96	28.383
731.27	28.477
731.59	29.052
731.90	25.656
732.22	30.745
732.53	24.149
732.85	27.564
733.16	29.904
733.48	31.894
733.80	30.195
734.11	29.618
734.43	30.769
734.74	24.571
735.06	24.355
735.37	30.347
735.69	26.752
736.00	28.758
736.32	30.841
736.63	27.796
736.95	30.990
737.26	25.170
737.58	25.806
737.89	29.097
738.21	30.375
738.52	27.143
738.83	29.057
739.15	31.923
739.46	31.387
739.78	26.736
740.09	26.769
740.41	31.290
740.72	28.571
741.04	32.963
741.35	29.583
741.66	40.444
741.98	34.906
742.29	39.234
742.61	36.207
742.92	38.914
743.23	33.761
743.55	32.000
743.86	31.579
744.18	38.938
744.49	37.799
744.80	36.620
745.12	38.636
745.43	36.123
745.74	40.090
746.06	40.367
746.37	32.735
746.68	32.579
747.00	35.185
747.31	38.571
747.62	34.071
747.94	31.278
748.25	30.638
748.56	37.004
748.88	35.644
749.19	41.000
749.50	34.419
749.82	31.301
750.13	32.245
750.44	28.102
750.75	26.667
751.07	34.405
751.38	29.617
751.69	31.408
752.01	30.451
752.32	31.047
752.63	34.397
752.94	31.967
753.26	37.200
753.57	26.423
753.88	32.812
754.19	28.929
754.51	29.861
754.82	28.159
755.13	33.208
755.44	31.955
755.75	22.993
756.07	25.887
756.38	31.022
756.69	29.530
757.00	23.353
757.31	28.190
757.63	26.316
757.94	24.129
758.25	22.304
758.56	23.704
758.87	23.925
759.18	29.091
759.50	25.705
759.81	26.480
760.12	27.187
760.43	27.794
760.74	23.098
761.05	23.446
761.36	24.866
761.67	29.261
761.99	28.261
762.30	32.292
762.61	31.679
762.92	29.297
763.23	32.353
763.54	37.200
763.85	30.078
764.16	28.846
764.47	33.080
764.78	26.855
765.10	19.937
765.41	30.383
765.72	27.545
766.03	31.034
766.34	26.333
766.65	33.191
766.96	32.051
767.27	35.025
767.58	41.667
767.89	44.211
768.20	45.977
768.51	36.041
768.82	33.486
769.13	32.520
769.44	32.794
769.75	27.039
770.06	31.651
770.37	36.652
770.68	32.407
770.99	33.778
771.30	28.689
771.61	37.220
771.92	34.016
772.23	38.655
772.54	36.923
772.85	41.361
773.16	33.511
773.47	45.109
773.78	40.102
774.09	44.048
774.39	41.520
774.70	37.037
775.01	47.101
775.32	50.980
775.63	38.816
775.94	55.396
776.25	57.480
776.56	56.716
776.87	58.197
777.18	43.750
777.48	54.962
777.79	60.606
778.10	58.519
778.41	51.786
778.72	42.336
779.03	42.282
779.34	48.993
779.65	40.541
779.95	46.626
780.26	47.059
780.57	44.828
780.88	57.031
781.19	46.617
781.50	47.297
781.80	40.881
782.11	35.028
782.42	33.544
782.73	41.718
783.04	53.378
783.34	55.634
783.65	55.479
783.96	47.015
784.27	47.552
784.57	44.604
784.88	49.074
785.19	60.317
785.50	62.264
785.81	55.970
786.11	46.721
786.42	55.814
786.73	52.212
787.04	59.434
787.34	59.821
787.65	69.000
787.96	61.261
788.26	56.198
788.57	49.153
788.88	57.025
789.19	52.778
789.49	51.515
789.80	51.908
790.11	57.143
790.41	65.347
790.72	55.422
791.03	70.652
791.33	53.488
791.64	69.072
791.95	65.347
792.25	66.667
792.56	77.922
792.87	79.487
793.17	83.544
793.48	74.713
793.79	70.115
794.09	76.136
794.40	56.303
794.70	57.353
795.01	42.963
795.32	48.921
795.62	46.457
795.93	57.759
796.23	59.292
796.54	63.529
796.85	81.081
797.15	85.915
797.46	77.273
797.76	74.699
798.07	75.949
798.37	86.154
798.68	83.333
798.99	77.465
799.29	75.325
799.60	71.591
799.90	79.452
800.21	92.537
800.51	74.138
800.82	96.491
801.12	103.279
801.43	90.909
801.73	79.730
802.04	85.714
802.34	77.778
802.65	101.563
802.95	91.525
803.26	90.625
803.56	82.857
803.87	80.000
804.17	85.294
804.48	100.000
804.78	84.483
805.09	94.118
805.39	90.385
805.70	105.357
806.00	93.443
806.30	78.788
806.61	79.268
806.91	69.620
807.22	92.105
807.52	77.612
807.83	85.915
808.13	89.062
808.43	105.000
808.74	67.105
809.04	89.855
809.35	91.045
809.65	73.684
809.95	122.581
810.26	98.305
810.56	106.349
810.86	122.727
811.17	150.000
811.47	110.000
811.77	96.296
812.08	101.818
812.38	114.000
812.69	163.889
812.99	150.000
813.29	114.286
813.59	109.524
813.90	130.612
814.20	96.364
814.50	80.000
814.81	104.412
815.11	112.245
815.41	111.475
815.72	133.333
816.02	103.636
816.32	135.714
816.62	135.000
816.93	156.098
817.23	128.571
817.53	131.818
817.84	148.485
818.14	108.696
818.44	126.667
818.74	155.882
819.04	107.500
819.35	174.286
819.65	182.353
819.95	182.143
820.25	235.000
820.56	164.103
820.86	127.273
821.16	132.558
821.46	135.897
821.76	142.000
822.07	160.000
822.37	145.000
822.67	175.758
822.97	129.412
823.27	182.143
823.57	132.432
823.88	155.000
824.18	190.000
824.48	154.762
824.78	220.000
825.08	166.667
825.38	151.351
825.69	124.390
825.99	241.667
826.29	175.862
826.59	150.000
826.89	139.474
827.19	144.118
827.49	170.968
827.79	118.182
828.09	122.727
828.39	93.617
828.70	126.531
829.00	133.333
829.30	132.258
829.60	122.500
829.90	380.000
830.20	200.000
830.50	208.696
830.80	191.304
831.10	206.667
831.40	190.000
831.70	191.304
832.00	234.615
832.30	218.519
832.60	318.750
832.90	216.667
833.20	378.571
833.50	212.903
833.80	137.931
834.10	209.375
834.40	211.538
834.70	294.444
835.00	247.619
835.30	142.857
835.60	338.462
835.90	175.862
836.20	321.429
836.50	196.552
836.80	164.000
837.10	155.556
837.40	271.429
837.70	252.941
838.00	211.111
838.30	261.905
838.60	271.429
838.90	223.077
839.19	235.000
839.49	400.000
839.79	340.000
840.09	270.000
840.39	295.238
840.69	239.130
840.99	288.889
841.29	500.000
841.59	283.333
841.88	312.500
842.18	189.655
842.48	280.952
842.78	156.667
843.08	230.435
843.38	190.625
843.68	900.000
843.97	211.538
844.27	193.103
844.57	257.143
844.87	350.000
845.17	188.889
845.47	1800.000
845.76	533.333
846.06	282.353
846.36	550.000
846.66	364.286
846.96	318.750
847.25	427.273
847.55	390.909
847.85	243.478
848.15	440.000
848.44	371.429
848.74	305.556
849.04	288.235
849.34	510.000
849.63	247.368
849.93	409.091
850.23	760.000
850.53	414.286
850.82	2150.000
851.12	-4200.000
851.42	4600.000
851.71	250.000
852.01	-1333.333
852.31	220.833
852.61	1566.667
852.90	304.762
853.20	216.000
853.50	288.235
853.79	200.000
854.09	229.167
854.39	362.500
854.68	159.459
854.98	190.323
855.28	190.000
855.57	200.000
855.87	229.630
856.17	257.895
856.46	266.667
856.76	288.235
857.05	196.552
857.35	216.667
857.65	373.333
857.94	265.217
858.24	223.077
858.53	305.000
858.83	304.545
859.13	413.333
859.42	0.000
859.72	666.667
860.01	500.000
860.31	281.818
860.60	278.947
860.90	226.087
861.20	588.889
861.49	541.667
861.79	-4400.000
862.08	725.000
862.38	300.000
862.67	430.769
862.97	305.882
863.26	600.000
863.56	272.222
863.85	400.000
864.15	625.000
864.44	426.667
864.74	866.667
865.03	712.500
865.33	321.053
865.62	436.364
865.92	484.615
866.21	366.667
866.51	0.000
866.80	427.273
867.10	1020.000
867.39	446.154
867.69	472.727
867.98	315.789
868.27	427.273
868.57	273.684
868.86	-4100.000
869.16	362.500
869.45	2000.000
869.75	-3600.000
870.04	441.667
870.33	657.143
870.63	1125.000
870.92	2450.000
871.22	657.143
871.51	364.706
871.80	238.095
872.10	371.429
>>>>>End Processed Spectral Data<<<<<
