SpectraSuite Data File
++++++++++++++++++++++++++++++++++++
Date: Wed May 13 19:26:32 PDT 2015
User: schluterlab
Dark Spectrum Present: Yes
Reference Spectrum Present: Yes
Number of Sampled Component Spectra: 1
Spectrometers: USB2E3373
Integration Time (usec): 3000 (USB2E3373)
Spectra Averaged: 3 (USB2E3373)
Boxcar Smoothing: 0 (USB2E3373)
Correct for Electrical Dark: No (USB2E3373)
Strobe/Lamp Enabled: No (USB2E3373)
Correct for Detector Non-linearity: No (USB2E3373)
Correct for Stray Light: No (USB2E3373)
Number of Pixels in Processed Spectrum: 2048
>>>>>Begin Processed Spectral Data<<<<<
178.53	0.000
178.91	-1425.000
179.29	-1400.000
179.67	-227.778
180.04	-1325.000
180.42	2800.000
180.80	1180.000
181.18	-975.000
181.56	814.286
181.94	0.000
182.31	-914.286
182.69	1733.333
183.07	-587.500
183.45	-533.333
183.83	527.273
184.20	-520.000
184.58	2500.000
184.96	5800.000
185.34	-960.000
185.72	-637.500
186.09	-2750.000
186.47	2800.000
186.85	2550.000
187.23	5500.000
187.61	-1933.333
187.98	1450.000
188.36	609.091
188.74	509.091
189.12	-1040.000
189.49	640.000
189.87	-5300.000
190.25	-1325.000
190.63	421.429
191.00	469.231
191.38	800.000
191.76	-1375.000
192.14	1425.000
192.51	662.500
192.89	1166.667
193.27	662.500
193.65	-1425.000
194.02	560.000
194.40	940.000
194.78	560.000
195.15	491.667
195.53	680.000
195.91	-2050.000
196.29	375.000
196.66	310.526
197.04	-390.000
197.42	0.000
197.79	650.000
198.17	-5800.000
198.55	742.857
198.92	675.000
199.30	920.000
199.68	0.000
200.05	322.222
200.43	871.429
200.81	4200.000
201.18	1700.000
201.56	-1566.667
201.94	555.556
202.31	633.333
202.69	408.333
203.07	530.000
203.44	0.000
203.82	1275.000
204.19	685.714
204.57	464.286
204.95	725.000
205.32	1500.000
205.70	536.364
206.08	342.857
206.45	2500.000
206.83	393.750
207.20	866.667
207.58	880.000
207.96	266.667
208.33	775.000
208.71	-766.667
209.08	800.000
209.46	711.111
209.84	527.273
210.21	-1733.333
210.59	1375.000
210.96	-525.000
211.34	2900.000
211.71	580.000
212.09	800.000
212.46	0.000
212.84	1900.000
213.22	1475.000
213.59	-5000.000
213.97	766.667
214.34	685.714
214.72	500.000
215.09	1040.000
215.47	-3000.000
215.84	-2950.000
216.22	1500.000
216.59	421.429
216.97	1600.000
217.34	563.636
217.72	-883.333
218.09	0.000
218.47	-6200.000
218.84	666.667
219.22	914.286
219.59	1933.333
219.97	-785.714
220.34	1180.000
220.72	-1600.000
221.09	457.143
221.47	1500.000
221.84	-900.000
222.22	0.000
222.59	1375.000
222.97	-2500.000
223.34	1280.000
223.72	376.923
224.09	1080.000
224.46	2450.000
224.84	-5800.000
225.21	-1140.000
225.59	-5000.000
225.96	610.000
226.34	340.000
226.71	2900.000
227.08	637.500
227.46	600.000
227.83	-1125.000
228.21	-2400.000
228.58	677.778
228.95	-2700.000
229.33	-2500.000
229.70	1866.667
230.08	771.429
230.45	-960.000
230.82	508.333
231.20	850.000
231.57	742.857
231.95	550.000
232.32	286.364
232.69	472.727
233.07	771.429
233.44	353.846
233.81	-1666.667
234.19	242.105
234.56	383.333
234.93	408.333
235.31	472.727
235.68	407.692
236.05	300.000
236.43	184.848
236.80	252.632
237.17	4700.000
237.55	271.429
237.92	217.857
238.29	247.619
238.67	151.613
239.04	210.345
239.41	163.889
239.79	128.261
240.16	140.476
240.53	140.909
240.91	117.647
241.28	116.000
241.65	114.000
242.02	104.348
242.40	90.323
242.77	85.000
243.14	80.645
243.51	86.517
243.89	92.941
244.26	70.000
244.63	73.118
245.00	74.468
245.38	67.327
245.75	59.813
246.12	58.716
246.49	70.073
246.87	65.600
247.24	68.462
247.61	65.000
247.98	56.209
248.36	52.027
248.73	54.140
249.10	59.236
249.47	53.107
249.84	48.663
250.22	47.594
250.59	48.521
250.96	45.455
251.33	49.763
251.70	44.059
252.08	47.143
252.45	46.637
252.82	44.348
253.19	44.255
253.56	42.745
253.94	44.398
254.31	37.500
254.68	43.077
255.05	39.852
255.42	44.309
255.79	41.544
256.16	44.404
256.54	38.516
256.91	38.790
257.28	34.173
257.65	36.634
258.02	35.404
258.39	33.754
258.76	38.127
259.14	34.226
259.51	34.043
259.88	34.472
260.25	35.045
260.62	30.925
260.99	34.783
261.36	35.435
261.73	33.524
262.10	32.267
262.47	34.366
262.85	33.148
263.22	31.339
263.59	35.328
263.96	33.242
264.33	34.204
264.70	31.579
265.07	33.248
265.44	30.808
265.81	30.657
266.18	32.161
266.55	31.220
266.92	30.713
267.29	33.565
267.66	30.275
268.03	31.364
268.40	30.607
268.77	28.878
269.14	31.982
269.51	31.151
269.88	31.235
270.25	28.442
270.62	27.640
270.99	32.258
271.36	29.399
271.73	30.841
272.10	29.783
272.47	29.462
272.84	31.602
273.21	30.189
273.58	28.821
273.95	27.254
274.32	26.446
274.69	27.409
275.06	26.969
275.43	28.936
275.80	28.056
276.17	27.495
276.54	29.522
276.91	31.423
277.28	28.320
277.65	29.014
278.02	27.743
278.39	29.297
278.76	26.909
279.13	29.434
279.50	28.305
279.87	28.287
280.23	27.545
280.60	27.466
280.97	27.357
281.34	29.204
281.71	29.091
282.08	30.134
282.45	25.818
282.82	26.998
283.19	24.599
283.56	27.018
283.92	27.919
284.29	24.162
284.66	27.223
285.03	27.125
285.40	25.704
285.77	25.758
286.14	25.907
286.51	26.833
286.87	26.667
287.24	27.687
287.61	25.361
287.98	25.649
288.35	25.674
288.72	25.545
289.08	25.822
289.45	23.723
289.82	24.878
290.19	23.077
290.56	23.737
290.93	22.961
291.29	25.000
291.66	23.156
292.03	26.308
292.40	23.935
292.77	21.450
293.13	24.627
293.50	23.761
293.87	21.926
294.24	21.630
294.60	21.397
294.97	22.238
295.34	23.977
295.71	23.722
296.08	21.937
296.44	21.733
296.81	22.985
297.18	23.306
297.55	19.921
297.91	22.559
298.28	22.490
298.65	21.802
299.02	20.685
299.38	20.584
299.75	20.216
300.12	20.307
300.48	20.500
300.85	19.729
301.22	20.892
301.59	20.581
301.95	19.647
302.32	20.796
302.69	18.877
303.05	18.788
303.42	17.654
303.79	20.272
304.15	20.396
304.52	19.467
304.89	19.861
305.25	19.722
305.62	18.913
305.99	18.890
306.35	18.456
306.72	20.179
307.09	19.756
307.45	20.946
307.82	17.857
308.19	19.757
308.55	19.202
308.92	20.086
309.29	17.212
309.65	19.406
310.02	18.393
310.38	19.247
310.75	19.641
311.12	19.652
311.48	21.003
311.85	19.811
312.22	19.875
312.58	20.166
312.95	19.852
313.31	19.029
313.68	19.127
314.05	21.893
314.41	19.296
314.78	20.242
315.14	21.251
315.51	21.009
315.87	20.792
316.24	20.854
316.61	21.345
316.97	20.548
317.34	19.863
317.70	21.702
318.07	21.367
318.43	21.037
318.80	22.306
319.16	21.186
319.53	21.107
319.89	22.381
320.26	22.400
320.62	23.512
320.99	22.929
321.35	23.939
321.72	24.127
322.08	24.778
322.45	25.075
322.81	25.097
323.18	24.470
323.54	24.861
323.91	24.245
324.27	25.526
324.64	25.443
325.00	23.715
325.37	26.479
325.73	26.391
326.10	25.684
326.46	26.254
326.83	27.869
327.19	26.900
327.56	26.829
327.92	28.346
328.29	28.305
328.65	27.716
329.01	27.978
329.38	26.735
329.74	28.255
330.11	28.558
330.47	28.926
330.84	29.044
331.20	28.142
331.56	27.798
331.93	29.259
332.29	27.862
332.66	29.735
333.02	28.702
333.38	30.081
333.75	29.055
334.11	28.915
334.48	28.926
334.84	28.401
335.20	29.909
335.57	29.737
335.93	28.125
336.29	29.121
336.66	29.757
337.02	27.059
337.38	29.352
337.75	29.501
338.11	31.244
338.47	28.361
338.84	29.423
339.20	29.266
339.56	29.927
339.93	29.091
340.29	27.989
340.65	30.214
341.02	29.319
341.38	28.292
341.74	29.123
342.11	29.345
342.47	29.604
342.83	29.795
343.20	30.390
343.56	28.475
343.92	29.386
344.28	29.167
344.65	29.235
345.01	28.451
345.37	29.588
345.73	29.357
346.10	28.474
346.46	29.915
346.82	29.325
347.19	28.571
347.55	30.049
347.91	29.450
348.27	30.403
348.63	29.933
349.00	28.803
349.36	28.900
349.72	27.987
350.08	29.011
350.45	29.211
350.81	29.488
351.17	27.796
351.53	28.829
351.89	27.145
352.26	29.597
352.62	29.431
352.98	29.254
353.34	28.924
353.70	26.841
354.07	29.597
354.43	28.413
354.79	28.962
355.15	29.370
355.51	30.376
355.87	29.388
356.24	29.397
356.60	28.308
356.96	29.686
357.32	29.599
357.68	30.236
358.04	28.583
358.40	27.870
358.77	28.795
359.13	28.177
359.49	28.157
359.85	27.302
360.21	29.027
360.57	29.105
360.93	29.077
361.29	28.723
361.66	29.567
362.02	29.179
362.38	27.985
362.74	28.051
363.10	28.053
363.46	29.127
363.82	28.571
364.18	29.148
364.54	29.718
364.90	29.249
365.26	29.191
365.62	28.707
365.98	28.634
366.35	28.868
366.71	29.790
367.07	27.749
367.43	29.390
367.79	30.050
368.15	29.885
368.51	29.070
368.87	30.193
369.23	29.042
369.59	28.747
369.95	30.074
370.31	29.630
370.67	30.072
371.03	30.637
371.39	30.685
371.75	30.662
372.11	28.947
372.47	30.132
372.83	30.548
373.19	28.974
373.55	29.860
373.91	31.075
374.27	30.172
374.63	29.891
374.99	29.873
375.35	27.983
375.71	29.678
376.07	30.178
376.42	29.917
376.78	30.351
377.14	29.579
377.50	29.934
377.86	30.652
378.22	29.456
378.58	29.887
378.94	30.735
379.30	29.580
379.66	30.457
380.02	30.651
380.38	30.358
380.74	30.552
381.09	30.501
381.45	31.100
381.81	30.958
382.17	30.000
382.53	30.629
382.89	31.914
383.25	31.082
383.61	31.722
383.97	31.207
384.32	32.127
384.68	30.607
385.04	30.670
385.40	31.146
385.76	31.818
386.12	30.959
386.48	31.781
386.83	32.906
387.19	31.911
387.55	31.911
387.91	31.681
388.27	32.005
388.62	32.145
388.98	31.511
389.34	32.353
389.70	32.679
390.06	32.383
390.42	33.074
390.77	32.761
391.13	34.269
391.49	32.614
391.85	32.782
392.20	32.177
392.56	32.134
392.92	33.137
393.28	33.077
393.64	32.794
393.99	32.987
394.35	33.561
394.71	33.626
395.07	33.146
395.42	33.498
395.78	34.796
396.14	32.651
396.50	33.647
396.85	33.948
397.21	33.539
397.57	33.478
397.92	33.293
398.28	33.520
398.64	33.453
399.00	34.247
399.35	33.333
399.71	33.102
400.07	35.068
400.42	34.049
400.78	33.715
401.14	33.720
401.49	34.269
401.85	34.846
402.21	33.952
402.57	33.313
402.92	34.994
403.28	35.103
403.63	34.220
403.99	34.268
404.35	34.182
404.70	35.492
405.06	34.362
405.42	35.496
405.77	35.143
406.13	34.481
406.49	35.245
406.84	34.968
407.20	34.161
407.55	34.971
407.91	36.133
408.27	35.992
408.62	35.822
408.98	34.314
409.34	35.547
409.69	36.000
410.05	34.634
410.40	35.719
410.76	36.081
411.11	36.369
411.47	35.208
411.83	36.225
412.18	36.054
412.54	36.052
412.89	36.988
413.25	35.006
413.60	36.689
413.96	35.701
414.31	35.844
414.67	37.452
415.03	36.755
415.38	36.727
415.74	37.814
416.09	36.969
416.45	37.349
416.80	37.872
417.16	37.802
417.51	37.492
417.87	37.444
418.22	38.486
418.58	38.089
418.93	37.654
419.29	38.065
419.64	38.098
420.00	38.110
420.35	37.565
420.71	38.494
421.06	39.081
421.42	38.304
421.77	38.341
422.12	38.293
422.48	37.992
422.83	37.682
423.19	37.624
423.54	38.828
423.90	38.609
424.25	38.693
424.61	38.750
424.96	38.426
425.31	39.037
425.67	38.539
426.02	38.686
426.38	38.950
426.73	39.029
427.09	38.419
427.44	39.333
427.79	39.505
428.15	39.940
428.50	39.789
428.85	39.690
429.21	39.094
429.56	39.658
429.92	39.456
430.27	39.027
430.62	38.454
430.98	39.647
431.33	39.485
431.68	40.262
432.04	39.191
432.39	40.491
432.74	40.395
433.10	41.030
433.45	41.108
433.80	41.075
434.16	40.598
434.51	40.211
434.86	41.049
435.22	41.412
435.57	40.426
435.92	41.018
436.28	41.637
436.63	41.501
436.98	40.527
437.34	42.278
437.69	41.307
438.04	41.259
438.39	40.896
438.75	41.720
439.10	41.620
439.45	42.149
439.81	42.296
440.16	42.123
440.51	42.004
440.86	42.733
441.22	41.769
441.57	41.507
441.92	41.812
442.27	42.034
442.63	41.443
442.98	43.155
443.33	41.902
443.68	42.179
444.03	41.825
444.39	42.016
444.74	42.045
445.09	42.156
445.44	41.279
445.79	41.465
446.15	42.774
446.50	43.511
446.85	42.395
447.20	42.274
447.55	43.719
447.91	42.306
448.26	41.736
448.61	43.075
448.96	42.470
449.31	44.207
449.66	42.037
450.02	43.175
450.37	42.404
450.72	42.358
451.07	42.291
451.42	42.857
451.77	43.805
452.12	42.494
452.47	43.408
452.83	43.648
453.18	41.932
453.53	44.218
453.88	43.119
454.23	43.036
454.58	44.700
454.93	45.455
455.28	44.015
455.63	44.175
455.98	45.595
456.34	44.284
456.69	45.648
457.04	44.706
457.39	44.243
457.74	44.399
458.09	42.668
458.44	43.672
458.79	41.974
459.14	43.454
459.49	44.016
459.84	43.269
460.19	43.665
460.54	42.593
460.89	43.335
461.24	44.627
461.59	44.277
461.94	43.033
462.29	45.223
462.64	44.033
462.99	43.331
463.34	44.867
463.69	44.340
464.04	44.522
464.39	42.841
464.74	43.137
465.09	42.823
465.44	43.213
465.79	42.617
466.14	43.240
466.49	44.049
466.84	43.724
467.19	44.418
467.54	44.938
467.89	43.457
468.24	44.386
468.59	44.750
468.94	42.822
469.29	44.473
469.64	45.315
469.99	45.873
470.34	44.980
470.68	46.049
471.03	43.741
471.38	46.491
471.73	45.037
472.08	46.316
472.43	45.101
472.78	45.293
473.13	45.443
473.48	45.069
473.83	45.793
474.17	44.742
474.52	46.278
474.87	45.184
475.22	45.038
475.57	44.170
475.92	44.503
476.27	44.701
476.61	45.008
476.96	43.925
477.31	43.904
477.66	44.912
478.01	43.544
478.36	44.738
478.70	44.704
479.05	44.515
479.40	44.217
479.75	45.247
480.10	43.936
480.45	43.789
480.79	44.816
481.14	44.618
481.49	44.756
481.84	44.033
482.19	44.434
482.53	43.761
482.88	43.881
483.23	44.299
483.58	44.268
483.92	44.517
484.27	43.486
484.62	43.190
484.97	43.082
485.31	43.185
485.66	41.249
486.01	40.586
486.36	39.011
486.70	38.561
487.05	39.716
487.40	40.909
487.75	40.854
488.09	41.189
488.44	41.061
488.79	42.351
489.13	42.895
489.48	42.863
489.83	43.591
490.17	43.446
490.52	43.667
490.87	43.781
491.22	43.656
491.56	43.781
491.91	43.834
492.26	43.822
492.60	44.424
492.95	43.031
493.30	43.925
493.64	44.284
493.99	42.897
494.34	43.987
494.68	44.597
495.03	43.750
495.37	43.834
495.72	44.688
496.07	44.269
496.41	42.212
496.76	43.712
497.11	44.169
497.45	43.596
497.80	45.106
498.14	43.527
498.49	43.561
498.84	44.439
499.18	43.476
499.53	42.925
499.87	43.243
500.22	44.418
500.56	45.000
500.91	43.125
501.26	44.666
501.60	44.945
501.95	42.988
502.29	44.658
502.64	44.367
502.98	44.320
503.33	42.916
503.67	43.759
504.02	43.826
504.36	44.221
504.71	43.576
505.06	43.277
505.40	43.704
505.75	44.118
506.09	43.149
506.44	44.943
506.78	44.812
507.13	44.472
507.47	44.343
507.82	44.478
508.16	45.390
508.51	45.104
508.85	43.744
509.19	45.153
509.54	44.592
509.88	45.183
510.23	45.193
510.57	46.078
510.92	45.883
511.26	43.885
511.61	45.851
511.95	44.468
512.30	45.334
512.64	45.083
512.98	44.962
513.33	46.574
513.67	43.330
514.02	43.939
514.36	45.549
514.70	45.545
515.05	45.287
515.39	45.766
515.74	46.115
516.08	46.283
516.42	45.727
516.77	46.711
517.11	45.671
517.46	46.219
517.80	46.632
518.14	44.586
518.49	46.499
518.83	45.739
519.17	45.381
519.52	45.784
519.86	46.207
520.20	44.855
520.55	47.696
520.89	47.263
521.23	47.527
521.58	45.798
521.92	47.520
522.26	46.004
522.61	47.726
522.95	46.470
523.29	46.683
523.64	47.073
523.98	46.765
524.32	47.829
524.66	46.663
525.01	46.507
525.35	46.283
525.69	45.505
526.04	46.916
526.38	46.492
526.72	44.969
527.06	46.830
527.41	45.545
527.75	47.138
528.09	47.399
528.43	47.036
528.78	47.572
529.12	44.727
529.46	45.315
529.80	46.163
530.15	46.542
530.49	45.477
530.83	46.899
531.17	47.389
531.51	47.017
531.86	47.548
532.20	47.979
532.54	46.381
532.88	46.662
533.22	44.909
533.57	45.309
533.91	45.876
534.25	45.747
534.59	45.638
534.93	44.973
535.27	44.961
535.62	45.788
535.96	45.386
536.30	44.310
536.64	46.491
536.98	45.853
537.32	45.622
537.66	45.867
538.01	46.083
538.35	45.443
538.69	45.501
539.03	45.289
539.37	43.770
539.71	43.227
540.05	45.425
540.39	45.249
540.73	43.984
541.07	45.750
541.42	45.597
541.76	45.419
542.10	44.437
542.44	45.099
542.78	45.652
543.12	44.530
543.46	46.164
543.80	46.064
544.14	44.223
544.48	45.079
544.82	43.938
545.16	45.738
545.50	43.959
545.84	44.691
546.18	43.906
546.52	45.767
546.86	44.330
547.20	45.111
547.54	44.088
547.88	44.770
548.22	44.770
548.56	43.711
548.90	43.918
549.24	44.781
549.58	45.839
549.92	44.712
550.26	46.094
550.60	43.638
550.94	45.282
551.28	44.111
551.62	46.082
551.96	43.088
552.30	43.345
552.64	45.909
552.98	44.746
553.32	43.898
553.66	45.126
554.00	44.063
554.34	43.478
554.68	44.635
555.02	44.711
555.36	44.120
555.69	43.099
556.03	43.472
556.37	43.656
556.71	43.724
557.05	42.857
557.39	43.177
557.73	43.260
558.07	45.105
558.41	45.369
558.75	44.526
559.08	45.488
559.42	44.067
559.76	44.706
560.10	43.540
560.44	43.885
560.78	41.450
561.12	42.744
561.45	42.894
561.79	41.859
562.13	42.723
562.47	42.691
562.81	43.236
563.15	41.672
563.48	42.175
563.82	41.487
564.16	43.558
564.50	42.969
564.84	42.035
565.17	42.407
565.51	41.725
565.85	41.434
566.19	42.204
566.52	42.495
566.86	41.109
567.20	42.040
567.54	41.724
567.88	41.445
568.21	40.741
568.55	39.484
568.89	40.029
569.23	38.280
569.56	37.976
569.90	37.396
570.24	37.854
570.57	36.552
570.91	37.007
571.25	36.442
571.59	36.259
571.92	36.434
572.26	35.904
572.60	36.096
572.93	35.712
573.27	35.877
573.61	35.734
573.95	35.633
574.28	34.774
574.62	34.815
574.96	34.886
575.29	34.336
575.63	34.451
575.97	34.600
576.30	34.360
576.64	34.875
576.98	34.662
577.31	34.057
577.65	34.549
577.98	34.158
578.32	33.479
578.66	33.899
578.99	34.056
579.33	34.519
579.67	33.666
580.00	33.661
580.34	34.006
580.67	34.035
581.01	33.933
581.35	33.422
581.68	33.718
582.02	32.779
582.35	33.002
582.69	33.220
583.02	32.789
583.36	34.263
583.70	33.741
584.03	33.882
584.37	34.519
584.70	33.986
585.04	33.733
585.37	33.318
585.71	34.093
586.04	33.800
586.38	34.666
586.72	34.548
587.05	33.605
587.39	33.562
587.72	33.342
588.06	34.098
588.39	34.019
588.73	33.969
589.06	35.089
589.40	34.882
589.73	35.234
590.07	34.733
590.40	34.673
590.73	35.714
591.07	35.531
591.40	35.639
591.74	35.844
592.07	35.297
592.41	35.428
592.74	34.270
593.08	33.844
593.41	33.818
593.75	33.573
594.08	33.557
594.41	34.288
594.75	34.270
595.08	33.679
595.42	33.975
595.75	33.939
596.09	34.923
596.42	34.853
596.75	34.276
597.09	35.325
597.42	33.811
597.75	34.670
598.09	35.130
598.42	34.107
598.76	33.644
599.09	32.839
599.42	32.969
599.76	33.968
600.09	32.714
600.42	33.346
600.76	32.250
601.09	33.042
601.42	34.132
601.76	34.535
602.09	34.545
602.42	33.917
602.76	34.019
603.09	33.910
603.42	33.932
603.76	32.622
604.09	33.463
604.42	33.795
604.76	33.994
605.09	33.377
605.42	34.245
605.75	33.154
606.09	33.428
606.42	33.510
606.75	32.684
607.09	33.654
607.42	33.633
607.75	32.996
608.08	33.565
608.42	34.424
608.75	34.175
609.08	33.580
609.41	33.317
609.75	33.111
610.08	33.459
610.41	33.613
610.74	33.775
611.07	34.338
611.41	34.887
611.74	35.244
612.07	33.644
612.40	34.575
612.73	33.947
613.07	34.537
613.40	34.755
613.73	33.928
614.06	34.731
614.39	34.190
614.72	33.947
615.06	34.139
615.39	33.386
615.72	33.027
616.05	33.705
616.38	34.797
616.71	35.273
617.05	35.689
617.38	35.298
617.71	34.474
618.04	35.397
618.37	34.654
618.70	35.159
619.03	35.329
619.36	35.234
619.69	36.197
620.03	36.332
620.36	35.495
620.69	36.027
621.02	36.283
621.35	35.552
621.68	36.293
622.01	36.765
622.34	38.048
622.67	35.970
623.00	35.070
623.33	35.382
623.66	35.597
623.99	36.082
624.32	36.163
624.65	35.311
624.99	35.977
625.32	36.133
625.65	37.040
625.98	35.819
626.31	36.858
626.64	37.551
626.97	35.993
627.30	37.157
627.63	36.916
627.96	37.006
628.29	37.533
628.62	38.335
628.95	39.340
629.28	36.223
629.61	38.313
629.94	39.333
630.26	38.799
630.59	37.369
630.92	37.835
631.25	37.907
631.58	38.639
631.91	39.047
632.24	39.030
632.57	39.559
632.90	40.461
633.23	41.051
633.56	40.904
633.89	40.317
634.22	39.614
634.55	40.828
634.88	38.802
635.20	41.099
635.53	39.880
635.86	40.594
636.19	37.647
636.52	37.255
636.85	38.832
637.18	39.401
637.51	40.307
637.83	37.115
638.16	40.793
638.49	39.043
638.82	40.834
639.15	40.500
639.48	39.277
639.81	41.957
640.13	40.885
640.46	39.866
640.79	39.102
641.12	39.340
641.45	42.737
641.77	43.152
642.10	42.251
642.43	40.991
642.76	41.950
643.09	42.025
643.41	42.337
643.74	42.901
644.07	42.226
644.40	43.098
644.73	42.362
645.05	42.789
645.38	41.548
645.71	42.834
646.04	41.362
646.36	44.741
646.69	44.649
647.02	42.007
647.35	43.299
647.67	44.425
648.00	42.764
648.33	41.254
648.66	40.909
648.98	41.379
649.31	38.266
649.64	37.668
649.96	41.282
650.29	42.022
650.62	41.586
650.94	43.274
651.27	45.946
651.60	41.265
651.92	40.735
652.25	39.577
652.58	39.252
652.90	40.442
653.23	39.291
653.56	38.740
653.88	42.155
654.21	42.338
654.54	40.759
654.86	39.097
655.19	38.649
655.52	25.344
655.84	21.857
656.17	28.386
656.49	38.591
656.82	39.662
657.15	29.851
657.47	22.301
657.80	17.304
658.13	17.784
658.45	26.539
658.78	26.356
659.10	27.273
659.43	29.442
659.75	30.103
660.08	33.228
660.41	36.778
660.73	39.898
661.06	39.968
661.38	42.182
661.71	42.308
662.03	42.406
662.36	41.750
662.68	40.964
663.01	41.010
663.33	43.949
663.66	43.908
663.98	43.413
664.31	42.647
664.63	43.320
664.96	42.656
665.28	42.213
665.61	40.351
665.93	40.443
666.26	44.422
666.58	41.423
666.91	43.129
667.23	44.944
667.56	42.765
667.88	43.803
668.21	42.004
668.53	43.384
668.86	43.939
669.18	44.136
669.50	45.435
669.83	45.098
670.15	45.778
670.48	42.919
670.80	45.043
671.13	42.463
671.45	40.000
671.77	45.825
672.10	41.405
672.42	40.989
672.75	39.801
673.07	37.852
673.39	39.421
673.72	38.672
674.04	41.373
674.37	39.223
674.69	41.104
675.01	39.958
675.34	42.505
675.66	41.895
675.98	41.548
676.31	42.437
676.63	42.675
676.95	41.719
677.28	44.393
677.60	44.396
677.92	44.304
678.25	44.148
678.57	40.837
678.89	40.281
679.22	40.668
679.54	41.221
679.86	40.367
680.18	40.608
680.51	37.589
680.83	39.146
681.15	40.189
681.48	40.454
681.80	37.911
682.12	39.847
682.44	35.783
682.77	42.770
683.09	44.635
683.41	41.685
683.73	42.163
684.06	41.116
684.38	38.943
684.70	41.473
685.02	40.901
685.34	37.363
685.67	37.238
685.99	35.567
686.31	37.713
686.63	36.572
686.96	37.143
687.28	38.267
687.60	36.775
687.92	39.854
688.24	37.262
688.56	40.763
688.89	39.212
689.21	42.358
689.53	41.754
689.85	40.355
690.17	38.302
690.49	45.435
690.82	44.860
691.14	37.277
691.46	38.608
691.78	37.751
692.10	40.289
692.42	38.922
692.74	38.174
693.06	39.362
693.39	39.220
693.71	39.083
694.03	40.000
694.35	40.693
694.67	39.359
694.99	45.122
695.31	40.686
695.63	42.344
695.95	42.298
696.27	41.624
696.59	44.041
696.91	43.523
697.23	39.671
697.56	37.313
697.88	35.583
698.20	38.542
698.52	40.860
698.84	39.866
699.16	39.631
699.48	38.955
699.80	40.821
700.12	42.338
700.44	42.706
700.76	43.094
701.08	40.517
701.40	42.737
701.72	45.190
702.04	47.159
702.36	41.360
702.68	45.609
703.00	43.490
703.32	40.957
703.64	45.040
703.96	44.290
704.28	41.279
704.60	44.282
704.91	49.555
705.23	44.575
705.55	45.515
705.87	52.159
706.19	46.290
706.51	42.991
706.83	46.061
707.15	43.978
707.47	38.636
707.79	38.821
708.11	41.324
708.43	39.762
708.74	35.969
709.06	41.039
709.38	42.257
709.70	45.640
710.02	42.433
710.34	40.303
710.66	45.373
710.98	46.591
711.29	40.116
711.61	46.018
711.93	40.385
712.25	48.232
712.57	46.691
712.89	45.329
713.20	42.249
713.52	45.066
713.84	45.253
714.16	44.512
714.48	42.816
714.80	47.112
715.11	42.939
715.43	41.543
715.75	44.058
716.07	45.048
716.39	44.514
716.70	46.844
717.02	46.043
717.34	43.463
717.66	52.985
717.97	53.386
718.29	47.037
718.61	45.985
718.93	50.368
719.24	47.059
719.56	41.695
719.88	48.475
720.20	42.905
720.51	48.432
720.83	45.725
721.15	42.537
721.46	47.872
721.78	50.896
722.10	45.283
722.42	45.865
722.73	44.944
723.05	46.721
723.37	44.130
723.68	44.788
724.00	47.967
724.32	47.984
724.63	47.967
724.95	45.607
725.27	50.202
725.58	48.047
725.90	49.270
726.22	45.283
726.53	46.528
726.85	44.710
727.16	43.060
727.48	45.390
727.80	49.242
728.11	45.652
728.43	44.615
728.74	41.219
729.06	48.175
729.38	46.691
729.69	46.263
730.01	41.297
730.32	43.750
730.64	42.809
730.96	41.914
731.27	41.722
731.59	42.508
731.90	41.399
732.22	38.820
732.53	38.700
732.85	41.346
733.16	39.871
733.48	39.203
733.80	41.234
734.11	42.357
734.43	40.828
734.74	37.429
735.06	38.395
735.37	42.486
735.69	33.439
736.00	44.771
736.32	39.875
736.63	38.978
736.95	45.048
737.26	34.014
737.58	39.677
737.89	41.806
738.21	39.932
738.52	41.071
738.83	43.019
739.15	44.231
739.46	47.445
739.78	42.708
740.09	40.000
740.41	41.290
740.72	44.599
741.04	45.185
741.35	46.250
741.66	49.778
741.98	46.698
742.29	49.761
742.61	51.724
742.92	46.606
743.23	46.154
743.55	49.600
743.86	49.561
744.18	50.442
744.49	53.110
744.80	51.174
745.12	52.727
745.43	50.661
745.74	55.856
746.06	51.376
746.37	54.709
746.68	51.131
747.00	53.241
747.31	50.952
747.62	41.593
747.94	44.934
748.25	41.702
748.56	50.661
748.88	49.010
749.19	56.000
749.50	55.814
749.82	43.902
750.13	43.673
750.44	44.161
750.75	42.456
751.07	44.051
751.38	41.115
751.69	41.877
752.01	46.617
752.32	41.155
752.63	40.426
752.94	44.262
753.26	44.800
753.57	44.309
753.88	48.047
754.19	43.571
754.51	44.444
754.82	42.599
755.13	43.396
755.44	42.105
755.75	43.431
756.07	40.071
756.38	37.591
756.69	36.242
757.00	38.024
757.31	35.608
757.63	35.673
757.94	33.244
758.25	34.314
758.56	34.074
758.87	33.871
759.18	38.788
759.50	38.871
759.81	37.383
760.12	37.187
760.43	35.817
760.74	34.511
761.05	41.525
761.36	37.433
761.67	38.352
761.99	37.578
762.30	44.097
762.61	40.840
762.92	45.312
763.23	46.639
763.54	46.000
763.85	39.453
764.16	44.615
764.47	42.586
764.78	37.809
765.10	35.443
765.41	35.103
765.72	36.527
766.03	38.558
766.34	38.667
766.65	42.979
766.96	47.436
767.27	51.777
767.58	57.812
767.89	51.053
768.20	54.023
768.51	45.685
768.82	40.826
769.13	38.618
769.44	42.510
769.75	42.060
770.06	43.119
770.37	47.059
770.68	40.741
770.99	44.889
771.30	37.705
771.61	47.085
771.92	43.852
772.23	43.697
772.54	46.667
772.85	53.927
773.16	54.255
773.47	52.717
773.78	48.731
774.09	54.167
774.39	53.801
774.70	59.877
775.01	59.420
775.32	65.359
775.63	61.184
775.94	64.029
776.25	64.567
776.56	67.164
776.87	63.934
777.18	67.969
777.48	72.519
777.79	58.333
778.10	71.852
778.41	64.286
778.72	52.555
779.03	59.060
779.34	53.691
779.65	52.703
779.95	52.147
780.26	66.667
780.57	64.828
780.88	67.188
781.19	63.158
781.50	58.784
781.80	55.346
782.11	47.458
782.42	51.899
782.73	54.601
783.04	57.432
783.34	59.155
783.65	69.178
783.96	56.716
784.27	58.042
784.57	55.396
784.88	51.852
785.19	69.048
785.50	62.264
785.81	76.866
786.11	75.410
786.42	72.868
786.73	62.832
787.04	75.472
787.34	67.857
787.65	70.000
787.96	65.766
788.26	70.248
788.57	58.475
788.88	67.769
789.19	62.500
789.49	75.000
789.80	64.885
790.11	80.000
790.41	79.208
790.72	93.976
791.03	84.783
791.33	63.953
791.64	80.412
791.95	79.208
792.25	82.222
792.56	94.805
792.87	94.872
793.17	86.076
793.48	89.655
793.79	81.609
794.09	95.455
794.40	58.824
794.70	66.912
795.01	54.815
795.32	58.993
795.62	65.354
795.93	66.379
796.23	66.372
796.54	75.294
796.85	98.649
797.15	115.493
797.46	100.000
797.76	96.386
798.07	93.671
798.37	110.769
798.68	96.970
798.99	81.690
799.29	98.701
799.60	79.545
799.90	102.740
800.21	104.478
800.51	112.069
800.82	119.298
801.12	96.721
801.43	109.091
801.73	93.243
802.04	115.873
802.34	106.173
802.65	107.812
802.95	103.390
803.26	112.500
803.56	98.571
803.87	96.923
804.17	97.059
804.48	133.333
804.78	100.000
805.09	107.353
805.39	105.769
805.70	107.143
806.00	108.197
806.30	100.000
806.61	104.878
806.91	74.684
807.22	93.421
807.52	74.627
807.83	115.493
808.13	109.375
808.43	111.667
808.74	81.579
809.04	120.290
809.35	98.507
809.65	92.105
809.95	130.645
810.26	96.610
810.56	98.413
810.86	152.273
811.17	150.000
811.47	118.333
811.77	112.963
812.08	136.364
812.38	156.000
812.69	186.111
812.99	172.727
813.29	153.061
813.59	126.190
813.90	148.980
814.20	112.727
814.50	104.615
814.81	122.059
815.11	122.449
815.41	126.230
815.72	150.000
816.02	125.455
816.32	138.095
816.62	142.500
816.93	143.902
817.23	171.429
817.53	134.091
817.84	172.727
818.14	128.261
818.44	137.778
818.74	182.353
819.04	127.500
819.35	165.714
819.65	185.294
819.95	221.429
820.25	280.000
820.56	179.487
820.86	147.727
821.16	132.558
821.46	164.103
821.76	146.000
822.07	171.429
822.37	170.000
822.67	175.758
822.97	150.980
823.27	232.143
823.57	143.243
823.88	160.000
824.18	200.000
824.48	183.333
824.78	264.000
825.08	216.667
825.38	167.568
825.69	165.854
825.99	229.167
826.29	186.207
826.59	173.684
826.89	160.526
827.19	170.588
827.49	203.226
827.79	159.091
828.09	156.818
828.39	110.638
828.70	146.939
829.00	188.889
829.30	158.065
829.60	140.000
829.90	353.333
830.20	189.286
830.50	247.826
830.80	213.043
831.10	203.333
831.40	183.333
831.70	217.391
832.00	203.846
832.30	200.000
832.60	368.750
832.90	210.000
833.20	414.286
833.50	174.194
833.80	210.345
834.10	209.375
834.40	223.077
834.70	305.556
835.00	295.238
835.30	171.429
835.60	369.231
835.90	203.448
836.20	364.286
836.50	196.552
836.80	256.000
837.10	183.333
837.40	271.429
837.70	329.412
838.00	200.000
838.30	271.429
838.60	314.286
838.90	242.308
839.19	305.000
839.49	457.143
839.79	310.000
840.09	270.000
840.39	295.238
840.69	252.174
840.99	288.889
841.29	520.000
841.59	341.667
841.88	375.000
842.18	175.862
842.48	266.667
842.78	206.667
843.08	260.870
843.38	153.125
843.68	850.000
843.97	226.923
844.27	241.379
844.57	271.429
844.87	293.750
845.17	211.111
845.47	1533.333
845.76	533.333
846.06	335.294
846.36	537.500
846.66	400.000
846.96	343.750
847.25	418.182
847.55	381.818
847.85	269.565
848.15	490.000
848.44	385.714
848.74	261.111
849.04	323.529
849.34	560.000
849.63	273.684
849.93	463.636
850.23	1140.000
850.53	450.000
850.82	2500.000
851.12	-4400.000
851.42	5300.000
851.71	285.000
852.01	-1433.333
852.31	237.500
852.61	1566.667
852.90	247.619
853.20	208.000
853.50	341.176
853.79	252.381
854.09	241.667
854.39	318.750
854.68	191.892
854.98	209.677
855.28	183.333
855.57	241.379
855.87	237.037
856.17	268.421
856.46	293.333
856.76	264.706
857.05	234.483
857.35	241.667
857.65	373.333
857.94	260.870
858.24	242.308
858.53	300.000
858.83	286.364
859.13	333.333
859.42	0.000
859.72	555.556
860.01	581.818
860.31	281.818
860.60	294.737
860.90	226.087
861.20	588.889
861.49	583.333
861.79	-4800.000
862.08	587.500
862.38	309.524
862.67	338.462
862.97	394.118
863.26	611.111
863.56	366.667
863.85	441.667
864.15	700.000
864.44	366.667
864.74	933.333
865.03	762.500
865.33	305.263
865.62	409.091
865.92	415.385
866.21	358.333
866.51	0.000
866.80	518.182
867.10	1100.000
867.39	492.308
867.69	418.182
867.98	294.737
868.27	527.273
868.57	310.526
868.86	-3800.000
869.16	331.250
869.45	2600.000
869.75	-4500.000
870.04	508.333
870.33	771.429
870.63	1300.000
870.92	2700.000
871.22	828.571
871.51	382.353
871.80	238.095
872.10	407.143
>>>>>End Processed Spectral Data<<<<<
