SpectraSuite Data File
++++++++++++++++++++++++++++++++++++
Date: Wed May 13 19:45:18 PDT 2015
User: schluterlab
Dark Spectrum Present: Yes
Reference Spectrum Present: Yes
Number of Sampled Component Spectra: 1
Spectrometers: USB2E3373
Integration Time (usec): 3000 (USB2E3373)
Spectra Averaged: 3 (USB2E3373)
Boxcar Smoothing: 0 (USB2E3373)
Correct for Electrical Dark: No (USB2E3373)
Strobe/Lamp Enabled: No (USB2E3373)
Correct for Detector Non-linearity: No (USB2E3373)
Correct for Stray Light: No (USB2E3373)
Number of Pixels in Processed Spectrum: 2048
>>>>>Begin Processed Spectral Data<<<<<
178.53	0.000
178.91	-1275.000
179.29	-1400.000
179.67	-333.333
180.04	-1350.000
180.42	2300.000
180.80	1200.000
181.18	-1025.000
181.56	828.571
181.94	0.000
182.31	-742.857
182.69	1633.333
183.07	-512.500
183.45	-488.889
183.83	463.636
184.20	-360.000
184.58	2100.000
184.96	5900.000
185.34	-960.000
185.72	-700.000
186.09	-2600.000
186.47	2950.000
186.85	2200.000
187.23	4500.000
187.61	-2066.667
187.98	1475.000
188.36	590.909
188.74	463.636
189.12	-800.000
189.49	560.000
189.87	-4800.000
190.25	-1075.000
190.63	392.857
191.00	415.385
191.38	966.667
191.76	-1250.000
192.14	1125.000
192.51	712.500
192.89	883.333
193.27	662.500
193.65	-1275.000
194.02	580.000
194.40	940.000
194.78	610.000
195.15	500.000
195.53	660.000
195.91	-2100.000
196.29	368.750
196.66	273.684
197.04	-310.000
197.42	0.000
197.79	620.000
198.17	-4800.000
198.55	642.857
198.92	650.000
199.30	920.000
199.68	0.000
200.05	333.333
200.43	828.571
200.81	5100.000
201.18	2000.000
201.56	-1666.667
201.94	577.778
202.31	533.333
202.69	475.000
203.07	590.000
203.44	0.000
203.82	1125.000
204.19	757.143
204.57	485.714
204.95	612.500
205.32	1766.667
205.70	581.818
206.08	378.571
206.45	3000.000
206.83	350.000
207.20	916.667
207.58	860.000
207.96	338.889
208.33	687.500
208.71	-916.667
209.08	785.714
209.46	600.000
209.84	518.182
210.21	-1500.000
210.59	1250.000
210.96	-437.500
211.34	2350.000
211.71	680.000
212.09	816.667
212.46	0.000
212.84	1900.000
213.22	1350.000
213.59	-4800.000
213.97	900.000
214.34	900.000
214.72	545.455
215.09	1140.000
215.47	-1850.000
215.84	-2500.000
216.22	1633.333
216.59	335.714
216.97	1300.000
217.34	472.727
217.72	-733.333
218.09	0.000
218.47	-4100.000
218.84	633.333
219.22	628.571
219.59	1733.333
219.97	-742.857
220.34	1300.000
220.72	-2000.000
221.09	385.714
221.47	1500.000
221.84	-966.667
222.22	0.000
222.59	1600.000
222.97	-2800.000
223.34	1020.000
223.72	407.692
224.09	1060.000
224.46	2350.000
224.84	-4300.000
225.21	-1200.000
225.59	-5100.000
225.96	550.000
226.34	290.000
226.71	2100.000
227.08	612.500
227.46	590.000
227.83	-1175.000
228.21	-2250.000
228.58	644.444
228.95	-2250.000
229.33	-2350.000
229.70	1833.333
230.08	814.286
230.45	-980.000
230.82	441.667
231.20	933.333
231.57	685.714
231.95	391.667
232.32	281.818
232.69	390.909
233.07	657.143
233.44	407.692
233.81	-2033.333
234.19	336.842
234.56	516.667
234.93	350.000
235.31	418.182
235.68	438.462
236.05	371.429
236.43	163.636
236.80	310.526
237.17	5400.000
237.55	285.714
237.92	217.857
238.29	242.857
238.67	180.645
239.04	203.448
239.41	144.444
239.79	110.870
240.16	161.905
240.53	145.455
240.91	111.765
241.28	140.000
241.65	140.000
242.02	102.899
242.40	96.774
242.77	110.000
243.14	77.419
243.51	89.888
243.89	85.882
244.26	77.778
244.63	86.022
245.00	65.957
245.38	77.228
245.75	71.963
246.12	68.807
246.49	70.803
246.87	74.400
247.24	67.692
247.61	61.429
247.98	64.706
248.36	57.432
248.73	53.503
249.10	63.057
249.47	56.497
249.84	56.684
250.22	50.802
250.59	58.580
250.96	58.081
251.33	52.607
251.70	51.980
252.08	49.524
252.45	50.673
252.82	46.522
253.19	50.638
253.56	46.275
253.94	48.963
254.31	50.000
254.68	47.308
255.05	48.339
255.42	48.780
255.79	47.794
256.16	48.014
256.54	43.816
256.91	44.484
257.28	42.086
257.65	41.914
258.02	43.168
258.39	42.587
258.76	38.796
259.14	41.369
259.51	39.210
259.88	40.062
260.25	40.785
260.62	40.751
260.99	40.683
261.36	42.342
261.73	41.547
262.10	41.570
262.47	41.690
262.85	42.340
263.22	38.746
263.59	42.165
263.96	40.110
264.33	39.687
264.70	38.684
265.07	38.107
265.44	38.131
265.81	36.740
266.18	40.955
266.55	36.829
266.92	38.821
267.29	37.037
267.66	36.239
268.03	37.273
268.40	39.720
268.77	36.993
269.14	35.586
269.51	37.472
269.88	36.830
270.25	35.440
270.62	37.303
270.99	39.355
271.36	38.627
271.73	35.748
272.10	36.522
272.47	38.710
272.84	37.229
273.21	39.203
273.58	32.314
273.95	32.495
274.32	34.091
274.69	38.116
275.06	33.661
275.43	37.447
275.80	35.872
276.17	36.049
276.54	35.759
276.91	34.783
277.28	35.156
277.65	35.783
278.02	35.818
278.39	38.867
278.76	35.455
279.13	36.226
279.50	33.147
279.87	34.064
280.23	32.136
280.60	33.269
280.97	33.826
281.34	35.398
281.71	34.182
282.08	36.468
282.45	34.545
282.82	34.458
283.19	31.551
283.56	32.982
283.92	35.025
284.29	33.157
284.66	31.942
285.03	32.007
285.40	35.387
285.77	33.502
286.14	33.333
286.51	34.167
286.87	34.701
287.24	33.876
287.61	30.337
287.98	32.305
288.35	29.477
288.72	32.243
289.08	33.020
289.45	31.301
289.82	31.707
290.19	29.984
290.56	29.403
290.93	29.456
291.29	29.601
291.66	31.268
292.03	30.523
292.40	30.543
292.77	27.811
293.13	29.403
293.50	28.717
293.87	28.593
294.24	28.593
294.60	27.511
294.97	27.907
295.34	28.914
295.71	29.403
296.08	26.923
296.44	28.061
296.81	25.627
297.18	27.371
297.55	24.406
297.91	27.441
298.28	27.577
298.65	26.110
299.02	26.482
299.38	24.967
299.75	23.450
300.12	26.054
300.48	25.625
300.85	26.141
301.22	25.732
301.59	25.253
301.95	25.567
302.32	24.390
302.69	24.970
303.05	26.061
303.42	24.815
303.79	23.669
304.15	22.028
304.52	23.754
304.89	24.623
305.25	23.782
305.62	24.122
305.99	24.439
306.35	24.609
306.72	24.664
307.09	24.972
307.45	24.099
307.82	23.772
308.19	24.172
308.55	24.272
308.92	24.168
309.29	25.343
309.65	24.284
310.02	24.736
310.38	25.054
310.75	25.449
311.12	25.281
311.48	24.660
311.85	25.367
312.22	24.974
312.58	24.324
312.95	25.449
313.31	24.175
313.68	25.572
314.05	26.726
314.41	27.538
314.78	26.284
315.14	25.521
315.51	27.497
315.87	26.931
316.24	27.210
316.61	27.778
316.97	28.082
317.34	28.180
317.70	30.497
318.07	30.029
318.43	30.626
318.80	31.678
319.16	30.226
319.53	29.831
319.89	32.667
320.26	32.900
320.62	32.937
320.99	33.737
321.35	34.343
321.72	35.216
322.08	35.933
322.45	37.015
322.81	36.822
323.18	36.609
323.54	36.364
323.91	37.642
324.27	38.910
324.64	41.193
325.00	40.036
325.37	42.675
325.73	41.652
326.10	41.659
326.46	43.280
326.83	45.557
327.19	45.773
327.56	46.341
327.92	47.944
328.29	47.471
328.65	49.355
329.01	47.924
329.38	48.844
329.74	49.677
330.11	51.178
330.47	50.230
330.84	52.574
331.20	51.002
331.56	51.376
331.93	51.944
332.29	51.819
332.66	52.655
333.02	52.194
333.38	53.207
333.75	51.872
334.11	53.114
334.48	52.706
334.84	52.849
335.20	54.000
335.57	52.675
335.93	53.929
336.29	53.388
336.66	54.644
337.02	54.027
337.38	52.963
337.75	52.139
338.11	53.357
338.47	53.959
338.84	55.270
339.20	53.394
339.56	55.566
339.93	54.364
340.29	54.167
340.65	54.724
341.02	54.014
341.38	54.982
341.74	53.421
342.11	55.022
342.47	54.273
342.83	54.281
343.20	55.411
343.56	53.833
343.92	54.386
344.28	54.762
344.65	55.546
345.01	54.125
345.37	53.259
345.73	54.315
346.10	53.623
346.46	55.424
346.82	55.931
347.19	55.472
347.55	52.956
347.91	55.502
348.27	55.957
348.63	55.435
349.00	53.398
349.36	54.844
349.72	53.649
350.08	53.404
350.45	55.167
350.81	53.371
351.17	54.214
351.53	56.020
351.89	54.785
352.26	55.170
352.62	54.370
352.98	53.566
353.34	55.382
353.70	53.601
354.07	54.677
354.43	53.651
354.79	53.982
355.15	53.711
355.51	56.275
355.87	55.347
356.24	54.479
356.60	53.488
356.96	54.385
357.32	54.865
357.68	55.039
358.04	54.157
358.40	54.236
358.77	53.912
359.13	54.538
359.49	54.745
359.85	53.651
360.21	54.705
360.57	55.409
360.93	55.077
361.29	54.800
361.66	54.644
362.02	54.552
362.38	56.122
362.74	55.134
363.10	54.182
363.46	54.952
363.82	56.160
364.18	55.507
364.54	55.572
364.90	55.595
365.26	55.809
365.62	55.442
365.98	54.711
366.35	54.083
366.71	55.965
367.07	56.154
367.43	58.491
367.79	58.173
368.15	56.034
368.51	54.578
368.87	56.317
369.23	56.840
369.59	56.408
369.95	56.397
370.31	56.481
370.67	55.000
371.03	56.479
371.39	55.539
371.75	56.471
372.11	55.334
372.47	56.232
372.83	57.925
373.19	55.853
373.55	57.132
373.91	57.658
374.27	56.220
374.63	56.873
374.99	56.144
375.35	56.664
375.71	56.271
376.07	56.310
376.42	58.184
376.78	57.522
377.14	56.513
377.50	56.623
377.86	55.452
378.22	56.637
378.58	56.140
378.94	56.820
379.30	55.916
379.66	56.853
380.02	56.757
380.38	56.406
380.74	56.663
381.09	56.968
381.45	57.652
381.81	56.265
382.17	57.452
382.53	57.421
382.89	56.914
383.25	55.910
383.61	58.178
383.97	55.034
384.32	56.706
384.68	56.568
385.04	56.915
385.40	56.099
385.76	57.125
386.12	56.736
386.48	58.464
386.83	57.024
387.19	57.761
387.55	56.772
387.91	57.134
388.27	56.836
388.62	56.177
388.98	56.327
389.34	57.384
389.70	56.346
390.06	56.527
390.42	57.328
390.77	55.662
391.13	57.371
391.49	57.170
391.85	57.670
392.20	56.278
392.56	57.513
392.92	57.387
393.28	56.509
393.64	56.715
393.99	55.712
394.35	56.266
394.71	56.775
395.07	55.389
395.42	57.355
395.78	56.107
396.14	55.183
396.50	58.333
396.85	56.898
397.21	55.487
397.57	55.859
397.92	56.490
398.28	54.652
398.64	56.093
399.00	55.512
399.35	55.838
399.71	55.324
400.07	56.002
400.42	55.706
400.78	56.514
401.14	57.195
401.49	56.060
401.85	55.838
402.21	55.210
402.57	55.768
402.92	55.927
403.28	57.152
403.63	54.889
403.99	56.624
404.35	55.818
404.70	56.055
405.06	55.387
405.42	56.394
405.77	55.371
406.13	54.515
406.49	55.529
406.84	54.460
407.20	55.851
407.55	55.967
407.91	56.867
408.27	55.712
408.62	53.943
408.98	55.331
409.34	55.474
409.69	56.194
410.05	55.390
410.40	55.291
410.76	54.421
411.11	53.981
411.47	54.441
411.83	55.040
412.18	54.298
412.54	55.791
412.89	53.675
413.25	54.486
413.60	55.713
413.96	55.373
414.31	53.949
414.67	54.880
415.03	55.894
415.38	54.897
415.74	55.113
416.09	56.042
416.45	55.622
416.80	55.651
417.16	55.027
417.51	55.209
417.87	54.978
418.22	55.142
418.58	54.551
418.93	55.221
419.29	53.596
419.64	54.912
420.00	54.329
420.35	53.101
420.71	55.170
421.06	55.012
421.42	54.737
421.77	54.652
422.12	54.015
422.48	53.535
422.83	54.397
423.19	53.536
423.54	54.730
423.90	53.739
424.25	53.266
424.61	54.226
424.96	55.277
425.31	53.267
425.67	53.539
426.02	54.457
426.38	55.983
426.73	54.359
427.09	54.529
427.44	54.629
427.79	53.767
428.15	53.929
428.50	54.125
428.85	54.648
429.21	53.562
429.56	53.810
429.92	53.699
430.27	52.632
430.62	53.251
430.98	53.243
431.33	52.835
431.68	54.084
432.04	53.195
432.39	53.798
432.74	55.595
433.10	54.669
433.45	54.752
433.80	53.769
434.16	53.205
434.51	54.579
434.86	55.758
435.22	54.475
435.57	55.076
435.92	53.950
436.28	54.448
436.63	54.305
436.98	53.978
437.34	56.112
437.69	55.018
438.04	54.188
438.39	54.030
438.75	54.794
439.10	55.140
439.45	54.782
439.81	55.166
440.16	53.698
440.51	54.833
440.86	55.298
441.22	54.449
441.57	54.936
441.92	55.118
442.27	55.005
442.63	52.554
442.98	55.099
443.33	54.185
443.68	54.362
444.03	53.831
444.39	53.359
444.74	54.654
445.09	54.717
445.44	54.729
445.79	54.280
446.15	54.791
446.50	54.066
446.85	53.803
447.20	54.513
447.55	55.221
447.91	53.833
448.26	54.368
448.61	53.985
448.96	54.374
449.31	56.018
449.66	54.192
450.02	53.816
450.37	53.685
450.72	55.048
451.07	54.662
451.42	54.407
451.77	54.610
452.12	53.984
452.47	54.975
452.83	54.662
453.18	55.440
453.53	54.545
453.88	55.227
454.23	55.230
454.58	55.603
454.93	56.008
455.28	55.050
455.63	54.066
455.98	56.310
456.34	55.339
456.69	55.041
457.04	55.046
457.39	54.530
457.74	54.440
458.09	54.284
458.44	55.302
458.79	52.983
459.14	54.063
459.49	55.225
459.84	53.961
460.19	53.860
460.54	53.530
460.89	53.648
461.24	55.009
461.59	54.271
461.94	52.404
462.29	56.202
462.64	54.244
462.99	53.676
463.34	55.267
463.69	55.222
464.04	54.377
464.39	53.971
464.74	53.951
465.09	52.232
465.44	52.465
465.79	53.076
466.14	52.381
466.49	51.446
466.84	53.882
467.19	52.746
467.54	53.812
467.89	52.401
468.24	53.578
468.59	54.945
468.94	51.924
469.29	54.563
469.64	54.418
469.99	56.360
470.34	54.095
470.68	53.879
471.03	54.490
471.38	55.177
471.73	53.031
472.08	55.066
472.43	54.460
472.78	53.588
473.13	53.594
473.48	54.432
473.83	53.720
474.17	53.205
474.52	53.598
474.87	54.466
475.22	53.569
475.57	52.015
475.92	52.576
476.27	53.551
476.61	52.179
476.96	53.161
477.31	52.852
477.66	53.337
478.01	51.960
478.36	53.358
478.70	52.908
479.05	52.023
479.40	52.456
479.75	52.567
480.10	52.038
480.45	52.070
480.79	51.218
481.14	52.740
481.49	52.587
481.84	51.715
482.19	51.295
482.53	51.697
482.88	52.117
483.23	53.084
483.58	51.911
483.92	52.156
484.27	50.806
484.62	51.034
484.97	50.453
485.31	50.171
485.66	47.861
486.01	47.550
486.36	45.939
486.70	45.809
487.05	46.549
487.40	47.829
487.75	47.837
488.09	48.165
488.44	49.233
488.79	50.958
489.13	50.955
489.48	51.754
489.83	51.316
490.17	51.907
490.52	51.506
490.87	51.199
491.22	52.024
491.56	50.524
491.91	51.838
492.26	50.850
492.60	50.323
492.95	51.731
493.30	50.701
493.64	50.537
493.99	49.721
494.34	50.694
494.68	51.465
495.03	51.081
495.37	51.000
495.72	51.803
496.07	50.348
496.41	49.558
496.76	50.352
497.11	50.653
497.45	50.722
497.80	51.536
498.14	50.242
498.49	50.244
498.84	50.575
499.18	50.048
499.53	50.950
499.87	49.814
500.22	50.400
500.56	52.039
500.91	50.385
501.26	51.019
501.60	51.305
501.95	49.450
502.29	50.937
502.64	50.745
502.98	49.743
503.33	49.132
503.67	48.770
504.02	49.766
504.36	49.509
504.71	50.122
505.06	50.120
505.40	50.316
505.75	50.434
506.09	49.708
506.44	50.814
506.78	49.245
507.13	51.035
507.47	50.051
507.82	51.469
508.16	51.064
508.51	52.055
508.85	49.702
509.19	50.153
509.54	49.949
509.88	49.408
510.23	51.568
510.57	51.445
510.92	49.508
511.26	50.462
511.61	50.726
511.95	49.582
512.30	50.530
512.64	49.919
512.98	50.750
513.33	50.642
513.67	49.520
514.02	49.621
514.36	49.754
514.70	50.968
515.05	51.534
515.39	51.430
515.74	50.845
516.08	50.978
516.42	50.111
516.77	51.226
517.11	51.221
517.46	51.354
517.80	51.858
518.14	50.608
518.49	51.925
518.83	50.966
519.17	50.635
519.52	50.990
519.86	50.599
520.20	51.156
520.55	53.262
520.89	52.251
521.23	52.533
521.58	51.321
521.92	51.500
522.26	50.153
522.61	51.900
522.95	51.934
523.29	53.074
523.64	51.768
523.98	51.386
524.32	51.448
524.66	50.571
525.01	50.490
525.35	51.487
525.69	50.924
526.04	52.648
526.38	51.251
526.72	51.411
527.06	51.915
527.41	49.814
527.75	52.347
528.09	51.830
528.43	51.880
528.78	51.875
529.12	50.788
529.46	51.378
529.80	52.475
530.15	52.087
530.49	51.138
530.83	51.646
531.17	52.285
531.51	52.659
531.86	51.548
532.20	52.282
532.54	52.210
532.88	51.733
533.22	51.593
533.57	49.877
533.91	49.789
534.25	51.154
534.59	51.312
534.93	49.554
535.27	51.358
535.62	50.488
535.96	51.161
536.30	50.731
536.64	51.835
536.98	51.095
537.32	51.415
537.66	51.667
538.01	52.205
538.35	49.709
538.69	52.585
539.03	49.968
539.37	49.137
539.71	49.320
540.05	50.065
540.39	51.429
540.73	50.194
541.07	51.914
541.42	50.489
541.76	51.742
542.10	52.523
542.44	51.060
542.78	51.845
543.12	50.096
543.46	50.623
543.80	51.854
544.14	49.615
544.48	50.857
544.82	50.225
545.16	52.245
545.50	49.871
545.84	51.075
546.18	51.313
546.52	51.549
546.86	52.165
547.20	50.843
547.54	51.837
547.88	50.383
548.22	50.560
548.56	51.069
548.90	49.680
549.24	49.764
549.58	52.660
549.92	51.511
550.26	52.202
550.60	51.936
550.94	50.000
551.28	50.695
551.62	50.683
551.96	51.860
552.30	51.536
552.64	50.845
552.98	50.508
553.32	50.371
553.66	51.125
554.00	51.064
554.34	50.380
554.68	52.289
555.02	52.468
555.36	50.174
555.69	49.391
556.03	50.404
556.37	51.160
556.71	49.659
557.05	50.770
557.39	49.545
557.73	51.306
558.07	52.139
558.41	50.000
558.75	51.433
559.08	52.125
559.42	52.381
559.76	51.250
560.10	49.179
560.44	49.196
560.78	49.301
561.12	50.066
561.45	49.804
561.79	50.099
562.13	49.363
562.47	50.342
562.81	50.488
563.15	49.565
563.48	50.066
563.82	49.380
564.16	50.360
564.50	49.740
564.84	48.167
565.17	49.099
565.51	49.840
565.85	48.477
566.19	48.716
566.52	49.715
566.86	47.016
567.20	47.818
567.54	47.374
567.88	47.040
568.21	48.042
568.55	46.866
568.89	46.449
569.23	45.544
569.56	44.413
569.90	43.283
570.24	43.344
570.57	43.047
570.91	42.405
571.25	42.125
571.59	42.239
571.92	41.388
572.26	41.768
572.60	42.012
572.93	41.139
573.27	41.437
573.61	41.011
573.95	41.473
574.28	40.879
574.62	40.428
574.96	41.099
575.29	40.664
575.63	40.422
575.97	40.562
576.30	40.998
576.64	40.359
576.98	40.204
577.31	39.903
577.65	39.370
577.98	40.611
578.32	39.039
578.66	39.665
578.99	40.310
579.33	40.136
579.67	39.017
580.00	39.559
580.34	39.986
580.67	40.038
581.01	39.667
581.35	39.681
581.68	39.111
582.02	38.744
582.35	39.005
582.69	38.810
583.02	39.402
583.36	39.359
583.70	40.285
584.03	40.204
584.37	41.001
584.70	40.204
585.04	39.506
585.37	39.119
585.71	39.732
586.04	39.768
586.38	40.230
586.72	40.403
587.05	39.690
587.39	39.235
587.72	39.809
588.06	39.755
588.39	40.082
588.73	40.158
589.06	40.947
589.40	40.976
589.73	41.746
590.07	40.641
590.40	41.067
590.73	41.452
591.07	41.351
591.40	42.261
591.74	42.771
592.07	41.754
592.41	41.959
592.74	41.011
593.08	40.706
593.41	40.620
593.75	38.882
594.08	39.088
594.41	40.862
594.75	40.813
595.08	40.515
595.42	40.280
595.75	40.100
596.09	41.119
596.42	41.415
596.75	41.157
597.09	42.251
597.42	40.008
597.75	41.958
598.09	41.739
598.42	40.034
598.76	40.576
599.09	39.985
599.42	39.629
599.76	40.849
600.09	39.271
600.42	40.467
600.76	39.571
601.09	39.454
601.42	40.715
601.76	39.469
602.09	40.395
602.42	40.844
602.76	41.072
603.09	41.149
603.42	40.922
603.76	40.244
604.09	40.248
604.42	40.277
604.76	40.700
605.09	41.153
605.42	41.086
605.75	40.935
606.09	40.016
606.42	40.008
606.75	40.232
607.09	40.728
607.42	40.779
607.75	39.367
608.08	40.512
608.42	40.385
608.75	39.856
609.08	40.287
609.41	40.980
609.75	40.972
610.08	40.905
610.41	41.434
610.74	41.060
611.07	42.441
611.41	41.757
611.74	41.931
612.07	41.511
612.40	41.973
612.73	41.158
613.07	41.810
613.40	41.759
613.73	39.643
614.06	42.097
614.39	41.374
614.72	40.842
615.06	41.544
615.39	40.870
615.72	41.155
616.05	41.201
616.38	41.356
616.71	42.518
617.05	42.580
617.38	43.175
617.71	43.063
618.04	42.248
618.37	41.632
618.70	42.750
619.03	43.421
619.36	42.770
619.69	43.310
620.03	43.407
620.36	43.917
620.69	43.014
621.02	44.027
621.35	44.479
621.68	44.159
622.01	44.814
622.34	43.268
622.67	43.802
623.00	43.360
623.33	42.673
623.66	44.246
623.99	43.888
624.32	43.438
624.65	43.008
624.99	43.414
625.32	43.519
625.65	43.276
625.98	44.120
626.31	45.179
626.64	44.898
626.97	46.052
627.30	44.555
627.63	44.627
627.96	45.837
628.29	45.494
628.62	47.392
628.95	46.509
629.28	46.077
629.61	46.929
629.94	47.714
630.26	46.997
630.59	46.425
630.92	46.456
631.25	46.101
631.58	47.748
631.91	47.972
632.24	46.308
632.57	48.374
632.90	48.684
633.23	49.329
633.56	48.023
633.89	49.604
634.22	48.922
634.55	49.941
634.88	47.784
635.20	49.104
635.53	50.482
635.86	51.980
636.19	47.647
636.52	47.290
636.85	48.568
637.18	47.465
637.51	49.409
637.83	46.363
638.16	49.233
638.49	50.378
638.82	49.558
639.15	48.500
639.48	49.501
639.81	50.536
640.13	50.911
640.46	50.604
640.79	49.009
641.12	49.794
641.45	49.162
641.77	52.872
642.10	50.292
642.43	50.751
642.76	52.941
643.09	51.687
643.41	50.531
643.74	53.704
644.07	50.152
644.40	53.067
644.73	51.811
645.05	52.932
645.38	52.449
645.71	51.530
646.04	52.492
646.36	53.255
646.69	53.177
647.02	53.061
647.35	55.326
647.67	53.628
648.00	51.545
648.33	51.155
648.66	49.697
648.98	49.325
649.31	49.477
649.64	50.673
649.96	48.882
650.29	52.133
650.62	48.867
650.94	51.702
651.27	53.041
651.60	49.418
651.92	48.562
652.25	51.303
652.58	50.312
652.90	52.923
653.23	47.920
653.56	47.874
653.88	50.555
654.21	50.237
654.54	50.660
654.86	48.442
655.19	46.892
655.52	31.560
655.84	29.168
656.17	37.582
656.49	50.233
656.82	50.849
657.15	37.966
657.47	28.225
657.80	21.325
658.13	21.955
658.45	32.257
658.78	32.682
659.10	33.932
659.43	36.079
659.75	37.159
660.08	41.266
660.41	46.648
660.73	49.936
661.06	49.045
661.38	51.818
661.71	54.038
662.03	55.621
662.36	52.087
662.68	57.229
663.01	53.333
663.33	56.051
663.66	53.571
663.98	54.212
664.31	53.782
664.63	53.036
664.96	50.302
665.28	55.738
665.61	53.216
665.93	52.314
666.26	50.913
666.58	55.649
666.91	55.391
667.23	56.629
667.56	50.108
667.88	56.838
668.21	55.650
668.53	55.531
668.86	54.329
669.18	55.864
669.50	52.826
669.83	55.991
670.15	54.000
670.48	51.852
670.80	54.741
671.13	53.928
671.45	50.426
671.77	54.175
672.10	51.941
672.42	48.233
672.75	46.932
673.07	50.176
673.39	49.367
673.72	50.781
674.04	51.961
674.37	50.485
674.69	50.716
675.01	49.791
675.34	55.852
675.66	54.526
675.98	53.564
676.31	51.681
676.63	50.743
676.95	53.878
677.28	53.505
677.60	52.527
677.92	53.797
678.25	53.388
678.57	49.203
678.89	51.303
679.22	50.884
679.54	50.382
679.86	49.358
680.18	48.658
680.51	50.355
680.83	47.331
681.15	47.547
681.48	51.229
681.80	50.484
682.12	47.893
682.44	49.710
682.77	49.898
683.09	52.361
683.41	51.441
683.73	50.552
684.06	51.653
684.38	48.728
684.70	49.419
685.02	48.968
685.34	47.985
685.67	44.755
685.99	44.674
686.31	46.075
686.63	45.760
686.96	46.250
687.28	45.668
687.60	45.833
687.92	48.080
688.24	48.479
688.56	52.811
688.89	50.415
689.21	51.965
689.53	48.434
689.85	53.437
690.17	48.033
690.49	48.408
690.82	50.701
691.14	52.232
691.46	50.633
691.78	48.795
692.10	51.240
692.42	47.705
692.74	48.133
693.06	50.213
693.39	49.281
693.71	46.943
694.03	49.263
694.35	50.866
694.67	47.368
694.99	51.707
695.31	50.735
695.63	50.957
695.95	53.545
696.27	51.523
696.59	51.813
696.91	53.886
697.23	45.070
697.56	50.533
697.88	43.967
698.20	48.333
698.52	47.097
698.84	50.334
699.16	48.848
699.48	50.831
699.80	50.483
700.12	55.844
700.44	54.642
700.76	49.724
701.08	53.448
701.40	51.117
701.72	59.184
702.04	58.239
702.36	50.425
702.68	52.408
703.00	52.909
703.32	48.936
703.64	53.887
703.96	51.532
704.28	53.779
704.60	53.959
704.91	59.050
705.23	55.425
705.55	56.811
705.87	60.133
706.19	57.244
706.51	57.009
706.83	53.333
707.15	51.261
707.47	48.990
707.79	52.826
708.11	49.315
708.43	47.143
708.74	47.449
709.06	52.987
709.38	50.394
709.70	56.686
710.02	55.490
710.34	51.515
710.66	57.015
710.98	53.693
711.29	50.872
711.61	56.342
711.93	51.603
712.25	54.662
712.57	61.765
712.89	55.363
713.20	56.231
713.52	57.895
713.84	56.962
714.16	50.610
714.48	54.023
714.80	57.751
715.11	53.602
715.43	52.226
715.75	51.014
716.07	54.313
716.39	53.292
716.70	56.478
717.02	58.633
717.34	53.710
717.66	60.075
717.97	62.151
718.29	57.037
718.61	56.569
718.93	59.191
719.24	56.747
719.56	52.881
719.88	53.220
720.20	56.419
720.51	55.401
720.83	57.249
721.15	58.209
721.46	55.674
721.78	56.272
722.10	63.774
722.42	58.271
722.73	54.682
723.05	61.066
723.37	60.729
723.68	58.687
724.00	55.691
724.32	59.677
724.63	58.537
724.95	55.649
725.27	58.300
725.58	59.375
725.90	55.474
726.22	55.849
726.53	54.167
726.85	54.266
727.16	49.110
727.48	60.638
727.80	54.167
728.11	52.174
728.43	56.538
728.74	50.896
729.06	60.949
729.38	58.456
729.69	52.669
730.01	49.829
730.32	51.042
730.64	52.508
730.96	49.835
731.27	53.974
731.59	51.070
731.90	52.187
732.22	49.379
732.53	45.201
732.85	49.359
733.16	51.447
733.48	51.163
733.80	50.649
734.11	55.096
734.43	49.408
734.74	48.857
735.06	47.851
735.37	48.844
735.69	47.771
736.00	50.327
736.32	52.336
736.63	46.326
736.95	49.840
737.26	47.279
737.58	51.290
737.89	52.174
738.21	51.195
738.52	50.000
738.83	50.189
739.15	51.923
739.46	50.365
739.78	59.028
740.09	49.538
740.41	52.581
740.72	48.084
741.04	52.593
741.35	52.917
741.66	61.333
741.98	56.604
742.29	61.722
742.61	59.052
742.92	61.538
743.23	56.838
743.55	54.000
743.86	59.211
744.18	63.274
744.49	61.244
744.80	63.380
745.12	67.273
745.43	57.709
745.74	59.910
746.06	61.009
746.37	60.090
746.68	57.466
747.00	66.204
747.31	62.857
747.62	53.097
747.94	54.185
748.25	54.043
748.56	57.269
748.88	57.921
749.19	63.500
749.50	64.186
749.82	52.439
750.13	55.102
750.44	50.000
750.75	56.491
751.07	52.412
751.38	54.704
751.69	53.430
752.01	54.887
752.32	49.819
752.63	53.546
752.94	56.557
753.26	59.600
753.57	53.252
753.88	58.594
754.19	51.429
754.51	52.083
754.82	49.097
755.13	54.717
755.44	52.256
755.75	56.569
756.07	48.227
756.38	51.825
756.69	47.651
757.00	47.605
757.31	43.917
757.63	46.491
757.94	44.772
758.25	41.912
758.56	42.963
758.87	43.280
759.18	46.970
759.50	46.708
759.81	47.352
760.12	48.125
760.43	46.991
760.74	46.467
761.05	51.130
761.36	40.909
761.67	48.580
761.99	49.068
762.30	52.083
762.61	54.580
762.92	51.953
763.23	54.622
763.54	57.600
763.85	55.078
764.16	54.615
764.47	57.034
764.78	46.290
765.10	45.253
765.41	46.018
765.72	47.305
766.03	48.276
766.34	49.667
766.65	61.277
766.96	47.863
767.27	62.944
767.58	57.292
767.89	60.526
768.20	64.943
768.51	57.360
768.82	57.798
769.13	55.691
769.44	53.441
769.75	54.077
770.06	55.046
770.37	59.729
770.68	57.407
770.99	51.111
771.30	55.738
771.61	55.157
771.92	52.049
772.23	58.403
772.54	50.769
772.85	64.921
773.16	56.915
773.47	61.413
773.78	63.452
774.09	59.524
774.39	60.819
774.70	57.407
775.01	79.710
775.32	77.124
775.63	73.684
775.94	67.626
776.25	79.528
776.56	82.836
776.87	74.590
777.18	75.781
777.48	69.466
777.79	74.242
778.10	75.556
778.41	77.679
778.72	65.693
779.03	71.812
779.34	65.772
779.65	68.243
779.95	65.031
780.26	64.052
780.57	73.793
780.88	82.812
781.19	72.180
781.50	76.351
781.80	69.811
782.11	58.757
782.42	60.127
782.73	58.282
783.04	68.243
783.34	71.127
783.65	74.658
783.96	70.149
784.27	69.231
784.57	60.432
784.88	83.333
785.19	69.841
785.50	87.736
785.81	71.642
786.11	82.787
786.42	68.217
786.73	74.336
787.04	80.189
787.34	75.893
787.65	90.000
787.96	72.072
788.26	72.727
788.57	79.661
788.88	80.165
789.19	72.222
789.49	81.061
789.80	71.756
790.11	88.571
790.41	91.089
790.72	95.181
791.03	84.783
791.33	88.372
791.64	91.753
791.95	84.158
792.25	102.222
792.56	109.091
792.87	116.667
793.17	106.329
793.48	109.195
793.79	93.103
794.09	89.773
794.40	72.269
794.70	71.324
795.01	71.111
795.32	63.309
795.62	71.654
795.93	75.000
796.23	76.991
796.54	95.294
796.85	100.000
797.15	123.944
797.46	89.394
797.76	87.952
798.07	92.405
798.37	115.385
798.68	100.000
798.99	90.141
799.29	83.117
799.60	96.591
799.90	117.808
800.21	105.970
800.51	110.345
800.82	135.088
801.12	116.393
801.43	113.636
801.73	102.703
802.04	111.111
802.34	104.938
802.65	112.500
802.95	144.068
803.26	126.563
803.56	114.286
803.87	109.231
804.17	120.588
804.48	150.000
804.78	105.172
805.09	92.647
805.39	123.077
805.70	123.214
806.00	121.311
806.30	106.061
806.61	97.561
806.91	82.278
807.22	98.684
807.52	86.567
807.83	111.268
808.13	112.500
808.43	110.000
808.74	90.789
809.04	117.391
809.35	111.940
809.65	98.684
809.95	130.645
810.26	115.254
810.56	117.460
810.86	154.545
811.17	180.952
811.47	133.333
811.77	125.926
812.08	114.545
812.38	132.000
812.69	169.444
812.99	165.909
813.29	140.816
813.59	133.333
813.90	138.776
814.20	129.091
814.50	110.769
814.81	114.706
815.11	128.571
815.41	126.230
815.72	157.143
816.02	123.636
816.32	135.714
816.62	157.500
816.93	153.659
817.23	150.000
817.53	138.636
817.84	196.970
818.14	141.304
818.44	131.111
818.74	194.118
819.04	152.500
819.35	160.000
819.65	211.765
819.95	214.286
820.25	240.000
820.56	161.538
820.86	143.182
821.16	174.419
821.46	141.026
821.76	154.000
822.07	157.143
822.37	175.000
822.67	215.152
822.97	129.412
823.27	200.000
823.57	178.378
823.88	182.500
824.18	220.000
824.48	173.810
824.78	204.000
825.08	225.000
825.38	164.865
825.69	139.024
825.99	250.000
826.29	186.207
826.59	184.211
826.89	176.316
827.19	170.588
827.49	193.548
827.79	175.000
828.09	136.364
828.39	146.809
828.70	138.776
829.00	211.111
829.30	164.516
829.60	152.500
829.90	353.333
830.20	185.714
830.50	204.348
830.80	278.261
831.10	196.667
831.40	193.333
831.70	221.739
832.00	238.462
832.30	214.815
832.60	337.500
832.90	216.667
833.20	414.286
833.50	200.000
833.80	217.241
834.10	240.625
834.40	250.000
834.70	311.111
835.00	290.476
835.30	211.429
835.60	361.538
835.90	203.448
836.20	371.429
836.50	224.138
836.80	220.000
837.10	194.444
837.40	261.905
837.70	335.294
838.00	233.333
838.30	285.714
838.60	314.286
838.90	234.615
839.19	305.000
839.49	450.000
839.79	310.000
840.09	315.000
840.39	323.810
840.69	243.478
840.99	333.333
841.29	440.000
841.59	350.000
841.88	356.250
842.18	220.690
842.48	276.190
842.78	193.333
843.08	243.478
843.38	184.375
843.68	933.333
843.97	250.000
844.27	193.103
844.57	300.000
844.87	406.250
845.17	214.815
845.47	1466.667
845.76	588.889
846.06	347.059
846.36	550.000
846.66	392.857
846.96	275.000
847.25	436.364
847.55	400.000
847.85	265.217
848.15	570.000
848.44	400.000
848.74	305.556
849.04	370.588
849.34	500.000
849.63	252.632
849.93	472.727
850.23	1140.000
850.53	442.857
850.82	2800.000
851.12	-5400.000
851.42	5600.000
851.71	265.000
852.01	-1466.667
852.31	275.000
852.61	1700.000
852.90	304.762
853.20	204.000
853.50	311.765
853.79	285.714
854.09	204.167
854.39	412.500
854.68	181.081
854.98	203.226
855.28	166.667
855.57	251.724
855.87	225.926
856.17	268.421
856.46	326.667
856.76	335.294
857.05	220.690
857.35	262.500
857.65	353.333
857.94	247.826
858.24	226.923
858.53	345.000
858.83	286.364
859.13	300.000
859.42	0.000
859.72	611.111
860.01	409.091
860.31	268.182
860.60	252.632
860.90	239.130
861.20	577.778
861.49	558.333
861.79	-4600.000
862.08	600.000
862.38	295.238
862.67	392.308
862.97	364.706
863.26	566.667
863.56	322.222
863.85	425.000
864.15	562.500
864.44	406.667
864.74	966.667
865.03	650.000
865.33	310.526
865.62	436.364
865.92	438.462
866.21	366.667
866.51	0.000
866.80	436.364
867.10	1260.000
867.39	453.846
867.69	500.000
867.98	289.474
868.27	509.091
868.57	315.789
868.86	-4800.000
869.16	368.750
869.45	2400.000
869.75	-4700.000
870.04	433.333
870.33	657.143
870.63	1050.000
870.92	2600.000
871.22	800.000
871.51	341.176
871.80	247.619
872.10	421.429
>>>>>End Processed Spectral Data<<<<<
