SpectraSuite Data File
++++++++++++++++++++++++++++++++++++
Date: Wed May 13 19:58:57 PDT 2015
User: schluterlab
Dark Spectrum Present: Yes
Reference Spectrum Present: Yes
Number of Sampled Component Spectra: 1
Spectrometers: USB2E3373
Integration Time (usec): 3000 (USB2E3373)
Spectra Averaged: 3 (USB2E3373)
Boxcar Smoothing: 0 (USB2E3373)
Correct for Electrical Dark: No (USB2E3373)
Strobe/Lamp Enabled: No (USB2E3373)
Correct for Detector Non-linearity: No (USB2E3373)
Correct for Stray Light: No (USB2E3373)
Number of Pixels in Processed Spectrum: 2048
>>>>>Begin Processed Spectral Data<<<<<
178.53	0.000
178.91	-1325.000
179.29	-1400.000
179.67	-205.556
180.04	-1275.000
180.42	2500.000
180.80	1040.000
181.18	-950.000
181.56	628.571
181.94	0.000
182.31	-671.429
182.69	1366.667
183.07	-575.000
183.45	-544.444
183.83	490.909
184.20	-370.000
184.58	2400.000
184.96	4600.000
185.34	-840.000
185.72	-475.000
186.09	-2150.000
186.47	2300.000
186.85	2500.000
187.23	4200.000
187.61	-1433.333
187.98	1325.000
188.36	481.818
188.74	490.909
189.12	-880.000
189.49	470.000
189.87	-4900.000
190.25	-1200.000
190.63	428.571
191.00	407.692
191.38	816.667
191.76	-975.000
192.14	1525.000
192.51	612.500
192.89	983.333
193.27	562.500
193.65	-1000.000
194.02	540.000
194.40	840.000
194.78	470.000
195.15	450.000
195.53	640.000
195.91	-2300.000
196.29	356.250
196.66	315.789
197.04	-390.000
197.42	0.000
197.79	540.000
198.17	-4200.000
198.55	742.857
198.92	800.000
199.30	900.000
199.68	0.000
200.05	377.778
200.43	857.143
200.81	4700.000
201.18	1566.667
201.56	-1666.667
201.94	600.000
202.31	588.889
202.69	441.667
203.07	550.000
203.44	0.000
203.82	1225.000
204.19	785.714
204.57	407.143
204.95	675.000
205.32	2066.667
205.70	545.455
206.08	342.857
206.45	2100.000
206.83	381.250
207.20	900.000
207.58	860.000
207.96	350.000
208.33	675.000
208.71	-716.667
209.08	842.857
209.46	533.333
209.84	381.818
210.21	-1333.333
210.59	1350.000
210.96	-462.500
211.34	2650.000
211.71	530.000
212.09	716.667
212.46	0.000
212.84	1900.000
213.22	1300.000
213.59	-3700.000
213.97	683.333
214.34	757.143
214.72	563.636
215.09	1000.000
215.47	-2450.000
215.84	-2550.000
216.22	1766.667
216.59	357.143
216.97	1375.000
217.34	572.727
217.72	-783.333
218.09	0.000
218.47	-4200.000
218.84	566.667
219.22	614.286
219.59	1700.000
219.97	-628.571
220.34	980.000
220.72	-1466.667
221.09	378.571
221.47	1350.000
221.84	-900.000
222.22	0.000
222.59	1250.000
222.97	-2450.000
223.34	1100.000
223.72	361.538
224.09	1060.000
224.46	2100.000
224.84	-4300.000
225.21	-940.000
225.59	-5500.000
225.96	540.000
226.34	280.000
226.71	2650.000
227.08	737.500
227.46	500.000
227.83	-1125.000
228.21	-2350.000
228.58	622.222
228.95	-2600.000
229.33	-2200.000
229.70	1766.667
230.08	757.143
230.45	-780.000
230.82	483.333
231.20	716.667
231.57	657.143
231.95	408.333
232.32	263.636
232.69	372.727
233.07	642.857
233.44	292.308
233.81	-1833.333
234.19	268.421
234.56	358.333
234.93	358.333
235.31	409.091
235.68	353.846
236.05	328.571
236.43	163.636
236.80	205.263
237.17	3500.000
237.55	185.714
237.92	192.857
238.29	214.286
238.67	141.935
239.04	168.966
239.41	133.333
239.79	115.217
240.16	107.143
240.53	106.818
240.91	84.314
241.28	80.000
241.65	94.000
242.02	86.957
242.40	62.903
242.77	63.333
243.14	61.290
243.51	68.539
243.89	50.588
244.26	42.222
244.63	49.462
245.00	38.298
245.38	44.554
245.75	40.187
246.12	35.780
246.49	45.985
246.87	48.800
247.24	43.077
247.61	44.286
247.98	43.137
248.36	27.027
248.73	30.573
249.10	35.032
249.47	31.073
249.84	30.481
250.22	31.016
250.59	26.627
250.96	24.747
251.33	26.066
251.70	27.228
252.08	23.810
252.45	21.525
252.82	23.913
253.19	21.277
253.56	23.922
253.94	24.896
254.31	21.875
254.68	23.462
255.05	21.402
255.42	19.919
255.79	17.279
256.16	21.661
256.54	19.435
256.91	19.217
257.28	12.590
257.65	17.162
258.02	18.634
258.39	16.404
258.76	16.054
259.14	16.071
259.51	15.805
259.88	13.665
260.25	15.710
260.62	16.763
260.99	14.596
261.36	15.916
261.73	10.602
262.10	14.244
262.47	18.310
262.85	14.206
263.22	13.675
263.59	15.670
263.96	10.989
264.33	15.405
264.70	14.474
265.07	12.532
265.44	12.374
265.81	11.436
266.18	15.075
266.55	9.512
266.92	15.971
267.29	14.120
267.66	11.468
268.03	12.273
268.40	11.449
268.77	12.172
269.14	12.838
269.51	12.867
269.88	12.587
270.25	9.707
270.62	13.483
270.99	14.194
271.36	14.163
271.73	11.682
272.10	10.435
272.47	11.828
272.84	12.987
273.21	14.465
273.58	10.917
273.95	10.273
274.32	9.298
274.69	11.563
275.06	10.039
275.43	12.553
275.80	12.224
276.17	10.183
276.54	12.682
276.91	11.858
277.28	10.352
277.65	12.186
278.02	8.489
278.39	9.766
278.76	10.909
279.13	9.623
279.50	9.683
279.87	10.359
280.23	11.377
280.60	9.284
280.97	9.427
281.34	10.088
281.71	11.273
282.08	8.829
282.45	8.727
282.82	10.124
283.19	10.160
283.56	9.298
283.92	11.168
284.29	8.818
284.66	9.982
285.03	9.403
285.40	9.859
285.77	9.764
286.14	8.463
286.51	10.500
286.87	6.838
287.24	10.586
287.61	8.186
287.98	9.416
288.35	10.777
288.72	9.813
289.08	9.546
289.45	8.402
289.82	8.618
290.19	7.692
290.56	8.729
290.93	7.704
291.29	8.896
291.66	8.112
292.03	10.756
292.40	9.985
292.77	7.249
293.13	8.060
293.50	7.143
293.87	7.407
294.24	7.704
294.60	8.734
294.97	9.302
295.34	9.309
295.71	7.955
296.08	8.262
296.44	6.602
296.81	7.266
297.18	8.943
297.55	6.069
297.91	6.069
298.28	8.835
298.65	8.225
299.02	7.905
299.38	6.375
299.75	5.526
300.12	5.619
300.48	6.875
300.85	6.782
301.22	7.389
301.59	6.187
301.95	6.801
302.32	6.804
302.69	6.810
303.05	6.061
303.42	6.173
303.79	5.210
304.15	5.594
304.52	5.910
304.89	5.226
305.25	5.916
305.62	5.889
305.99	7.792
306.35	5.369
306.72	5.942
307.09	7.214
307.45	6.081
307.82	6.138
308.19	7.285
308.55	6.904
308.92	6.982
309.29	4.963
309.65	6.257
310.02	6.765
310.38	7.097
310.75	6.864
311.12	6.039
311.48	6.061
311.85	6.604
312.22	6.556
312.58	6.133
312.95	7.920
313.31	5.728
313.68	5.821
314.05	8.876
314.41	8.040
314.78	7.452
315.14	7.249
315.51	7.312
315.87	9.406
316.24	7.746
316.61	8.090
316.97	8.806
317.34	6.849
317.70	8.987
318.07	10.491
318.43	8.317
318.80	10.497
319.16	9.793
319.53	10.413
319.89	11.905
320.26	11.300
320.62	11.806
320.99	12.323
321.35	11.111
321.72	12.218
322.08	13.820
322.45	13.831
322.81	13.663
323.18	14.644
323.54	14.378
323.91	14.528
324.27	16.061
324.64	15.098
325.00	16.231
325.37	17.288
325.73	18.043
326.10	17.652
326.46	18.459
326.83	19.068
327.19	20.239
327.56	19.338
327.92	20.472
328.29	20.852
328.65	22.099
329.01	21.390
329.38	22.017
329.74	22.530
330.11	22.714
330.47	23.783
330.84	23.438
331.20	23.679
331.56	23.761
331.93	24.352
332.29	24.845
332.66	25.398
333.02	25.229
333.38	26.107
333.75	25.490
334.11	25.356
334.48	24.845
334.84	26.654
335.20	25.455
335.57	25.748
335.93	25.893
336.29	26.190
336.66	25.879
337.02	25.882
337.38	27.407
337.75	27.362
338.11	25.873
338.47	27.901
338.84	27.589
339.20	25.872
339.56	28.467
339.93	27.091
340.29	27.808
340.65	27.986
341.02	29.581
341.38	28.025
341.74	27.632
342.11	28.122
342.47	28.899
342.83	27.226
343.20	29.264
343.56	27.380
343.92	28.860
344.28	29.507
344.65	29.493
345.01	27.946
345.37	29.074
345.73	28.765
346.10	30.605
346.46	28.220
346.82	29.654
347.19	28.404
347.55	27.833
347.91	29.935
348.27	29.992
348.63	30.769
349.00	30.016
349.36	29.885
349.72	29.591
350.08	29.173
350.45	30.594
350.81	28.595
351.17	29.254
351.53	29.238
351.89	29.043
352.26	30.545
352.62	30.313
352.98	30.065
353.34	30.074
353.70	29.133
354.07	30.161
354.43	29.603
354.79	29.364
355.15	28.651
355.51	31.015
355.87	31.510
356.24	28.990
356.60	29.350
356.96	30.813
357.32	30.090
357.68	30.551
358.04	30.562
358.40	30.404
358.77	30.751
359.13	30.781
359.49	30.902
359.85	29.603
360.21	30.303
360.57	31.440
360.93	31.846
361.29	30.915
361.66	30.108
362.02	29.627
362.38	31.103
362.74	30.729
363.10	29.608
363.46	31.108
363.82	30.763
364.18	30.176
364.54	31.649
364.90	31.870
365.26	31.029
365.62	30.898
365.98	31.921
366.35	30.086
366.71	31.453
367.07	30.808
367.43	31.495
367.79	31.906
368.15	33.190
368.51	31.468
368.87	32.477
369.23	31.675
369.59	31.716
369.95	31.838
370.31	31.054
370.67	30.217
371.03	32.659
371.39	32.362
371.75	31.471
372.11	31.721
372.47	33.065
372.83	33.069
373.19	32.009
373.55	32.299
373.91	32.990
374.27	31.271
374.63	31.418
374.99	33.192
375.35	32.519
375.71	31.734
376.07	32.373
376.42	32.944
376.78	32.671
377.14	31.818
377.50	33.113
377.86	31.449
378.22	33.502
378.58	31.015
378.94	31.301
379.30	32.252
379.66	31.789
380.02	32.555
380.38	31.573
380.74	32.653
381.09	32.274
381.45	32.329
381.81	32.740
382.17	32.548
382.53	31.698
382.89	33.704
383.25	32.208
383.61	33.891
383.97	32.145
384.32	31.878
384.68	32.528
385.04	31.838
385.40	31.950
385.76	32.801
386.12	32.513
386.48	32.977
386.83	33.034
387.19	32.406
387.55	32.777
387.91	31.741
388.27	31.453
388.62	32.760
388.98	32.187
389.34	31.602
389.70	32.741
390.06	32.890
390.42	32.750
390.77	32.888
391.13	31.844
391.49	32.551
391.85	31.445
392.20	31.735
392.56	32.323
392.92	32.137
393.28	32.012
393.64	32.494
393.99	32.804
394.35	32.010
394.71	32.748
395.07	32.150
395.42	32.818
395.78	31.743
396.14	31.471
396.50	32.769
396.85	31.659
397.21	30.826
397.57	32.858
397.92	31.430
398.28	31.222
398.64	32.198
399.00	31.505
399.35	31.190
399.71	31.713
400.07	31.875
400.42	31.411
400.78	31.604
401.14	31.341
401.49	31.463
401.85	31.397
402.21	30.778
402.57	31.709
402.92	31.526
403.28	32.167
403.63	31.498
403.99	31.083
404.35	31.333
404.70	29.976
405.06	29.936
405.42	31.878
405.77	30.000
406.13	30.926
406.49	31.815
406.84	29.829
407.20	29.728
407.55	29.419
407.91	30.867
408.27	30.121
408.62	30.343
408.98	30.821
409.34	30.935
409.69	29.419
410.05	30.112
410.40	29.664
410.76	29.749
411.11	30.458
411.47	29.649
411.83	31.338
412.18	29.066
412.54	30.199
412.89	30.723
413.25	29.339
413.60	29.648
413.96	28.901
414.31	29.587
414.67	30.165
415.03	30.199
415.38	30.477
415.74	29.646
416.09	29.784
416.45	29.451
416.80	28.751
417.16	28.552
417.51	29.330
417.87	28.259
418.22	29.211
418.58	28.922
418.93	29.423
419.29	29.663
419.64	29.156
420.00	28.049
420.35	28.696
420.71	28.990
421.06	28.162
421.42	28.187
421.77	29.372
422.12	28.299
422.48	27.307
422.83	28.480
423.19	28.674
423.54	28.265
423.90	28.986
424.25	28.197
424.61	28.690
424.96	28.280
425.31	28.516
425.67	27.303
426.02	27.029
426.38	28.816
426.73	27.911
427.09	28.389
427.44	27.315
427.79	27.775
428.15	28.036
428.50	27.677
428.85	28.367
429.21	26.505
429.56	26.801
429.92	26.422
430.27	27.160
430.62	27.035
430.98	27.400
431.33	26.443
431.68	27.801
432.04	26.358
432.39	26.785
432.74	27.528
433.10	26.203
433.45	27.172
433.80	26.552
434.16	26.389
434.51	26.632
434.86	26.397
435.22	26.904
435.57	27.052
435.92	25.863
436.28	26.928
436.63	27.594
436.98	26.102
437.34	27.132
437.69	27.188
438.04	27.094
438.39	26.149
438.75	26.961
439.10	26.480
439.45	26.505
439.81	25.740
440.16	26.426
440.51	26.714
440.86	27.446
441.22	25.640
441.57	25.690
441.92	25.947
442.27	26.911
442.63	26.066
442.98	26.930
443.33	25.054
443.68	25.916
444.03	25.720
444.39	25.268
444.74	25.379
445.09	25.553
445.44	25.697
445.79	25.235
446.15	24.669
446.50	24.933
446.85	25.180
447.20	24.681
447.55	25.740
447.91	25.648
448.26	24.986
448.61	24.534
448.96	25.305
449.31	25.478
449.66	25.549
450.02	24.958
450.37	24.490
450.72	24.478
451.07	25.472
451.42	23.647
451.77	25.191
452.12	24.018
452.47	24.627
452.83	24.184
453.18	24.389
453.53	24.985
453.88	24.513
454.23	24.507
454.58	25.681
454.93	25.620
455.28	24.314
455.63	24.879
455.98	25.357
456.34	24.058
456.69	24.546
457.04	24.087
457.39	23.203
457.74	24.202
458.09	23.979
458.44	23.831
458.79	22.289
459.14	23.702
459.49	24.518
459.84	22.881
460.19	22.982
460.54	22.975
460.89	23.149
461.24	24.104
461.59	24.869
461.94	22.996
462.29	23.680
462.64	22.910
462.99	23.097
463.34	22.933
463.69	22.577
464.04	23.768
464.39	22.551
464.74	22.935
465.09	21.954
465.44	22.105
465.79	22.092
466.14	21.784
466.49	21.357
466.84	22.475
467.19	22.330
467.54	22.437
467.89	22.509
468.24	22.164
468.59	22.405
468.94	22.236
469.29	22.237
469.64	21.888
469.99	23.139
470.34	22.457
470.68	22.917
471.03	21.769
471.38	22.307
471.73	21.452
472.08	23.158
472.43	22.236
472.78	22.317
473.13	21.117
473.48	22.472
473.83	22.012
474.17	20.473
474.52	22.519
474.87	21.308
475.22	21.126
475.57	20.473
475.92	20.924
476.27	20.462
476.61	20.905
476.96	20.341
477.31	20.931
477.66	20.842
478.01	20.439
478.36	20.888
478.70	20.353
479.05	20.128
479.40	20.266
479.75	20.132
480.10	20.080
480.45	19.943
480.79	19.876
481.14	19.667
481.49	20.361
481.84	19.159
482.19	19.537
482.53	20.183
482.88	20.102
483.23	19.486
483.58	19.563
483.92	19.541
484.27	18.257
484.62	19.095
484.97	19.354
485.31	18.870
485.66	17.748
486.01	17.078
486.36	16.645
486.70	16.801
487.05	17.140
487.40	17.799
487.75	17.826
488.09	18.623
488.44	18.379
488.79	18.915
489.13	18.449
489.48	18.108
489.83	18.429
490.17	18.238
490.52	18.645
490.87	18.363
491.22	17.599
491.56	18.178
491.91	17.869
492.26	18.512
492.60	18.203
492.95	18.101
493.30	18.832
493.64	18.385
493.99	17.177
494.34	18.363
494.68	18.910
495.03	18.421
495.37	17.962
495.72	18.616
496.07	18.376
496.41	17.257
496.76	17.854
497.11	17.605
497.45	17.559
497.80	17.850
498.14	17.101
498.49	17.707
498.84	17.162
499.18	16.810
499.53	17.711
499.87	17.847
500.22	17.617
500.56	18.350
500.91	17.837
501.26	17.354
501.60	17.893
501.95	17.324
502.29	17.619
502.64	17.132
502.98	17.391
503.33	17.322
503.67	17.494
504.02	17.353
504.36	16.940
504.71	17.587
505.06	17.687
505.40	17.064
505.75	17.165
506.09	17.007
506.44	17.908
506.78	17.438
507.13	17.769
507.47	17.525
507.82	17.427
508.16	17.427
508.51	18.011
508.85	17.329
509.19	16.837
509.54	16.990
509.88	17.105
510.23	17.584
510.57	17.492
510.92	17.556
511.26	17.112
511.61	17.376
511.95	16.910
512.30	17.126
512.64	17.517
512.98	17.685
513.33	17.131
513.67	17.076
514.02	16.775
514.36	17.477
514.70	17.543
515.05	17.122
515.39	17.218
515.74	16.948
516.08	17.831
516.42	17.092
516.77	18.060
517.11	17.203
517.46	17.946
517.80	18.235
518.14	17.545
518.49	17.270
518.83	17.614
519.17	17.263
519.52	17.827
519.86	17.969
520.20	17.746
520.55	18.013
520.89	17.762
521.23	18.275
521.58	17.647
521.92	18.187
522.26	17.511
522.61	17.695
522.95	17.188
523.29	17.468
523.64	17.683
523.98	18.484
524.32	17.793
524.66	17.919
525.01	18.321
525.35	17.658
525.69	17.241
526.04	17.757
526.38	17.267
526.72	17.546
527.06	17.954
527.41	16.275
527.75	16.977
528.09	17.598
528.43	17.527
528.78	17.886
529.12	18.182
529.46	18.249
529.80	18.379
530.15	17.695
530.49	18.277
530.83	17.722
531.17	18.277
531.51	18.288
531.86	18.710
532.20	18.449
532.54	18.578
532.88	18.164
533.22	17.926
533.57	17.160
533.91	17.520
534.25	18.408
534.59	17.389
534.93	17.728
535.27	16.898
535.62	17.766
535.96	17.263
536.30	17.800
536.64	17.514
536.98	18.646
537.32	17.907
537.66	17.467
538.01	17.182
538.35	18.358
538.69	18.060
539.03	16.569
539.37	17.252
539.71	17.239
540.05	17.386
540.39	17.409
540.73	17.658
541.07	17.846
541.42	18.591
541.76	18.065
542.10	17.594
542.44	17.351
542.78	18.445
543.12	17.083
543.46	18.033
543.80	18.217
544.14	16.560
544.48	18.413
544.82	16.998
545.16	17.892
545.50	17.802
545.84	17.876
546.18	18.047
546.52	18.169
546.86	17.526
547.20	17.330
547.54	17.168
547.88	18.559
548.22	17.808
548.56	17.484
548.90	17.926
549.24	17.778
549.58	17.667
549.92	17.995
550.26	18.040
550.60	17.842
550.94	18.592
551.28	16.606
551.62	18.692
551.96	18.105
552.30	19.181
552.64	17.512
552.98	17.763
553.32	17.532
553.66	18.609
554.00	17.502
554.34	18.565
554.68	17.668
555.02	18.829
555.36	18.580
555.69	17.185
556.03	17.362
556.37	17.599
556.71	16.780
557.05	17.017
557.39	18.474
557.73	17.361
558.07	18.202
558.41	16.860
558.75	17.928
559.08	18.345
559.42	17.687
559.76	18.088
560.10	17.844
560.44	17.680
560.78	17.565
561.12	17.084
561.45	18.057
561.79	17.798
562.13	16.834
562.47	17.555
562.81	18.131
563.15	17.391
563.48	17.175
563.82	16.765
564.16	16.612
564.50	16.862
564.84	17.636
565.17	17.954
565.51	17.891
565.85	16.815
566.19	16.969
566.52	17.353
566.86	17.239
567.20	17.689
567.54	17.523
567.88	16.350
568.21	17.778
568.55	16.380
568.89	16.586
569.23	16.221
569.56	15.628
569.90	15.962
570.24	15.895
570.57	15.165
570.91	14.835
571.25	15.256
571.59	15.110
571.92	15.121
572.26	15.049
572.60	15.556
572.93	14.873
573.27	15.942
573.61	15.494
573.95	15.168
574.28	14.824
574.62	14.820
574.96	14.719
575.29	14.476
575.63	14.787
575.97	14.684
576.30	14.498
576.64	14.683
576.98	14.730
577.31	14.603
577.65	15.136
577.98	14.536
578.32	14.555
578.66	14.696
578.99	14.745
579.33	15.008
579.67	14.352
580.00	15.080
580.34	14.784
580.67	14.536
581.01	14.594
581.35	14.727
581.68	14.599
582.02	14.308
582.35	14.611
582.69	14.592
583.02	14.480
583.36	14.826
583.70	15.160
584.03	15.099
584.37	15.441
584.70	15.021
585.04	14.628
585.37	14.795
585.71	15.320
586.04	14.810
586.38	14.995
586.72	15.852
587.05	14.751
587.39	14.697
587.72	15.048
588.06	14.915
588.39	15.089
588.73	15.136
589.06	15.737
589.40	15.623
589.73	15.136
590.07	15.409
590.40	14.834
590.73	15.652
591.07	15.995
591.40	16.154
591.74	16.277
592.07	16.187
592.41	15.874
592.74	15.393
593.08	15.490
593.41	15.027
593.75	15.209
594.08	15.823
594.41	15.518
594.75	15.268
595.08	15.283
595.42	15.797
595.75	15.207
596.09	15.621
596.42	15.639
596.75	15.872
597.09	16.797
597.42	14.924
597.75	15.481
598.09	16.696
598.42	15.507
598.76	15.525
599.09	15.355
599.42	14.884
599.76	15.776
600.09	15.337
600.42	15.376
600.76	15.179
601.09	15.191
601.42	15.145
601.76	15.218
602.09	15.850
602.42	15.525
602.76	15.599
603.09	15.657
603.42	15.424
603.76	15.168
604.09	14.851
604.42	15.899
604.76	16.111
605.09	15.640
605.42	15.648
605.75	15.646
606.09	15.738
606.42	15.570
606.75	15.429
607.09	15.613
607.42	14.891
607.75	15.316
608.08	15.371
608.42	15.957
608.75	15.600
609.08	16.235
609.41	15.659
609.75	16.293
610.08	16.258
610.41	15.223
610.74	15.752
611.07	16.453
611.41	16.879
611.74	16.491
612.07	17.598
612.40	16.264
612.73	16.526
613.07	16.972
613.40	16.956
613.73	15.417
614.06	16.613
614.39	16.203
614.72	17.105
615.06	16.334
615.39	15.552
615.72	15.849
616.05	15.789
616.38	16.843
616.71	16.924
617.05	17.432
617.38	17.980
617.71	16.757
618.04	17.127
618.37	15.908
618.70	16.241
619.03	17.237
619.36	17.108
619.69	17.042
620.03	17.514
620.36	17.781
620.69	17.671
621.02	18.215
621.35	18.481
621.68	17.913
622.01	17.957
622.34	17.852
622.67	16.730
623.00	16.948
623.33	17.012
623.66	17.441
623.99	18.115
624.32	16.405
624.65	17.090
624.99	16.147
625.32	16.944
625.65	17.205
625.98	17.294
626.31	18.274
626.64	18.612
626.97	18.288
627.30	18.869
627.63	18.130
627.96	18.671
628.29	18.898
628.62	17.932
628.95	19.434
629.28	18.066
629.61	18.882
629.94	19.429
630.26	17.541
630.59	18.780
630.92	18.008
631.25	18.460
631.58	18.719
631.91	19.067
632.24	18.987
632.57	19.937
632.90	19.846
633.23	17.785
633.56	21.130
633.89	20.159
634.22	19.864
634.55	21.065
634.88	19.042
635.20	20.072
635.53	20.000
635.86	20.297
636.19	19.647
636.52	19.608
636.85	20.389
637.18	19.585
637.51	19.504
637.83	18.619
638.16	19.054
638.49	19.899
638.82	21.365
639.15	20.375
639.48	21.072
639.81	21.448
640.13	20.182
640.46	21.745
640.79	21.268
641.12	18.707
641.45	20.251
641.77	20.913
642.10	21.637
642.43	19.670
642.76	21.207
643.09	20.859
643.41	20.486
643.74	21.142
644.07	21.494
644.40	23.926
644.73	23.465
645.05	22.187
645.38	20.221
645.71	20.451
646.04	20.930
646.36	24.541
646.69	24.080
647.02	21.939
647.35	20.962
647.67	23.363
648.00	23.089
648.33	20.792
648.66	21.061
648.98	23.838
649.31	20.329
649.64	20.179
649.96	20.417
650.29	21.801
650.62	21.359
650.94	21.070
651.27	22.297
651.60	21.797
651.92	22.045
652.25	19.055
652.58	19.626
652.90	24.171
653.23	19.877
653.56	19.685
653.88	21.553
654.21	21.801
654.54	19.637
654.86	21.807
655.19	19.730
655.52	13.628
655.84	11.012
656.17	14.155
656.49	19.669
656.82	20.124
657.15	15.120
657.47	11.405
657.80	8.847
658.13	9.054
658.45	13.697
658.78	13.991
659.10	14.112
659.43	15.180
659.75	15.900
660.08	16.646
660.41	19.367
660.73	18.679
661.06	20.382
661.38	24.000
661.71	23.462
662.03	23.274
662.36	21.471
662.68	23.896
663.01	23.232
663.33	22.293
663.66	23.319
663.98	23.326
664.31	23.109
664.63	21.862
664.96	21.730
665.28	21.516
665.61	21.442
665.93	23.742
666.26	22.312
666.58	21.967
666.91	24.947
667.23	24.494
667.56	23.542
667.88	24.359
668.21	24.094
668.53	23.644
668.86	23.593
669.18	23.881
669.50	22.826
669.83	25.054
670.15	24.667
670.48	23.747
670.80	26.293
671.13	24.204
671.45	22.128
671.77	25.662
672.10	23.105
672.42	22.261
672.75	19.735
673.07	21.479
673.39	20.253
673.72	20.312
674.04	20.784
674.37	23.883
674.69	19.223
675.01	20.502
675.34	25.257
675.66	25.684
675.98	22.811
676.31	20.588
676.63	25.690
676.95	24.319
677.28	20.561
677.60	23.516
677.92	24.684
678.25	23.203
678.57	23.307
678.89	25.050
679.22	22.004
679.54	23.092
679.86	22.936
680.18	21.467
680.51	21.631
680.83	24.377
681.15	22.830
681.48	24.008
681.80	20.696
682.12	21.073
682.44	20.309
682.77	23.422
683.09	24.678
683.41	25.055
683.73	25.828
684.06	22.521
684.38	21.135
684.70	23.837
685.02	23.827
685.34	20.330
685.67	20.280
685.99	20.790
686.31	20.648
686.63	22.261
686.96	20.357
687.28	20.578
687.60	21.196
687.92	21.755
688.24	21.673
688.56	23.896
688.89	24.481
689.21	25.109
689.53	22.338
689.85	24.390
690.17	21.739
690.49	25.053
690.82	23.598
691.14	22.098
691.46	22.996
691.78	22.289
692.10	21.694
692.42	25.349
692.74	20.124
693.06	23.191
693.39	21.971
693.71	21.616
694.03	25.684
694.35	21.861
694.67	20.595
694.99	26.098
695.31	23.529
695.63	23.445
695.95	25.672
696.27	20.051
696.59	23.834
696.91	24.352
697.23	20.657
697.56	21.748
697.88	20.654
698.20	23.125
698.52	21.075
698.84	24.276
699.16	21.429
699.48	24.228
699.80	23.188
700.12	27.792
700.44	25.729
700.76	27.348
701.08	27.011
701.40	24.302
701.72	30.029
702.04	30.966
702.36	23.229
702.68	24.646
703.00	25.208
703.32	24.734
703.64	24.129
703.96	24.791
704.28	25.000
704.60	29.326
704.91	27.596
705.23	28.152
705.55	30.897
705.87	31.561
706.19	26.502
706.51	26.168
706.83	29.091
707.15	24.650
707.47	23.990
707.79	24.816
708.11	25.342
708.43	20.238
708.74	23.980
709.06	24.675
709.38	28.609
709.70	28.198
710.02	27.893
710.34	26.061
710.66	27.463
710.98	26.420
711.29	25.872
711.61	27.729
711.93	25.321
712.25	27.653
712.57	31.250
712.89	27.336
713.20	26.748
713.52	28.289
713.84	22.468
714.16	23.476
714.48	27.011
714.80	27.964
715.11	23.055
715.43	22.849
715.75	24.058
716.07	27.476
716.39	26.646
716.70	29.236
717.02	29.496
717.34	24.735
717.66	34.701
717.97	32.271
718.29	30.741
718.61	28.467
718.93	28.676
719.24	27.336
719.56	27.797
719.88	30.508
720.20	30.405
720.51	28.223
720.83	33.086
721.15	25.000
721.46	29.433
721.78	32.258
722.10	30.943
722.42	31.579
722.73	30.337
723.05	25.820
723.37	31.579
723.68	29.730
724.00	30.081
724.32	25.806
724.63	28.862
724.95	28.033
725.27	32.389
725.58	31.250
725.90	27.007
726.22	29.057
726.53	27.431
726.85	31.058
727.16	24.911
727.48	30.851
727.80	27.273
728.11	28.986
728.43	25.769
728.74	28.315
729.06	32.117
729.38	30.882
729.69	30.605
730.01	25.597
730.32	25.694
730.64	25.084
730.96	23.762
731.27	26.821
731.59	25.382
731.90	27.697
732.22	26.087
732.53	26.316
732.85	26.282
733.16	26.688
733.48	28.904
733.80	28.896
734.11	27.389
734.43	24.852
734.74	25.143
735.06	23.496
735.37	26.012
735.69	24.522
736.00	25.490
736.32	29.907
736.63	24.281
736.95	26.198
737.26	21.769
737.58	22.258
737.89	24.749
738.21	30.717
738.52	26.071
738.83	30.943
739.15	27.692
739.46	29.562
739.78	26.389
740.09	27.077
740.41	25.484
740.72	23.693
741.04	26.667
741.35	28.750
741.66	35.556
741.98	30.189
742.29	35.885
742.61	34.914
742.92	30.317
743.23	32.051
743.55	30.000
743.86	30.263
744.18	37.168
744.49	32.057
744.80	38.028
745.12	35.000
745.43	29.956
745.74	31.982
746.06	28.440
746.37	32.735
746.68	31.222
747.00	31.019
747.31	32.381
747.62	26.991
747.94	31.718
748.25	31.064
748.56	29.075
748.88	28.218
749.19	37.500
749.50	29.302
749.82	29.675
750.13	34.286
750.44	30.292
750.75	28.070
751.07	33.119
751.38	26.132
751.69	27.437
752.01	27.444
752.32	24.188
752.63	28.723
752.94	27.049
753.26	32.800
753.57	25.203
753.88	34.375
754.19	25.357
754.51	33.333
754.82	24.910
755.13	29.811
755.44	25.940
755.75	27.007
756.07	26.241
756.38	24.088
756.69	24.497
757.00	27.545
757.31	23.442
757.63	23.392
757.94	24.129
758.25	19.608
758.56	21.728
758.87	19.892
759.18	25.455
759.50	27.273
759.81	24.611
760.12	21.875
760.43	26.361
760.74	22.554
761.05	26.271
761.36	21.123
761.67	23.580
761.99	24.534
762.30	25.000
762.61	30.534
762.92	30.469
763.23	29.832
763.54	28.400
763.85	26.562
764.16	31.538
764.47	26.616
764.78	26.502
765.10	22.152
765.41	26.254
765.72	24.251
766.03	21.630
766.34	27.667
766.65	30.213
766.96	32.906
767.27	28.934
767.58	38.542
767.89	43.158
768.20	38.506
768.51	31.472
768.82	33.028
769.13	26.423
769.44	24.696
769.75	27.039
770.06	23.853
770.37	31.674
770.68	32.407
770.99	31.556
771.30	29.508
771.61	30.045
771.92	34.426
772.23	33.613
772.54	35.897
772.85	35.602
773.16	36.702
773.47	38.587
773.78	37.056
774.09	44.643
774.39	39.181
774.70	37.654
775.01	36.957
775.32	41.830
775.63	43.421
775.94	41.007
776.25	51.181
776.56	46.269
776.87	49.180
777.18	40.625
777.48	50.382
777.79	49.242
778.10	52.593
778.41	60.714
778.72	43.796
779.03	40.940
779.34	40.268
779.65	38.514
779.95	40.491
780.26	49.673
780.57	44.828
780.88	47.656
781.19	43.609
781.50	47.973
781.80	37.736
782.11	34.463
782.42	36.076
782.73	41.718
783.04	42.568
783.34	46.479
783.65	48.630
783.96	46.269
784.27	51.049
784.57	32.374
784.88	33.333
785.19	57.937
785.50	50.943
785.81	58.209
786.11	49.180
786.42	42.636
786.73	46.903
787.04	50.943
787.34	46.429
787.65	57.000
787.96	46.847
788.26	48.760
788.57	55.085
788.88	50.413
789.19	52.778
789.49	51.515
789.80	45.038
790.11	65.714
790.41	61.386
790.72	49.398
791.03	57.609
791.33	62.791
791.64	57.732
791.95	54.455
792.25	70.000
792.56	58.442
792.87	67.949
793.17	88.608
793.48	71.264
793.79	59.770
794.09	61.364
794.40	47.059
794.70	46.324
795.01	40.741
795.32	43.165
795.62	40.157
795.93	45.690
796.23	51.327
796.54	52.941
796.85	62.162
797.15	77.465
797.46	80.303
797.76	78.313
798.07	67.089
798.37	72.308
798.68	68.182
798.99	56.338
799.29	71.429
799.60	67.045
799.90	84.932
800.21	76.119
800.51	77.586
800.82	84.211
801.12	75.410
801.43	87.879
801.73	72.973
802.04	98.413
802.34	76.543
802.65	85.938
802.95	94.915
803.26	112.500
803.56	70.000
803.87	66.154
804.17	75.000
804.48	118.519
804.78	98.276
805.09	86.765
805.39	98.077
805.70	71.429
806.00	88.525
806.30	87.879
806.61	80.488
806.91	74.684
807.22	71.053
807.52	68.657
807.83	80.282
808.13	82.813
808.43	80.000
808.74	57.895
809.04	78.261
809.35	86.567
809.65	72.368
809.95	96.774
810.26	81.356
810.56	101.587
810.86	109.091
811.17	128.571
811.47	96.667
811.77	112.963
812.08	98.182
812.38	108.000
812.69	158.333
812.99	131.818
813.29	95.918
813.59	100.000
813.90	122.449
814.20	98.182
814.50	70.769
814.81	75.000
815.11	110.204
815.41	77.049
815.72	126.190
816.02	118.182
816.32	111.905
816.62	145.000
816.93	114.634
817.23	102.381
817.53	125.000
817.84	133.333
818.14	121.739
818.44	104.444
818.74	158.824
819.04	127.500
819.35	140.000
819.65	179.412
819.95	164.286
820.25	155.000
820.56	143.590
820.86	138.636
821.16	132.558
821.46	115.385
821.76	124.000
822.07	137.143
822.37	132.500
822.67	148.485
822.97	107.843
823.27	203.571
823.57	151.351
823.88	142.500
824.18	140.000
824.48	142.857
824.78	200.000
825.08	200.000
825.38	105.405
825.69	107.317
825.99	187.500
826.29	134.483
826.59	150.000
826.89	150.000
827.19	141.176
827.49	177.419
827.79	147.727
828.09	127.273
828.39	104.255
828.70	126.531
829.00	155.556
829.30	132.258
829.60	130.000
829.90	286.667
830.20	182.143
830.50	226.087
830.80	204.348
831.10	210.000
831.40	173.333
831.70	160.870
832.00	219.231
832.30	155.556
832.60	262.500
832.90	206.667
833.20	307.143
833.50	174.194
833.80	172.414
834.10	178.125
834.40	211.538
834.70	283.333
835.00	285.714
835.30	148.571
835.60	292.308
835.90	206.897
836.20	357.143
836.50	175.862
836.80	168.000
837.10	175.000
837.40	252.381
837.70	270.588
838.00	159.259
838.30	195.238
838.60	290.476
838.90	238.462
839.19	275.000
839.49	450.000
839.79	310.000
840.09	225.000
840.39	276.190
840.69	217.391
840.99	222.222
841.29	550.000
841.59	333.333
841.88	275.000
842.18	155.172
842.48	266.667
842.78	186.667
843.08	247.826
843.38	140.625
843.68	983.333
843.97	230.769
844.27	175.862
844.57	261.905
844.87	343.750
845.17	188.889
845.47	1200.000
845.76	422.222
846.06	317.647
846.36	500.000
846.66	307.143
846.96	325.000
847.25	354.545
847.55	390.909
847.85	234.783
848.15	360.000
848.44	300.000
848.74	211.111
849.04	276.471
849.34	390.000
849.63	226.316
849.93	454.545
850.23	960.000
850.53	421.429
850.82	2450.000
851.12	-5000.000
851.42	4500.000
851.71	285.000
852.01	-1333.333
852.31	250.000
852.61	1433.333
852.90	233.333
853.20	180.000
853.50	264.706
853.79	271.429
854.09	200.000
854.39	337.500
854.68	154.054
854.98	164.516
855.28	186.667
855.57	200.000
855.87	225.926
856.17	236.842
856.46	213.333
856.76	270.588
857.05	179.310
857.35	233.333
857.65	320.000
857.94	186.957
858.24	230.769
858.53	255.000
858.83	250.000
859.13	326.667
859.42	0.000
859.72	444.444
860.01	427.273
860.31	200.000
860.60	247.368
860.90	234.783
861.20	566.667
861.49	466.667
861.79	-4200.000
862.08	525.000
862.38	238.095
862.67	330.769
862.97	276.471
863.26	555.556
863.56	266.667
863.85	375.000
864.15	562.500
864.44	366.667
864.74	816.667
865.03	787.500
865.33	252.632
865.62	463.636
865.92	407.692
866.21	341.667
866.51	0.000
866.80	436.364
867.10	980.000
867.39	423.077
867.69	481.818
867.98	263.158
868.27	481.818
868.57	289.474
868.86	-4500.000
869.16	337.500
869.45	2000.000
869.75	-3700.000
870.04	391.667
870.33	600.000
870.63	825.000
870.92	2750.000
871.22	700.000
871.51	300.000
871.80	209.524
872.10	335.714
>>>>>End Processed Spectral Data<<<<<
