SpectraSuite Data File
++++++++++++++++++++++++++++++++++++
Date: Wed May 13 19:36:58 PDT 2015
User: schluterlab
Dark Spectrum Present: Yes
Reference Spectrum Present: Yes
Number of Sampled Component Spectra: 1
Spectrometers: USB2E3373
Integration Time (usec): 3000 (USB2E3373)
Spectra Averaged: 3 (USB2E3373)
Boxcar Smoothing: 0 (USB2E3373)
Correct for Electrical Dark: No (USB2E3373)
Strobe/Lamp Enabled: No (USB2E3373)
Correct for Detector Non-linearity: No (USB2E3373)
Correct for Stray Light: No (USB2E3373)
Number of Pixels in Processed Spectrum: 2048
>>>>>Begin Processed Spectral Data<<<<<
178.53	0.000
178.91	-1325.000
179.29	-1625.000
179.67	-261.111
180.04	-1500.000
180.42	2600.000
180.80	1080.000
181.18	-1275.000
181.56	585.714
181.94	0.000
182.31	-671.429
182.69	1666.667
183.07	-562.500
183.45	-655.556
183.83	590.909
184.20	-480.000
184.58	2900.000
184.96	5400.000
185.34	-900.000
185.72	-587.500
186.09	-2150.000
186.47	2600.000
186.85	3300.000
187.23	5100.000
187.61	-1933.333
187.98	1450.000
188.36	572.727
188.74	518.182
189.12	-1120.000
189.49	630.000
189.87	-4900.000
190.25	-1300.000
190.63	428.571
191.00	461.538
191.38	866.667
191.76	-1350.000
192.14	1400.000
192.51	662.500
192.89	1066.667
193.27	737.500
193.65	-1600.000
194.02	550.000
194.40	980.000
194.78	620.000
195.15	500.000
195.53	710.000
195.91	-2450.000
196.29	356.250
196.66	310.526
197.04	-440.000
197.42	0.000
197.79	710.000
198.17	-4800.000
198.55	671.429
198.92	750.000
199.30	1000.000
199.68	0.000
200.05	344.444
200.43	728.571
200.81	5000.000
201.18	1866.667
201.56	-1500.000
201.94	577.778
202.31	588.889
202.69	550.000
203.07	620.000
203.44	0.000
203.82	1175.000
204.19	728.571
204.57	450.000
204.95	825.000
205.32	1666.667
205.70	609.091
206.08	478.571
206.45	2750.000
206.83	412.500
207.20	833.333
207.58	1000.000
207.96	388.889
208.33	825.000
208.71	-1016.667
209.08	914.286
209.46	588.889
209.84	472.727
210.21	-1400.000
210.59	1475.000
210.96	-600.000
211.34	3000.000
211.71	640.000
212.09	950.000
212.46	0.000
212.84	1900.000
213.22	1600.000
213.59	-4100.000
213.97	966.667
214.34	928.571
214.72	581.818
215.09	1000.000
215.47	-2650.000
215.84	-2600.000
216.22	1766.667
216.59	450.000
216.97	1275.000
217.34	463.636
217.72	-800.000
218.09	0.000
218.47	-5800.000
218.84	611.111
219.22	814.286
219.59	2100.000
219.97	-700.000
220.34	1040.000
220.72	-1966.667
221.09	464.286
221.47	1600.000
221.84	-966.667
222.22	0.000
222.59	1700.000
222.97	-2750.000
223.34	1100.000
223.72	476.923
224.09	1180.000
224.46	2900.000
224.84	-5900.000
225.21	-1020.000
225.59	-4900.000
225.96	640.000
226.34	305.000
226.71	2600.000
227.08	737.500
227.46	620.000
227.83	-1300.000
228.21	-3250.000
228.58	588.889
228.95	-2650.000
229.33	-1900.000
229.70	1933.333
230.08	914.286
230.45	-940.000
230.82	433.333
231.20	833.333
231.57	757.143
231.95	516.667
232.32	277.273
232.69	363.636
233.07	871.429
233.44	400.000
233.81	-1766.667
234.19	352.632
234.56	491.667
234.93	450.000
235.31	472.727
235.68	384.615
236.05	407.143
236.43	209.091
236.80	284.211
237.17	4200.000
237.55	242.857
237.92	242.857
238.29	309.524
238.67	200.000
239.04	220.690
239.41	213.889
239.79	136.957
240.16	173.810
240.53	165.909
240.91	129.412
241.28	138.000
241.65	126.000
242.02	108.696
242.40	117.742
242.77	123.333
243.14	102.151
243.51	103.371
243.89	92.941
244.26	83.333
244.63	93.548
245.00	89.362
245.38	85.149
245.75	77.570
246.12	73.394
246.49	72.263
246.87	80.000
247.24	83.077
247.61	75.714
247.98	72.549
248.36	68.243
248.73	63.057
249.10	68.790
249.47	64.972
249.84	65.241
250.22	59.358
250.59	62.722
250.96	63.636
251.33	63.507
251.70	63.366
252.08	59.048
252.45	58.296
252.82	55.217
253.19	55.745
253.56	58.039
253.94	56.432
254.31	55.469
254.68	58.462
255.05	55.351
255.42	54.878
255.79	58.824
256.16	55.235
256.54	51.943
256.91	54.804
257.28	49.640
257.65	49.175
258.02	53.106
258.39	51.420
258.76	50.167
259.14	51.488
259.51	46.809
259.88	49.068
260.25	52.568
260.62	48.555
260.99	51.553
261.36	49.550
261.73	47.564
262.10	47.384
262.47	51.549
262.85	47.075
263.22	47.863
263.59	50.427
263.96	45.604
264.33	48.825
264.70	47.632
265.07	43.990
265.44	48.990
265.81	41.119
266.18	45.980
266.55	48.780
266.92	46.437
267.29	46.065
267.66	47.477
268.03	48.409
268.40	45.093
268.77	44.153
269.14	45.270
269.51	47.178
269.88	46.853
270.25	42.438
270.62	45.393
270.99	45.591
271.36	44.421
271.73	44.860
272.10	44.130
272.47	44.301
272.84	40.909
273.21	42.977
273.58	37.773
273.95	40.881
274.32	41.736
274.69	45.182
275.06	39.370
275.43	43.830
275.80	41.683
276.17	42.566
276.54	42.204
276.91	42.292
277.28	41.797
277.65	42.360
278.02	42.443
278.39	44.141
278.76	41.455
279.13	40.189
279.50	41.713
279.87	42.829
280.23	43.513
280.60	41.779
280.97	41.220
281.34	41.593
281.71	40.909
282.08	42.994
282.45	41.273
282.82	41.741
283.19	37.968
283.56	41.579
283.92	39.594
284.29	39.330
284.66	39.927
285.03	39.964
285.40	39.789
285.77	39.562
286.14	38.342
286.51	39.667
286.87	37.265
287.24	40.065
287.61	38.684
287.98	37.825
288.35	38.035
288.72	36.137
289.08	37.559
289.45	37.562
289.82	37.236
290.19	35.165
290.56	36.141
290.93	35.498
291.29	33.282
291.66	35.841
292.03	36.773
292.40	35.242
292.77	34.172
293.13	34.328
293.50	33.236
293.87	34.370
294.24	34.519
294.60	33.624
294.97	31.395
295.34	33.286
295.71	33.381
296.08	32.336
296.44	34.250
296.81	31.968
297.18	34.553
297.55	29.156
297.91	32.058
298.28	33.066
298.65	32.507
299.02	30.435
299.38	29.880
299.75	29.245
300.12	30.268
300.48	28.500
300.85	30.949
301.22	31.592
301.59	29.167
301.95	29.471
302.32	30.295
302.69	28.913
303.05	29.091
303.42	29.012
303.79	28.766
304.15	28.205
304.52	26.767
304.89	27.875
305.25	28.074
305.62	28.992
305.99	28.926
306.35	29.866
306.72	27.242
307.09	27.414
307.45	29.505
307.82	27.902
308.19	27.483
308.55	27.400
308.92	27.605
309.29	26.822
309.65	26.617
310.02	26.850
310.38	26.344
310.75	27.350
311.12	26.714
311.48	26.959
311.85	28.092
312.22	28.096
312.58	27.027
312.95	28.828
313.31	25.631
313.68	27.443
314.05	27.811
314.41	26.231
314.78	27.190
315.14	26.713
315.51	26.159
315.87	28.812
316.24	26.912
316.61	25.634
316.97	24.560
317.34	26.321
317.70	27.533
318.07	26.083
318.43	25.636
318.80	26.992
319.16	27.401
319.53	24.859
319.89	26.095
320.26	26.100
320.62	27.480
320.99	26.263
321.35	25.960
321.72	26.797
322.08	26.851
322.45	27.861
322.81	26.357
323.18	26.590
323.54	26.716
323.91	26.226
324.27	26.195
324.64	24.884
325.00	25.609
325.37	26.479
325.73	26.750
326.10	26.037
326.46	25.538
326.83	27.006
327.19	26.558
327.56	25.871
327.92	26.159
328.29	28.838
328.65	27.716
329.01	26.083
329.38	25.717
329.74	25.946
330.11	26.013
330.47	26.446
330.84	27.390
331.20	27.596
331.56	26.422
331.93	27.222
332.29	27.773
332.66	26.814
333.02	27.422
333.38	26.920
333.75	26.827
334.11	26.868
334.48	26.619
334.84	27.757
335.20	25.727
335.57	26.292
335.93	24.732
336.29	26.832
336.66	25.518
337.02	25.973
337.38	26.111
337.75	24.688
338.11	25.425
338.47	25.783
338.84	26.948
339.20	26.514
339.56	27.099
339.93	25.182
340.29	25.725
340.65	26.025
341.02	25.305
341.38	25.534
341.74	25.175
342.11	25.852
342.47	25.551
342.83	25.856
343.20	26.234
343.56	25.358
343.92	25.526
344.28	26.020
344.65	25.795
345.01	26.094
345.37	24.957
345.73	24.873
346.10	25.831
346.46	25.508
346.82	25.288
347.19	24.144
347.55	25.123
347.91	25.000
348.27	25.555
348.63	26.003
349.00	25.405
349.36	24.631
349.72	25.180
350.08	25.203
350.45	26.119
350.81	25.264
351.17	24.878
351.53	24.898
351.89	23.845
352.26	25.888
352.62	23.897
352.98	24.635
353.34	24.897
353.70	22.586
354.07	24.032
354.43	24.286
354.79	23.250
355.15	24.022
355.51	24.860
355.87	23.755
356.24	24.756
356.60	23.095
356.96	23.894
357.32	24.530
357.68	24.488
358.04	23.832
358.40	24.070
358.77	24.883
359.13	23.757
359.49	23.765
359.85	22.778
360.21	23.365
360.57	23.813
360.93	24.231
361.29	23.356
361.66	23.684
362.02	24.478
362.38	23.498
362.74	23.065
363.10	21.836
363.46	22.817
363.82	23.054
364.18	23.862
364.54	23.403
364.90	23.017
365.26	22.941
365.62	23.448
365.98	23.083
366.35	22.350
366.71	23.717
367.07	23.452
367.43	23.657
367.79	23.983
368.15	24.425
368.51	22.238
368.87	23.483
369.23	23.555
369.59	23.244
369.95	22.279
370.31	22.507
370.67	21.884
371.03	23.596
371.39	23.032
371.75	23.235
372.11	21.622
372.47	22.727
372.83	23.631
373.19	22.110
373.55	22.838
373.91	23.785
374.27	22.405
374.63	21.600
374.99	22.175
375.35	21.563
375.71	21.796
376.07	22.702
376.42	22.558
376.78	23.260
377.14	22.456
377.50	21.457
377.86	21.742
378.22	23.009
378.58	21.867
378.94	21.496
379.30	22.328
379.66	23.096
380.02	21.990
380.38	21.615
380.74	22.449
381.09	22.311
381.45	22.803
381.81	22.912
382.17	22.038
382.53	22.704
382.89	22.099
383.25	21.388
383.61	21.809
383.97	22.014
384.32	21.522
384.68	20.756
385.04	21.389
385.40	21.548
385.76	21.867
386.12	21.826
386.48	22.215
386.83	22.258
387.19	21.707
387.55	21.645
387.91	21.705
388.27	21.521
388.62	21.451
388.98	20.332
389.34	21.840
389.70	22.011
390.06	22.053
390.42	22.244
390.77	21.756
391.13	22.017
391.49	22.335
391.85	21.133
392.20	20.946
392.56	21.843
392.92	20.954
393.28	20.355
393.64	21.882
393.99	21.625
394.35	21.650
394.71	21.393
395.07	20.997
395.42	21.570
395.78	21.120
396.14	22.222
396.50	22.306
396.85	21.488
397.21	20.345
397.57	21.265
397.92	20.853
398.28	20.460
398.64	21.924
399.00	21.097
399.35	21.433
399.71	20.718
400.07	21.467
400.42	21.902
400.78	21.592
401.14	20.793
401.49	21.134
401.85	20.750
402.21	21.078
402.57	20.851
402.92	21.501
403.28	21.174
403.63	19.864
403.99	21.019
404.35	21.515
404.70	20.444
405.06	20.559
405.42	21.772
405.77	21.429
406.13	20.937
406.49	21.407
406.84	21.146
407.20	20.449
407.55	20.996
407.91	21.933
408.27	21.059
408.62	21.192
408.98	20.282
409.34	21.648
409.69	21.161
410.05	21.190
410.40	20.550
410.76	21.027
411.11	21.592
411.47	21.150
411.83	21.014
412.18	20.779
412.54	21.544
412.89	20.783
413.25	20.720
413.60	20.506
413.96	21.008
414.31	20.717
414.67	22.180
415.03	20.530
415.38	21.585
415.74	21.865
416.09	21.163
416.45	21.553
416.80	21.282
417.16	21.582
417.51	21.831
417.87	21.066
418.22	20.883
418.58	21.175
418.93	21.437
419.29	21.324
419.64	21.662
420.00	21.098
420.35	20.406
420.71	22.056
421.06	21.659
421.42	20.994
421.77	21.749
422.12	20.999
422.48	20.291
422.83	21.142
423.19	20.829
423.54	21.532
423.90	21.565
424.25	21.329
424.61	21.310
424.96	21.983
425.31	20.321
425.67	20.506
426.02	21.829
426.38	22.039
426.73	20.714
427.09	20.973
427.44	20.759
427.79	21.162
428.15	21.250
428.50	21.182
428.85	21.275
429.21	20.210
429.56	20.736
429.92	20.332
430.27	21.599
430.62	20.379
430.98	20.758
431.33	20.876
431.68	20.785
432.04	21.140
432.39	20.845
432.74	21.185
433.10	20.600
433.45	21.691
433.80	20.344
434.16	20.994
434.51	20.895
434.86	21.095
435.22	21.345
435.57	21.337
435.92	20.480
436.28	22.657
436.63	22.296
436.98	21.179
437.34	21.944
437.69	21.354
438.04	21.023
438.39	20.418
438.75	21.906
439.10	21.341
439.45	21.842
439.81	21.088
440.16	20.723
440.51	21.324
440.86	22.003
441.22	20.300
441.57	21.338
441.92	21.290
442.27	21.959
442.63	21.538
442.98	21.972
443.33	21.522
443.68	21.425
444.03	21.132
444.39	20.789
444.74	21.429
445.09	21.294
445.44	21.925
445.79	20.930
446.15	21.705
446.50	21.379
446.85	21.686
447.20	21.112
447.55	21.552
447.91	21.236
448.26	21.758
448.61	21.764
448.96	21.262
449.31	22.385
449.66	21.609
450.02	21.448
450.37	21.202
450.72	21.940
451.07	21.877
451.42	21.763
451.77	22.666
452.12	21.824
452.47	21.704
452.83	22.261
453.18	22.127
453.53	22.820
453.88	21.559
454.23	22.415
454.58	22.290
454.93	23.522
455.28	22.070
455.63	21.845
455.98	23.095
456.34	22.362
456.69	22.480
457.04	22.167
457.39	22.443
457.74	21.938
458.09	22.197
458.44	22.007
458.79	21.475
459.14	22.686
459.49	22.008
459.84	22.604
460.19	21.921
460.54	22.106
460.89	21.448
461.24	22.162
461.59	22.719
461.94	22.935
462.29	23.264
462.64	22.272
462.99	22.381
463.34	23.067
463.69	22.514
464.04	22.667
464.39	22.667
464.74	21.925
465.09	21.592
465.44	21.385
465.79	21.644
466.14	22.605
466.49	21.190
466.84	22.125
467.19	22.873
467.54	23.375
467.89	22.209
468.24	22.746
468.59	22.283
468.94	22.480
469.29	22.108
469.64	23.829
469.99	23.613
470.34	22.325
470.68	23.348
471.03	22.585
471.38	24.183
471.73	23.584
472.08	23.750
472.43	22.864
472.78	23.371
473.13	23.171
473.48	23.221
473.83	23.354
474.17	23.024
474.52	23.325
474.87	23.526
475.22	23.331
475.57	22.569
475.92	21.349
476.27	23.055
476.61	22.725
476.96	22.210
477.31	23.234
477.66	22.265
478.01	22.321
478.36	22.951
478.70	22.741
479.05	22.630
479.40	22.416
479.75	22.522
480.10	22.316
480.45	22.180
480.79	22.026
481.14	22.260
481.49	22.734
481.84	23.000
482.19	22.126
482.53	22.064
482.88	22.057
483.23	22.944
483.58	22.884
483.92	22.071
484.27	21.351
484.62	21.638
484.97	21.403
485.31	21.233
485.66	20.329
486.01	18.976
486.36	18.949
486.70	18.302
487.05	19.553
487.40	19.995
487.75	20.016
488.09	20.989
488.44	21.181
488.79	21.664
489.13	22.269
489.48	21.982
489.83	22.141
490.17	22.622
490.52	22.586
490.87	22.298
491.22	22.419
491.56	22.005
491.91	22.755
492.26	22.646
492.60	23.272
492.95	22.077
493.30	22.243
493.64	22.399
493.99	22.470
494.34	23.127
494.68	22.802
495.03	22.979
495.37	22.522
495.72	22.856
496.07	23.202
496.41	22.965
496.76	22.208
497.11	22.602
497.45	23.009
497.80	23.273
498.14	22.464
498.49	23.902
498.84	23.969
499.18	23.190
499.53	23.172
499.87	21.948
500.22	22.751
500.56	23.883
500.91	23.173
501.26	22.902
501.60	23.256
501.95	22.273
502.29	22.821
502.64	22.812
502.98	22.627
503.33	22.943
503.67	23.434
504.02	22.498
504.36	22.929
504.71	23.351
505.06	22.940
505.40	22.752
505.75	22.951
506.09	23.761
506.44	23.730
506.78	23.770
507.13	24.331
507.47	23.131
507.82	24.569
508.16	23.759
508.51	24.201
508.85	23.684
509.19	24.031
509.54	23.265
509.88	23.802
510.23	23.548
510.57	24.355
510.92	23.459
511.26	23.690
511.61	25.000
511.95	23.330
512.30	23.807
512.64	24.557
512.98	24.544
513.33	24.732
513.67	24.600
514.02	23.864
514.36	25.123
514.70	24.516
515.05	24.651
515.39	24.621
515.74	25.000
516.08	25.601
516.42	25.139
516.77	26.589
517.11	24.584
517.46	25.451
517.80	25.145
518.14	24.783
518.49	25.321
518.83	24.830
519.17	24.711
519.52	24.505
519.86	25.898
520.20	25.376
520.55	26.391
520.89	25.852
521.23	26.598
521.58	25.870
521.92	25.964
522.26	25.259
522.61	26.355
522.95	25.599
523.29	25.441
523.64	26.341
523.98	26.309
524.32	25.211
524.66	26.458
525.01	26.103
525.35	25.960
525.69	25.369
526.04	25.794
526.38	26.052
526.72	26.012
527.06	26.616
527.41	24.629
527.75	25.981
528.09	26.397
528.43	26.068
528.78	25.569
529.12	25.030
529.46	25.903
529.80	26.114
530.15	27.352
530.49	25.600
530.83	26.456
531.17	26.828
531.51	27.108
531.86	26.516
532.20	26.662
532.54	26.714
532.88	27.150
533.22	25.734
533.57	25.494
533.91	26.189
534.25	26.002
534.59	26.236
534.93	26.472
535.27	25.830
535.62	26.190
535.96	25.926
536.30	25.302
536.64	26.401
536.98	25.879
537.32	26.004
537.66	26.400
538.01	26.860
538.35	26.050
538.69	27.122
539.03	25.991
539.37	25.687
539.71	25.470
540.05	25.752
540.39	26.512
540.73	26.132
541.07	26.476
541.42	25.701
541.76	26.968
542.10	26.455
542.44	25.166
542.78	27.207
543.12	25.336
543.46	26.951
543.80	25.699
544.14	24.519
544.48	25.841
544.82	25.914
545.16	26.285
545.50	25.514
545.84	26.277
546.18	25.522
546.52	26.497
546.86	26.804
547.20	27.579
547.54	25.985
547.88	26.084
548.22	26.152
548.56	26.038
548.90	25.352
549.24	25.926
549.58	26.603
549.92	27.335
550.26	27.699
550.60	27.040
550.94	27.535
551.28	26.335
551.62	27.750
551.96	26.667
552.30	27.304
552.64	27.113
552.98	26.915
553.32	26.905
553.66	26.449
554.00	26.630
554.34	26.156
554.68	28.326
555.02	27.292
555.36	26.862
555.69	25.710
556.03	26.312
556.37	26.603
556.71	27.285
557.05	27.171
557.39	27.432
557.73	27.241
558.07	26.686
558.41	26.773
558.75	27.700
559.08	27.666
559.42	28.571
559.76	28.456
560.10	27.623
560.44	27.184
560.78	27.079
561.12	25.792
561.45	26.402
561.79	25.445
562.13	26.224
562.47	27.049
562.81	27.755
563.15	26.689
563.48	26.923
563.82	26.223
564.16	26.226
564.50	26.237
564.84	25.853
565.17	25.804
565.51	27.284
565.85	26.079
566.19	25.736
566.52	25.776
566.86	25.075
567.20	26.238
567.54	25.228
567.88	23.954
568.21	25.185
568.55	23.913
568.89	24.854
569.23	24.020
569.56	23.117
569.90	22.415
570.24	22.497
570.57	22.373
570.91	21.202
571.25	21.032
571.59	21.208
571.92	21.083
572.26	21.259
572.60	21.141
572.93	20.720
573.27	21.295
573.61	20.603
573.95	20.982
574.28	20.327
574.62	20.505
574.96	19.904
575.29	19.981
575.63	20.579
575.97	20.229
576.30	20.871
576.64	20.546
576.98	20.588
577.31	20.125
577.65	20.239
577.98	19.863
578.32	19.380
578.66	19.581
578.99	19.813
579.33	20.213
579.67	19.776
580.00	19.708
580.34	20.527
580.67	20.303
581.01	19.924
581.35	19.575
581.68	19.509
582.02	19.083
582.35	19.476
582.69	19.443
583.02	19.858
583.36	20.129
583.70	20.554
584.03	21.264
584.37	20.843
584.70	20.664
585.04	20.254
585.37	20.224
585.71	20.606
586.04	20.222
586.38	21.055
586.72	20.823
587.05	21.054
587.39	20.343
587.72	21.000
588.06	20.251
588.39	20.741
588.73	20.798
589.06	21.720
589.40	21.515
589.73	21.612
590.07	21.744
590.40	21.593
590.73	22.326
591.07	22.996
591.40	22.353
591.74	23.377
592.07	22.164
592.41	22.654
592.74	21.610
593.08	21.719
593.41	21.481
593.75	21.018
594.08	21.589
594.41	21.774
594.75	22.477
595.08	21.367
595.42	22.172
595.75	21.937
596.09	22.493
596.42	22.947
596.75	22.837
597.09	23.290
597.42	22.091
597.75	23.329
598.09	23.565
598.42	23.325
598.76	22.294
599.09	21.855
599.42	22.271
599.76	21.889
600.09	21.566
600.42	21.366
600.76	21.214
601.09	21.275
601.42	22.527
601.76	21.708
602.09	22.569
602.42	23.248
602.76	23.136
603.09	22.738
603.42	22.413
603.76	21.684
604.09	22.140
604.42	22.258
604.76	23.113
605.09	22.455
605.42	22.659
605.75	22.517
606.09	22.041
606.42	22.926
606.75	22.397
607.09	22.645
607.42	22.679
607.75	22.700
608.08	22.232
608.42	23.084
608.75	22.768
609.08	22.895
609.41	22.941
609.75	22.773
610.08	24.317
610.41	22.346
610.74	23.132
611.07	24.259
611.41	22.522
611.74	23.177
612.07	24.172
612.40	24.869
612.73	24.053
613.07	23.599
613.40	24.118
613.73	23.335
614.06	23.710
614.39	24.227
614.72	24.053
615.06	24.370
615.39	23.673
615.72	23.466
616.05	23.817
616.38	25.069
616.71	25.475
617.05	25.383
617.38	25.616
617.71	25.045
618.04	25.300
618.37	24.897
618.70	25.389
619.03	26.711
619.36	25.730
619.69	25.704
620.03	26.648
620.36	27.406
620.69	26.575
621.02	27.065
621.35	27.016
621.68	26.791
622.01	26.858
622.34	28.517
622.67	26.768
623.00	27.073
623.33	26.876
623.66	27.162
623.99	27.025
624.32	26.320
624.65	25.847
624.99	25.425
625.32	26.285
625.65	27.573
625.98	27.825
626.31	27.449
626.64	29.388
626.97	28.761
627.30	27.681
627.63	28.876
627.96	27.502
628.29	30.009
628.62	28.179
628.95	31.132
629.28	29.562
629.61	29.973
629.94	29.714
630.26	29.361
630.59	29.933
630.92	30.843
631.25	29.319
631.58	30.330
631.91	30.122
632.24	30.591
632.57	31.794
632.90	31.031
633.23	33.221
633.56	32.090
633.89	31.710
634.22	32.463
634.55	33.609
634.88	32.695
635.20	33.094
635.53	33.614
635.86	31.436
636.19	30.588
636.52	32.411
636.85	31.959
637.18	31.452
637.51	32.979
637.83	29.716
638.16	32.737
638.49	34.509
638.82	33.502
639.15	32.875
639.48	32.045
639.81	34.987
640.13	34.115
640.46	34.094
640.79	34.346
641.12	33.563
641.45	35.196
641.77	37.703
642.10	34.211
642.43	36.036
642.76	36.223
643.09	36.656
643.41	34.294
643.74	36.883
644.07	35.823
644.40	36.810
644.73	35.591
645.05	37.876
645.38	34.913
645.71	37.037
646.04	35.714
646.36	38.564
646.69	37.960
647.02	37.415
647.35	38.488
647.67	37.345
648.00	36.911
648.33	36.304
648.66	35.152
648.98	36.282
649.31	34.978
649.64	34.978
649.96	34.128
650.29	36.177
650.62	36.893
650.94	36.305
651.27	37.162
651.60	37.937
651.92	36.581
652.25	34.202
652.58	35.670
652.90	37.441
653.23	32.820
653.56	33.701
653.88	37.718
654.21	37.125
654.54	38.449
654.86	35.047
655.19	33.243
655.52	20.442
655.84	15.925
656.17	20.098
656.49	27.331
656.82	27.703
657.15	20.997
657.47	15.835
657.80	12.393
658.13	12.923
658.45	20.118
658.78	20.821
659.10	21.697
659.43	22.668
659.75	24.297
660.08	26.962
660.41	31.657
660.73	35.451
661.06	34.554
661.38	38.182
661.71	41.154
662.03	38.659
662.36	39.165
662.68	37.149
663.01	40.606
663.33	41.189
663.66	38.866
663.98	41.037
664.31	40.126
664.63	39.879
664.96	36.620
665.28	41.803
665.61	38.791
665.93	38.431
666.26	38.337
666.58	38.285
666.91	39.535
667.23	40.225
667.56	41.253
667.88	41.880
668.21	41.151
668.53	40.347
668.86	41.558
669.18	40.512
669.50	39.783
669.83	44.444
670.15	41.778
670.48	39.651
670.80	38.578
671.13	37.792
671.45	40.000
671.77	39.104
672.10	37.153
672.42	37.456
672.75	34.494
673.07	35.915
673.39	36.347
673.72	37.109
674.04	37.255
674.37	37.864
674.69	38.855
675.01	36.402
675.34	41.068
675.66	42.105
675.98	41.141
676.31	40.336
676.63	43.312
676.95	39.623
677.28	39.252
677.60	39.780
677.92	43.249
678.25	39.836
678.57	38.845
678.89	36.273
679.22	39.686
679.54	35.305
679.86	37.431
680.18	34.884
680.51	36.702
680.83	35.231
681.15	37.358
681.48	37.429
681.80	36.944
682.12	34.100
682.44	34.429
682.77	37.678
683.09	41.416
683.41	40.355
683.73	40.618
684.06	39.876
684.38	37.965
684.70	35.853
685.02	38.086
685.34	34.982
685.67	34.441
685.99	34.880
686.31	34.642
686.63	32.686
686.96	36.607
687.28	35.560
687.60	34.239
687.92	37.112
688.24	35.551
688.56	38.153
688.89	37.344
689.21	37.336
689.53	40.084
689.85	39.690
690.17	37.474
690.49	39.066
690.82	40.187
691.14	37.054
691.46	37.975
691.78	36.747
692.10	39.256
692.42	39.122
692.74	36.722
693.06	35.106
693.39	38.604
693.71	39.520
694.03	37.684
694.35	37.879
694.67	40.503
694.99	40.488
695.31	40.931
695.63	38.995
695.95	42.298
696.27	39.848
696.59	41.192
696.91	42.746
697.23	38.732
697.56	37.313
697.88	35.378
698.20	35.833
698.52	38.065
698.84	38.085
699.16	38.479
699.48	38.955
699.80	41.304
700.12	45.195
700.44	43.767
700.76	45.304
701.08	43.966
701.40	44.693
701.72	45.773
702.04	46.307
702.36	43.909
702.68	40.793
703.00	43.213
703.32	39.096
703.64	41.287
703.96	46.518
704.28	41.860
704.60	45.161
704.91	43.323
705.23	46.628
705.55	47.508
705.87	52.159
706.19	49.470
706.51	42.368
706.83	49.394
707.15	41.737
707.47	39.646
707.79	39.312
708.11	39.041
708.43	35.476
708.74	39.031
709.06	42.597
709.38	39.633
709.70	45.058
710.02	43.323
710.34	39.394
710.66	40.597
710.98	41.761
711.29	44.477
711.61	44.543
711.93	46.154
712.25	49.518
712.57	47.794
712.89	44.983
713.20	46.201
713.52	43.092
713.84	43.354
714.16	42.683
714.48	41.667
714.80	48.632
715.11	41.499
715.43	40.356
715.75	39.130
716.07	48.243
716.39	39.185
716.70	48.837
717.02	48.201
717.34	47.350
717.66	54.104
717.97	54.183
718.29	50.000
718.61	46.715
718.93	49.632
719.24	48.097
719.56	45.424
719.88	46.102
720.20	45.608
720.51	48.780
720.83	51.301
721.15	45.149
721.46	47.872
721.78	51.254
722.10	49.434
722.42	52.256
722.73	47.566
723.05	47.131
723.37	46.154
723.68	49.035
724.00	50.813
724.32	48.387
724.63	44.715
724.95	47.699
725.27	50.607
725.58	48.437
725.90	51.825
726.22	49.811
726.53	45.833
726.85	46.758
727.16	44.128
727.48	47.872
727.80	45.455
728.11	48.188
728.43	50.385
728.74	46.237
729.06	51.825
729.38	48.897
729.69	48.399
730.01	42.321
730.32	43.403
730.64	45.485
730.96	42.904
731.27	46.358
731.59	42.202
731.90	41.108
732.22	45.031
732.53	39.938
732.85	42.308
733.16	39.871
733.48	45.847
733.80	43.831
734.11	44.586
734.43	39.645
734.74	39.429
735.06	35.244
735.37	42.775
735.69	40.127
736.00	41.830
736.32	46.106
736.63	44.089
736.95	40.895
737.26	39.116
737.58	42.258
737.89	46.488
738.21	45.734
738.52	41.786
738.83	45.283
739.15	45.385
739.46	49.270
739.78	44.097
740.09	42.769
740.41	42.581
740.72	41.812
741.04	47.407
741.35	43.750
741.66	54.667
741.98	53.774
742.29	54.545
742.61	52.155
742.92	49.774
743.23	55.556
743.55	53.200
743.86	50.000
744.18	52.655
744.49	56.938
744.80	55.399
745.12	50.909
745.43	51.982
745.74	49.550
746.06	52.752
746.37	55.605
746.68	53.394
747.00	52.315
747.31	53.810
747.62	48.673
747.94	50.661
748.25	46.809
748.56	52.423
748.88	53.960
749.19	64.000
749.50	51.628
749.82	46.748
750.13	45.306
750.44	44.161
750.75	44.561
751.07	46.624
751.38	43.206
751.69	46.209
752.01	43.609
752.32	44.404
752.63	45.035
752.94	47.951
753.26	52.800
753.57	46.341
753.88	50.391
754.19	42.857
754.51	50.000
754.82	46.931
755.13	46.792
755.44	46.241
755.75	47.080
756.07	47.872
756.38	42.701
756.69	45.638
757.00	41.916
757.31	39.169
757.63	39.766
757.94	37.534
758.25	36.765
758.56	36.790
758.87	37.634
759.18	42.121
759.50	39.812
759.81	42.368
760.12	39.688
760.43	40.974
760.74	38.315
761.05	34.746
761.36	34.225
761.67	38.920
761.99	40.994
762.30	44.444
762.61	46.565
762.92	48.047
763.23	46.218
763.54	46.000
763.85	43.359
764.16	49.231
764.47	46.768
764.78	42.049
765.10	37.025
765.41	42.478
765.72	39.820
766.03	42.320
766.34	43.667
766.65	51.064
766.96	50.427
767.27	53.299
767.58	55.729
767.89	60.526
768.20	59.195
768.51	52.284
768.82	54.128
769.13	46.341
769.44	46.154
769.75	52.790
770.06	45.872
770.37	55.204
770.68	51.389
770.99	46.667
771.30	39.754
771.61	49.327
771.92	50.410
772.23	49.580
772.54	53.846
772.85	59.162
773.16	53.723
773.47	54.891
773.78	57.360
774.09	58.333
774.39	60.819
774.70	56.173
775.01	69.565
775.32	66.013
775.63	61.842
775.94	63.309
776.25	73.228
776.56	62.687
776.87	74.590
777.18	65.625
777.48	77.099
777.79	71.970
778.10	74.815
778.41	77.679
778.72	62.044
779.03	61.745
779.34	60.403
779.65	56.081
779.95	60.736
780.26	63.399
780.57	65.517
780.88	82.031
781.19	66.917
781.50	56.081
781.80	62.264
782.11	51.412
782.42	56.329
782.73	53.374
783.04	70.946
783.34	64.085
783.65	74.658
783.96	71.642
784.27	56.643
784.57	56.115
784.88	62.037
785.19	73.016
785.50	69.811
785.81	72.388
786.11	72.131
786.42	76.744
786.73	77.876
787.04	72.642
787.34	74.107
787.65	82.000
787.96	78.378
788.26	69.421
788.57	73.729
788.88	80.165
789.19	71.528
789.49	78.788
789.80	70.229
790.11	80.952
790.41	85.149
790.72	85.542
791.03	91.304
791.33	77.907
791.64	91.753
791.95	84.158
792.25	77.778
792.56	107.792
792.87	102.564
793.17	113.924
793.48	97.701
793.79	75.862
794.09	98.864
794.40	73.109
794.70	75.735
795.01	63.704
795.32	64.748
795.62	68.504
795.93	66.379
796.23	82.301
796.54	87.059
796.85	97.297
797.15	115.493
797.46	109.091
797.76	100.000
798.07	89.873
798.37	113.846
798.68	110.606
798.99	95.775
799.29	96.104
799.60	90.909
799.90	100.000
800.21	134.328
800.51	125.862
800.82	142.105
801.12	118.033
801.43	112.121
801.73	113.514
802.04	117.460
802.34	96.296
802.65	115.625
802.95	149.153
803.26	128.125
803.56	91.429
803.87	109.231
804.17	126.471
804.48	137.037
804.78	113.793
805.09	105.882
805.39	132.692
805.70	110.714
806.00	127.869
806.30	104.545
806.61	92.683
806.91	100.000
807.22	89.474
807.52	98.507
807.83	100.000
808.13	95.312
808.43	121.667
808.74	90.789
809.04	105.797
809.35	107.463
809.65	93.421
809.95	125.806
810.26	122.034
810.56	125.397
810.86	170.455
811.17	171.429
811.47	131.667
811.77	131.481
812.08	121.818
812.38	148.000
812.69	161.111
812.99	168.182
813.29	181.633
813.59	130.952
813.90	148.980
814.20	116.364
814.50	100.000
814.81	117.647
815.11	120.408
815.41	122.951
815.72	157.143
816.02	156.364
816.32	152.381
816.62	155.000
816.93	160.976
817.23	166.667
817.53	159.091
817.84	172.727
818.14	163.043
818.44	144.444
818.74	194.118
819.04	130.000
819.35	148.571
819.65	170.588
819.95	203.571
820.25	265.000
820.56	176.923
820.86	165.909
821.16	181.395
821.46	156.410
821.76	146.000
822.07	165.714
822.37	150.000
822.67	215.152
822.97	121.569
823.27	260.714
823.57	167.568
823.88	190.000
824.18	240.000
824.48	173.810
824.78	268.000
825.08	212.500
825.38	170.270
825.69	136.585
825.99	254.167
826.29	224.138
826.59	186.842
826.89	171.053
827.19	223.529
827.49	212.903
827.79	168.182
828.09	177.273
828.39	129.787
828.70	126.531
829.00	200.000
829.30	200.000
829.60	185.000
829.90	280.000
830.20	203.571
830.50	230.435
830.80	213.043
831.10	206.667
831.40	213.333
831.70	269.565
832.00	257.692
832.30	237.037
832.60	306.250
832.90	256.667
833.20	492.857
833.50	190.323
833.80	224.138
834.10	231.250
834.40	276.923
834.70	316.667
835.00	333.333
835.30	174.286
835.60	346.154
835.90	231.034
836.20	414.286
836.50	251.724
836.80	232.000
837.10	205.556
837.40	300.000
837.70	382.353
838.00	240.741
838.30	300.000
838.60	309.524
838.90	234.615
839.19	340.000
839.49	442.857
839.79	380.000
840.09	345.000
840.39	314.286
840.69	300.000
840.99	261.111
841.29	550.000
841.59	475.000
841.88	418.750
842.18	189.655
842.48	309.524
842.78	203.333
843.08	260.870
843.38	209.375
843.68	1100.000
843.97	246.154
844.27	155.172
844.57	328.571
844.87	387.500
845.17	277.778
845.47	1766.667
845.76	544.444
846.06	352.941
846.36	600.000
846.66	371.429
846.96	393.750
847.25	527.273
847.55	372.727
847.85	265.217
848.15	620.000
848.44	328.571
848.74	261.111
849.04	311.765
849.34	550.000
849.63	331.579
849.93	409.091
850.23	1020.000
850.53	442.857
850.82	2750.000
851.12	-5500.000
851.42	5400.000
851.71	310.000
852.01	-1733.333
852.31	279.167
852.61	1833.333
852.90	290.476
853.20	232.000
853.50	411.765
853.79	257.143
854.09	266.667
854.39	343.750
854.68	205.405
854.98	212.903
855.28	233.333
855.57	217.241
855.87	274.074
856.17	263.158
856.46	293.333
856.76	323.529
857.05	227.586
857.35	237.500
857.65	393.333
857.94	273.913
858.24	219.231
858.53	380.000
858.83	295.455
859.13	360.000
859.42	0.000
859.72	555.556
860.01	463.636
860.31	268.182
860.60	331.579
860.90	265.217
861.20	477.778
861.49	475.000
861.79	-5100.000
862.08	675.000
862.38	309.524
862.67	338.462
862.97	388.235
863.26	700.000
863.56	288.889
863.85	525.000
864.15	750.000
864.44	446.667
864.74	1000.000
865.03	787.500
865.33	326.316
865.62	518.182
865.92	446.154
866.21	466.667
866.51	0.000
866.80	472.727
867.10	1120.000
867.39	476.923
867.69	518.182
867.98	321.053
868.27	463.636
868.57	331.579
868.86	-5200.000
869.16	431.250
869.45	2850.000
869.75	-4400.000
870.04	508.333
870.33	800.000
870.63	1400.000
870.92	2900.000
871.22	985.714
871.51	370.588
871.80	252.381
872.10	400.000
>>>>>End Processed Spectral Data<<<<<
