SpectraSuite Data File
++++++++++++++++++++++++++++++++++++
Date: Wed May 13 19:45:21 PDT 2015
User: schluterlab
Dark Spectrum Present: Yes
Reference Spectrum Present: Yes
Number of Sampled Component Spectra: 1
Spectrometers: USB2E3373
Integration Time (usec): 3000 (USB2E3373)
Spectra Averaged: 3 (USB2E3373)
Boxcar Smoothing: 0 (USB2E3373)
Correct for Electrical Dark: No (USB2E3373)
Strobe/Lamp Enabled: No (USB2E3373)
Correct for Detector Non-linearity: No (USB2E3373)
Correct for Stray Light: No (USB2E3373)
Number of Pixels in Processed Spectrum: 2048
>>>>>Begin Processed Spectral Data<<<<<
178.53	0.000
178.91	-1350.000
179.29	-1250.000
179.67	-211.111
180.04	-1275.000
180.42	2700.000
180.80	1060.000
181.18	-1300.000
181.56	628.571
181.94	0.000
182.31	-685.714
182.69	2000.000
183.07	-737.500
183.45	-577.778
183.83	536.364
184.20	-450.000
184.58	2350.000
184.96	5000.000
185.34	-720.000
185.72	-512.500
186.09	-2300.000
186.47	3050.000
186.85	2550.000
187.23	4800.000
187.61	-1666.667
187.98	1350.000
188.36	490.909
188.74	427.273
189.12	-1080.000
189.49	570.000
189.87	-5100.000
190.25	-1300.000
190.63	471.429
191.00	523.077
191.38	733.333
191.76	-1025.000
192.14	1325.000
192.51	625.000
192.89	1050.000
193.27	650.000
193.65	-1500.000
194.02	480.000
194.40	960.000
194.78	580.000
195.15	566.667
195.53	600.000
195.91	-1550.000
196.29	431.250
196.66	310.526
197.04	-380.000
197.42	0.000
197.79	570.000
198.17	-5000.000
198.55	642.857
198.92	775.000
199.30	880.000
199.68	0.000
200.05	288.889
200.43	714.286
200.81	4700.000
201.18	1700.000
201.56	-1666.667
201.94	655.556
202.31	544.444
202.69	400.000
203.07	580.000
203.44	0.000
203.82	1075.000
204.19	828.571
204.57	471.429
204.95	637.500
205.32	1900.000
205.70	418.182
206.08	364.286
206.45	2950.000
206.83	412.500
207.20	966.667
207.58	960.000
207.96	327.778
208.33	875.000
208.71	-816.667
209.08	842.857
209.46	677.778
209.84	463.636
210.21	-1666.667
210.59	1425.000
210.96	-512.500
211.34	2500.000
211.71	490.000
212.09	766.667
212.46	0.000
212.84	1533.333
213.22	1400.000
213.59	-4900.000
213.97	916.667
214.34	742.857
214.72	563.636
215.09	1040.000
215.47	-2400.000
215.84	-1950.000
216.22	1833.333
216.59	378.571
216.97	1150.000
217.34	481.818
217.72	-900.000
218.09	0.000
218.47	-5900.000
218.84	722.222
219.22	728.571
219.59	1800.000
219.97	-685.714
220.34	1040.000
220.72	-1800.000
221.09	428.571
221.47	1525.000
221.84	-950.000
222.22	0.000
222.59	1350.000
222.97	-2200.000
223.34	1100.000
223.72	446.154
224.09	1100.000
224.46	2550.000
224.84	-4700.000
225.21	-1140.000
225.59	-5300.000
225.96	640.000
226.34	285.000
226.71	2450.000
227.08	762.500
227.46	590.000
227.83	-1225.000
228.21	-2400.000
228.58	644.444
228.95	-2400.000
229.33	-2250.000
229.70	1666.667
230.08	757.143
230.45	-1020.000
230.82	483.333
231.20	883.333
231.57	685.714
231.95	508.333
232.32	277.273
232.69	481.818
233.07	685.714
233.44	430.769
233.81	-2066.667
234.19	300.000
234.56	433.333
234.93	441.667
235.31	545.455
235.68	376.923
236.05	421.429
236.43	154.545
236.80	289.474
237.17	4400.000
237.55	285.714
237.92	210.714
238.29	252.381
238.67	212.903
239.04	193.103
239.41	155.556
239.79	106.522
240.16	138.095
240.53	127.273
240.91	107.843
241.28	124.000
241.65	98.000
242.02	111.594
242.40	103.226
242.77	111.667
243.14	61.290
243.51	85.393
243.89	62.353
244.26	62.222
244.63	58.065
245.00	65.957
245.38	65.347
245.75	48.598
246.12	56.881
246.49	67.153
246.87	65.600
247.24	62.308
247.61	53.571
247.98	56.209
248.36	45.270
248.73	41.401
249.10	56.051
249.47	43.503
249.84	44.920
250.22	45.989
250.59	46.746
250.96	42.424
251.33	42.654
251.70	39.604
252.08	43.333
252.45	38.565
252.82	38.696
253.19	38.723
253.56	35.686
253.94	39.004
254.31	34.766
254.68	40.000
255.05	35.424
255.42	30.894
255.79	32.721
256.16	35.740
256.54	30.389
256.91	35.943
257.28	32.374
257.65	33.003
258.02	29.814
258.39	29.022
258.76	28.763
259.14	31.845
259.51	29.483
259.88	29.193
260.25	30.816
260.62	26.301
260.99	28.261
261.36	31.532
261.73	31.519
262.10	29.070
262.47	29.296
262.85	27.855
263.22	24.501
263.59	30.769
263.96	27.747
264.33	26.632
264.70	27.895
265.07	28.133
265.44	23.990
265.81	27.494
266.18	26.884
266.55	26.098
266.92	28.256
267.29	25.231
267.66	26.835
268.03	27.500
268.40	26.636
268.77	25.776
269.14	26.577
269.51	26.862
269.88	26.807
270.25	23.928
270.62	24.270
270.99	29.677
271.36	24.893
271.73	24.766
272.10	22.826
272.47	23.871
272.84	24.026
273.21	25.367
273.58	24.236
273.95	25.577
274.32	23.760
274.69	25.268
275.06	23.622
275.43	27.234
275.80	25.251
276.17	24.236
276.54	26.611
276.91	24.901
277.28	21.484
277.65	21.663
278.02	22.774
278.39	24.414
278.76	25.273
279.13	25.094
279.50	24.209
279.87	25.299
280.23	25.150
280.60	23.211
280.97	23.105
281.34	23.717
281.71	23.455
282.08	23.992
282.45	24.727
282.82	22.735
283.19	20.499
283.56	23.158
283.92	22.166
284.29	22.399
284.66	21.416
285.03	21.700
285.40	23.768
285.77	22.391
286.14	21.244
286.51	21.833
286.87	22.051
287.24	22.150
287.61	22.632
287.98	22.078
288.35	20.444
288.72	19.470
289.08	21.283
289.45	21.417
289.82	19.024
290.19	22.292
290.56	20.368
290.93	18.127
291.29	19.632
291.66	19.469
292.03	22.238
292.40	19.677
292.77	18.639
293.13	19.104
293.50	19.825
293.87	19.111
294.24	18.370
294.60	19.214
294.97	18.314
295.34	18.195
295.71	19.460
296.08	18.376
296.44	16.781
296.81	18.362
297.18	19.648
297.55	15.303
297.91	17.150
298.28	18.340
298.65	17.232
299.02	16.996
299.38	17.530
299.75	15.768
300.12	15.709
300.48	17.250
300.85	17.879
301.22	17.197
301.59	15.783
301.95	17.128
302.32	15.533
302.69	16.487
303.05	17.576
303.42	16.667
303.79	17.214
304.15	16.317
304.52	14.600
304.89	15.215
305.25	16.125
305.62	17.101
305.99	15.939
306.35	16.219
306.72	16.816
307.09	17.647
307.45	17.117
307.82	15.067
308.19	16.777
308.55	16.289
308.92	16.541
309.29	15.945
309.65	15.270
310.02	15.962
310.38	16.667
310.75	16.895
311.12	17.400
311.48	17.659
311.85	18.029
312.22	15.297
312.58	16.840
312.95	17.740
313.31	16.408
313.68	17.879
314.05	20.316
314.41	18.191
314.78	18.026
315.14	18.471
315.51	18.641
315.87	19.010
316.24	19.960
316.61	19.688
316.97	19.472
317.34	20.450
317.70	21.224
318.07	21.559
318.43	22.994
318.80	22.868
319.16	23.070
319.53	21.576
319.89	23.619
320.26	25.400
320.62	26.190
320.99	25.455
321.35	27.374
321.72	28.131
322.08	29.220
322.45	30.846
322.81	31.202
323.18	31.310
323.54	30.798
323.91	33.585
324.27	33.270
324.64	33.644
325.00	33.724
325.37	36.761
325.73	37.074
326.10	38.394
326.46	38.351
326.83	39.689
327.19	41.076
327.56	40.157
327.92	42.607
328.29	42.059
328.65	44.843
329.01	44.495
329.38	44.773
329.74	45.891
330.11	45.994
330.47	47.107
330.84	47.335
331.20	48.179
331.56	48.257
331.93	50.648
332.29	48.980
332.66	48.496
333.02	49.452
333.38	50.045
333.75	50.267
334.11	49.822
334.48	50.843
334.84	51.471
335.20	50.818
335.57	51.587
335.93	50.714
336.29	50.824
336.66	51.578
337.02	50.498
337.38	51.481
337.75	50.267
338.11	52.193
338.47	51.750
338.84	52.796
339.20	51.835
339.56	53.376
339.93	51.727
340.29	52.627
340.65	51.515
341.02	52.443
341.38	52.580
341.74	52.368
342.11	51.441
342.47	52.952
342.83	51.712
343.20	53.074
343.56	51.306
343.92	51.579
344.28	52.211
344.65	53.568
345.01	51.599
345.37	51.458
345.73	52.961
346.10	53.623
346.46	51.695
346.82	52.389
347.19	51.796
347.55	51.642
347.91	52.265
348.27	51.849
348.63	51.923
349.00	50.890
349.36	51.642
349.72	50.842
350.08	51.540
350.45	53.539
350.81	51.259
351.17	52.593
351.53	52.416
351.89	52.228
352.26	53.118
352.62	53.809
352.98	52.107
353.34	52.506
353.70	51.637
354.07	52.581
354.43	52.063
354.79	52.373
355.15	52.035
355.51	53.317
355.87	51.918
356.24	51.303
356.60	51.965
356.96	52.936
357.32	51.922
357.68	53.543
358.04	52.811
358.40	51.861
358.77	50.861
359.13	50.750
359.49	51.686
359.85	53.016
360.21	52.392
360.57	53.930
360.93	53.462
361.29	51.852
361.66	53.019
362.02	52.164
362.38	52.700
362.74	52.083
363.10	52.924
363.46	52.091
363.82	53.137
364.18	51.322
364.54	52.675
364.90	51.700
365.26	51.985
365.62	53.689
365.98	50.694
366.35	52.292
366.71	53.001
367.07	53.460
367.43	53.628
367.79	52.248
368.15	51.652
368.51	51.308
368.87	52.534
369.23	53.328
369.59	53.512
369.95	52.794
370.31	52.422
370.67	52.174
371.03	53.708
371.39	52.187
371.75	52.574
372.11	51.209
372.47	54.179
372.83	53.890
373.19	53.613
373.55	54.250
373.91	53.829
374.27	51.478
374.63	53.236
374.99	52.825
375.35	52.896
375.71	53.804
376.07	53.224
376.42	53.576
376.78	54.539
377.14	53.256
377.50	53.510
377.86	52.726
378.22	53.097
378.58	51.441
378.94	52.294
379.30	54.008
379.66	54.505
380.02	53.133
380.38	52.823
380.74	53.842
381.09	53.667
381.45	54.210
381.81	54.300
382.17	53.439
382.53	53.396
382.89	53.519
383.25	54.409
383.61	54.957
383.97	53.846
384.32	53.961
384.68	53.098
385.04	53.165
385.40	53.498
385.76	52.273
386.12	54.080
386.48	53.430
386.83	54.073
387.19	54.669
387.55	53.556
387.91	53.204
388.27	53.464
388.62	52.858
388.98	53.378
389.34	54.318
389.70	53.342
390.06	54.373
390.42	54.864
390.77	53.753
391.13	55.520
391.49	53.046
391.85	53.087
392.20	53.375
392.56	54.545
392.92	53.561
393.28	53.018
393.64	53.957
393.99	51.863
394.35	54.094
394.71	53.952
395.07	52.773
395.42	53.894
395.78	53.372
396.14	53.011
396.50	54.511
396.85	54.100
397.21	52.219
397.57	53.503
397.92	54.327
398.28	52.242
398.64	53.405
399.00	53.386
399.35	52.679
399.71	52.604
400.07	53.341
400.42	53.067
400.78	53.920
401.14	54.207
401.49	54.328
401.85	53.176
402.21	53.234
402.57	52.930
402.92	53.279
403.28	54.341
403.63	52.599
403.99	54.140
404.35	53.152
404.70	52.938
405.06	53.465
405.42	53.026
405.77	53.371
406.13	52.765
406.49	53.046
406.84	51.979
407.20	52.778
407.55	53.925
407.91	54.267
408.27	54.052
408.62	52.197
408.98	53.002
409.34	53.014
409.69	53.226
410.05	53.532
410.40	52.171
410.76	52.389
411.11	52.051
411.47	52.013
411.83	53.696
412.18	53.185
412.54	54.172
412.89	52.831
413.25	52.184
413.60	52.502
413.96	51.063
414.31	54.010
414.67	53.105
415.03	52.980
415.38	53.608
415.74	51.447
416.09	53.886
416.45	51.941
416.80	52.479
417.16	53.351
417.51	53.086
417.87	51.766
418.22	52.240
418.58	52.808
418.93	52.826
419.29	51.560
419.64	51.889
420.00	52.378
420.35	51.942
420.71	53.258
421.06	52.685
421.42	51.930
421.77	52.915
422.12	51.993
422.48	51.916
422.83	52.999
423.19	52.818
423.54	53.453
423.90	52.406
424.25	52.373
424.61	52.440
424.96	52.828
425.31	53.101
425.67	51.966
426.02	50.971
426.38	53.480
426.73	51.843
427.09	52.036
427.44	52.559
427.79	52.329
428.15	52.440
428.50	52.721
428.85	52.205
429.21	51.077
429.56	51.788
429.92	51.887
430.27	51.043
430.62	50.998
430.98	51.790
431.33	50.979
431.68	51.937
432.04	50.799
432.39	51.513
432.74	52.723
433.10	52.179
433.45	53.994
433.80	52.217
434.16	51.709
434.51	51.789
434.86	51.995
435.22	52.029
435.57	52.280
435.92	52.077
436.28	52.610
436.63	52.925
436.98	52.833
437.34	52.892
437.69	53.209
438.04	51.546
438.39	52.418
438.75	52.121
439.10	53.184
439.45	52.834
439.81	52.508
440.16	52.005
440.51	53.251
440.86	53.619
441.22	51.557
441.57	52.229
441.92	53.122
442.27	52.906
442.63	52.396
442.98	53.521
443.33	52.228
443.68	52.297
444.03	52.513
444.39	52.629
444.74	51.732
445.09	52.237
445.44	51.832
445.79	52.202
446.15	51.720
446.50	52.827
446.85	51.696
447.20	53.187
447.55	52.820
447.91	52.344
448.26	52.142
448.61	52.233
448.96	52.713
449.31	53.487
449.66	51.998
450.02	51.588
450.37	51.417
450.72	52.284
451.07	52.651
451.42	51.733
451.77	52.143
452.12	52.367
452.47	51.430
452.83	52.972
453.18	53.056
453.53	52.752
453.88	51.802
454.23	52.481
454.58	52.211
454.93	53.083
455.28	51.870
455.63	51.699
455.98	53.452
456.34	51.131
456.69	52.286
457.04	52.136
457.39	51.490
457.74	51.016
458.09	51.696
458.44	51.653
458.79	50.597
459.14	51.411
459.49	50.671
459.84	51.911
460.19	50.972
460.54	50.000
460.89	51.015
461.24	52.277
461.59	52.469
461.94	51.171
462.29	52.522
462.64	50.734
462.99	50.943
463.34	51.800
463.69	51.845
464.04	51.652
464.39	51.826
464.74	51.099
465.09	52.232
465.44	50.859
465.79	50.727
466.14	50.356
466.49	50.000
466.84	51.372
467.19	50.996
467.54	52.062
467.89	49.640
468.24	50.669
468.59	52.259
468.94	50.886
469.29	51.542
469.64	50.736
469.99	51.218
470.34	51.453
470.68	52.083
471.03	51.020
471.38	51.842
471.73	50.700
472.08	52.697
472.43	50.063
472.78	51.745
473.13	50.834
473.48	51.436
473.83	51.159
474.17	50.529
474.52	51.489
474.87	51.430
475.22	51.016
475.57	49.221
475.92	50.398
476.27	50.282
476.61	50.469
476.96	50.137
477.31	49.712
477.66	50.383
478.01	49.294
478.36	49.921
478.70	50.363
479.05	50.000
479.40	51.535
479.75	50.178
480.10	49.602
480.45	48.929
480.79	48.447
481.14	50.636
481.49	49.454
481.84	49.017
482.19	49.478
482.53	48.807
482.88	48.488
483.23	50.654
483.58	49.045
483.92	49.391
484.27	48.017
484.62	48.578
484.97	47.536
485.31	48.151
485.66	46.362
486.01	45.578
486.36	44.312
486.70	43.960
487.05	44.204
487.40	46.144
487.75	46.057
488.09	47.831
488.44	47.698
488.79	48.391
489.13	48.243
489.48	48.532
489.83	48.727
490.17	48.663
490.52	47.786
490.87	48.440
491.22	48.340
491.56	47.153
491.91	47.464
492.26	48.048
492.60	48.341
492.95	47.895
493.30	47.710
493.64	48.857
493.99	48.143
494.34	49.075
494.68	48.306
495.03	48.214
495.37	46.812
495.72	49.074
496.07	48.538
496.41	46.681
496.76	47.361
497.11	47.141
497.45	47.368
497.80	46.977
498.14	47.681
498.49	48.585
498.84	47.699
499.18	46.476
499.53	47.341
499.87	47.577
500.22	47.056
500.56	48.544
500.91	47.692
501.26	46.847
501.60	47.603
501.95	46.700
502.29	47.704
502.64	46.927
502.98	46.704
503.33	46.846
503.67	47.981
504.02	46.352
504.36	46.607
504.71	47.289
505.06	46.843
505.40	47.302
505.75	46.721
506.09	47.036
506.44	47.805
506.78	47.248
507.13	46.946
507.47	46.717
507.82	46.960
508.16	48.176
508.51	48.453
508.85	46.028
509.19	46.735
509.54	48.010
509.88	46.780
510.23	46.221
510.57	49.174
510.92	47.385
511.26	47.174
511.61	47.044
511.95	46.660
512.30	47.614
512.64	47.018
512.98	47.106
513.33	46.520
513.67	47.065
514.02	46.807
514.36	48.334
514.70	46.984
515.05	47.351
515.39	46.831
515.74	46.340
516.08	46.674
516.42	47.669
516.77	47.269
517.11	46.559
517.46	47.065
517.80	46.864
518.14	45.918
518.49	47.841
518.83	47.614
519.17	47.229
519.52	46.972
519.86	46.777
520.20	47.283
520.55	47.995
520.89	47.749
521.23	45.657
521.58	47.779
521.92	47.091
522.26	45.455
522.61	47.664
522.95	48.189
523.29	47.292
523.64	47.439
523.98	48.490
524.32	47.768
524.66	46.302
525.01	47.610
525.35	46.716
525.69	45.443
526.04	46.231
526.38	46.797
526.72	46.442
527.06	47.207
527.41	44.616
527.75	47.138
528.09	48.426
528.43	46.526
528.78	46.281
529.12	46.000
529.46	47.765
529.80	46.225
530.15	46.480
530.49	45.600
530.83	46.456
531.17	47.324
531.51	47.536
531.86	47.871
532.20	47.132
532.54	45.996
532.88	46.406
533.22	44.785
533.57	45.802
533.91	45.214
534.25	46.051
534.59	45.027
534.93	44.319
535.27	45.625
535.62	45.910
535.96	46.077
536.30	45.391
536.64	45.074
536.98	46.516
537.32	45.095
537.66	45.933
538.01	46.478
538.35	46.348
538.69	47.160
539.03	44.379
539.37	44.984
539.71	44.394
540.05	45.490
540.39	45.382
540.73	44.308
541.07	45.814
541.42	46.380
541.76	46.194
542.10	45.925
542.44	46.026
542.78	45.850
543.12	44.850
543.46	45.639
543.80	46.324
544.14	43.132
544.48	45.460
544.82	44.516
545.16	44.697
545.50	44.023
545.84	44.355
546.18	44.310
546.52	46.318
546.86	47.491
547.20	45.516
547.54	44.957
547.88	45.855
548.22	44.645
548.56	43.774
548.90	43.022
549.24	42.963
549.58	44.679
549.92	44.780
550.26	45.099
550.60	44.467
550.94	44.155
551.28	44.038
551.62	44.716
551.96	44.140
552.30	44.778
552.64	46.045
552.98	44.203
553.32	43.763
553.66	44.990
554.00	44.269
554.34	43.892
554.68	44.707
555.02	44.358
555.36	43.772
555.69	43.505
556.03	43.943
556.37	44.679
556.71	43.520
557.05	44.818
557.39	43.457
557.73	43.825
558.07	45.033
558.41	44.356
558.75	44.526
559.08	44.444
559.42	44.747
559.76	45.147
560.10	43.326
560.44	43.187
560.78	43.180
561.12	42.546
561.45	44.459
561.79	43.375
562.13	43.796
562.47	43.716
562.81	43.236
563.15	42.074
563.48	42.772
563.82	43.053
564.16	42.511
564.50	42.773
564.84	41.783
565.17	42.342
565.51	43.642
565.85	43.020
566.19	41.703
566.52	42.432
566.86	41.531
567.20	43.219
567.54	41.153
567.88	40.413
568.21	41.376
568.55	41.355
568.89	40.613
569.23	39.750
569.56	38.785
569.90	38.868
570.24	38.393
570.57	37.742
570.91	37.136
571.25	37.770
571.59	37.408
571.92	37.010
572.26	37.291
572.60	38.228
572.93	37.391
573.27	37.090
573.61	36.963
573.95	37.158
574.28	36.457
574.62	36.808
574.96	36.296
575.29	36.009
575.63	36.585
575.97	36.188
576.30	36.803
576.64	36.240
576.98	36.509
577.31	36.345
577.65	36.417
577.98	36.188
578.32	35.504
578.66	36.101
578.99	36.110
579.33	35.706
579.67	35.563
580.00	36.250
580.34	35.691
580.67	35.973
581.01	36.047
581.35	35.631
581.68	35.447
582.02	35.071
582.35	35.009
582.69	35.513
583.02	35.468
583.36	36.200
583.70	36.414
584.03	36.102
584.37	36.522
584.70	36.285
585.04	36.252
585.37	35.648
585.71	36.067
586.04	35.782
586.38	36.729
586.72	36.095
587.05	35.126
587.39	35.277
587.72	35.455
588.06	35.886
588.39	35.665
588.73	35.846
589.06	36.242
589.40	37.374
589.73	36.888
590.07	36.868
590.40	36.208
590.73	37.002
591.07	37.892
591.40	37.621
591.74	38.182
592.07	37.478
592.41	37.247
592.74	36.292
593.08	35.610
593.41	36.476
593.75	34.978
594.08	35.836
594.41	36.232
594.75	36.266
595.08	36.328
595.42	36.392
595.75	35.684
596.09	37.063
596.42	36.857
596.75	37.906
597.09	37.662
597.42	36.172
597.75	36.956
598.09	37.000
598.42	35.438
598.76	35.468
599.09	36.222
599.42	34.825
599.76	35.652
600.09	35.556
600.42	35.135
600.76	35.179
601.09	36.284
601.42	36.187
601.76	36.205
602.09	36.285
602.42	36.346
602.76	36.759
603.09	36.153
603.42	36.119
603.76	35.785
604.09	35.440
604.42	35.997
604.76	36.862
605.09	37.134
605.42	35.827
605.75	35.679
606.09	35.746
606.42	35.676
606.75	36.458
607.09	35.831
607.42	35.944
607.75	35.148
608.08	35.389
608.42	35.814
608.75	35.347
609.08	35.430
609.41	36.078
609.75	36.160
610.08	36.004
610.41	35.475
610.74	36.140
611.07	36.462
611.41	36.114
611.74	37.506
612.07	37.164
612.40	37.618
612.73	36.632
613.07	36.961
613.40	37.019
613.73	35.606
614.06	36.935
614.39	35.029
614.72	36.684
615.06	37.237
615.39	36.518
615.72	35.481
616.05	35.832
616.38	35.853
616.71	37.589
617.05	37.102
617.38	37.222
617.71	36.817
618.04	37.320
618.37	36.665
618.70	37.834
619.03	37.434
619.36	37.542
619.69	39.366
620.03	38.187
620.36	37.500
620.69	38.562
621.02	37.832
621.35	38.058
621.68	37.850
622.01	38.777
622.34	37.746
622.67	38.783
623.00	37.931
623.33	37.741
623.66	37.098
623.99	38.292
624.32	36.805
624.65	37.006
624.99	36.544
625.32	37.944
625.65	38.317
625.98	38.125
626.31	37.403
626.64	38.449
626.97	39.318
627.30	37.323
627.63	38.884
627.96	39.781
628.29	39.370
628.62	39.341
628.95	40.849
629.28	39.872
629.61	39.963
629.94	40.000
630.26	40.229
630.59	38.608
630.92	41.284
631.25	39.388
631.58	40.040
631.91	41.379
632.24	40.506
632.57	41.028
632.90	40.680
633.23	40.157
633.56	40.904
633.89	41.676
634.22	40.068
634.55	41.893
634.88	41.557
635.20	43.130
635.53	41.566
635.86	41.584
636.19	41.176
636.52	40.715
636.85	41.810
637.18	40.092
637.51	40.780
637.83	39.334
638.16	42.583
638.49	41.562
638.82	41.719
639.15	39.625
639.48	42.519
639.81	41.555
640.13	42.187
640.46	42.416
640.79	42.272
641.12	41.678
641.45	42.598
641.77	42.857
642.10	42.836
642.43	42.643
642.76	43.344
643.09	45.552
643.41	41.730
643.74	45.525
644.07	44.817
644.40	44.632
644.73	43.465
645.05	43.106
645.38	40.600
645.71	41.385
646.04	43.355
646.36	46.077
646.69	45.652
647.02	42.857
647.35	44.845
647.67	44.248
648.00	43.415
648.33	43.069
648.66	40.909
648.98	42.279
649.31	41.256
649.64	44.096
649.96	42.921
650.29	42.654
650.62	42.071
650.94	42.950
651.27	43.919
651.60	44.925
651.92	41.214
652.25	41.531
652.58	41.277
652.90	42.654
653.23	41.448
653.56	41.575
653.88	42.314
654.21	41.706
654.54	43.399
654.86	42.212
655.19	37.838
655.52	26.838
655.84	24.410
656.17	31.918
656.49	43.445
656.82	45.052
657.15	34.566
657.47	25.679
657.80	19.586
658.13	20.640
658.45	30.813
658.78	31.627
659.10	32.294
659.43	34.309
659.75	35.552
660.08	38.734
660.41	40.782
660.73	44.981
661.06	43.153
661.38	44.182
661.71	42.885
662.03	46.943
662.36	42.545
662.68	44.779
663.01	41.616
663.33	45.648
663.66	43.277
663.98	46.004
664.31	46.008
664.63	42.510
664.96	41.851
665.28	45.082
665.61	41.326
665.93	43.863
666.26	43.205
666.58	46.444
666.91	44.186
667.23	46.966
667.56	41.685
667.88	44.658
668.21	45.416
668.53	45.553
668.86	43.506
669.18	44.776
669.50	45.000
669.83	46.623
670.15	46.000
670.48	42.702
670.80	43.750
671.13	44.161
671.45	42.553
671.77	42.770
672.10	43.808
672.42	41.696
672.75	40.464
673.07	38.028
673.39	40.506
673.72	41.992
674.04	42.745
674.37	40.777
674.69	44.376
675.01	41.213
675.34	45.791
675.66	44.000
675.98	42.159
676.31	44.538
676.63	44.798
676.95	41.090
677.28	42.523
677.60	43.956
677.92	45.359
678.25	40.862
678.57	43.426
678.89	43.086
679.22	42.436
679.54	42.176
679.86	41.835
680.18	39.177
680.51	41.489
680.83	41.459
681.15	41.509
681.48	42.722
681.80	42.360
682.12	40.230
682.44	39.072
682.77	43.992
683.09	44.850
683.41	44.124
683.73	44.592
684.06	42.355
684.38	40.313
684.70	41.860
685.02	40.713
685.34	37.546
685.67	39.860
685.99	38.832
686.31	40.956
686.63	38.869
686.96	39.286
687.28	38.809
687.60	37.319
687.92	41.682
688.24	40.114
688.56	41.767
688.89	41.494
689.21	43.013
689.53	41.962
689.85	44.568
690.17	38.509
690.49	43.312
690.82	46.262
691.14	41.071
691.46	42.616
691.78	40.562
692.10	42.975
692.42	40.918
692.74	40.456
693.06	40.638
693.39	40.452
693.71	41.703
694.03	40.421
694.35	40.693
694.67	39.817
694.99	43.415
695.31	40.196
695.63	42.823
695.95	46.944
696.27	43.909
696.59	44.041
696.91	45.078
697.23	40.376
697.56	41.578
697.88	37.219
698.20	38.750
698.52	41.505
698.84	41.648
699.16	40.553
699.48	42.043
699.80	41.787
700.12	46.494
700.44	48.276
700.76	43.094
701.08	48.851
701.40	43.296
701.72	51.312
702.04	47.727
702.36	41.643
702.68	45.326
703.00	45.429
703.32	38.298
703.64	43.432
703.96	45.125
704.28	44.477
704.60	45.455
704.91	45.104
705.23	48.974
705.55	50.166
705.87	53.156
706.19	49.470
706.51	45.794
706.83	48.182
707.15	45.938
707.47	41.162
707.79	42.506
708.11	39.041
708.43	38.810
708.74	41.837
709.06	41.558
709.38	43.307
709.70	45.930
710.02	42.730
710.34	44.242
710.66	46.269
710.98	43.750
711.29	45.640
711.61	47.493
711.93	46.795
712.25	45.981
712.57	48.897
712.89	49.135
713.20	43.769
713.52	44.737
713.84	47.785
714.16	41.463
714.48	40.805
714.80	49.544
715.11	44.957
715.43	44.214
715.75	45.507
716.07	44.089
716.39	43.260
716.70	44.518
717.02	51.799
717.34	46.290
717.66	49.254
717.97	54.582
718.29	46.296
718.61	48.905
718.93	46.324
719.24	41.869
719.56	41.695
719.88	47.797
720.20	48.986
720.51	50.523
720.83	49.442
721.15	45.149
721.46	45.390
721.78	46.595
722.10	48.679
722.42	48.120
722.73	47.566
723.05	47.951
723.37	46.964
723.68	49.807
724.00	47.967
724.32	47.984
724.63	46.748
724.95	44.770
725.27	50.202
725.58	53.125
725.90	45.255
726.22	46.415
726.53	45.833
726.85	46.758
727.16	44.128
727.48	42.199
727.80	44.697
728.11	48.188
728.43	48.462
728.74	47.312
729.06	50.730
729.38	49.265
729.69	45.552
730.01	42.662
730.32	42.361
730.64	40.803
730.96	41.914
731.27	48.675
731.59	43.119
731.90	46.356
732.22	44.410
732.53	41.486
732.85	41.667
733.16	42.122
733.48	42.525
733.80	40.260
734.11	46.815
734.43	39.053
734.74	39.429
735.06	39.542
735.37	43.642
735.69	42.357
736.00	49.673
736.32	46.417
736.63	41.534
736.95	41.853
737.26	37.415
737.58	41.290
737.89	45.151
738.21	48.123
738.52	46.786
738.83	37.736
739.15	47.692
739.46	42.701
739.78	43.056
740.09	43.692
740.41	40.968
740.72	39.721
741.04	48.889
741.35	46.667
741.66	48.444
741.98	49.528
742.29	56.459
742.61	50.862
742.92	48.416
743.23	44.872
743.55	48.400
743.86	42.982
744.18	50.442
744.49	56.459
744.80	51.643
745.12	52.727
745.43	47.577
745.74	57.207
746.06	48.624
746.37	50.224
746.68	50.226
747.00	49.537
747.31	52.381
747.62	47.345
747.94	49.339
748.25	44.681
748.56	49.339
748.88	50.495
749.19	59.500
749.50	47.907
749.82	42.276
750.13	43.673
750.44	44.161
750.75	45.965
751.07	47.910
751.38	42.160
751.69	46.931
752.01	44.737
752.32	44.043
752.63	48.227
752.94	43.033
753.26	50.800
753.57	42.683
753.88	47.656
754.19	42.500
754.51	44.792
754.82	39.711
755.13	48.679
755.44	41.729
755.75	41.971
756.07	46.099
756.38	43.431
756.69	42.282
757.00	36.826
757.31	38.576
757.63	33.918
757.94	38.070
758.25	36.765
758.56	35.802
758.87	35.753
759.18	39.394
759.50	37.304
759.81	40.498
760.12	35.625
760.43	40.115
760.74	36.413
761.05	37.006
761.36	35.829
761.67	39.489
761.99	36.646
762.30	42.361
762.61	45.802
762.92	44.141
763.23	49.160
763.54	47.200
763.85	39.453
764.16	46.923
764.47	45.247
764.78	41.343
765.10	39.557
765.41	38.348
765.72	36.527
766.03	40.439
766.34	37.333
766.65	55.319
766.96	43.590
767.27	53.299
767.58	52.604
767.89	56.316
768.20	59.195
768.51	48.223
768.82	46.789
769.13	47.154
769.44	43.320
769.75	46.781
770.06	41.284
770.37	49.321
770.68	48.148
770.99	51.111
771.30	39.754
771.61	46.188
771.92	47.951
772.23	49.160
772.54	50.256
772.85	48.691
773.16	50.000
773.47	49.457
773.78	53.807
774.09	55.952
774.39	54.971
774.70	54.321
775.01	58.696
775.32	64.706
775.63	59.868
775.94	61.871
776.25	74.803
776.56	63.433
776.87	65.574
777.18	69.531
777.48	71.756
777.79	66.667
778.10	74.074
778.41	67.857
778.72	54.745
779.03	57.718
779.34	58.389
779.65	54.730
779.95	53.988
780.26	55.556
780.57	62.759
780.88	76.563
781.19	62.406
781.50	56.757
781.80	58.491
782.11	55.932
782.42	56.329
782.73	42.945
783.04	54.730
783.34	60.563
783.65	57.534
783.96	64.925
784.27	59.441
784.57	53.237
784.88	63.889
785.19	70.635
785.50	68.868
785.81	70.149
786.11	70.492
786.42	64.341
786.73	61.062
787.04	73.585
787.34	66.071
787.65	80.000
787.96	66.667
788.26	69.421
788.57	69.492
788.88	77.686
789.19	68.056
789.49	68.182
789.80	66.412
790.11	76.190
790.41	76.238
790.72	81.928
791.03	75.000
791.33	80.233
791.64	71.134
791.95	77.228
792.25	81.111
792.56	87.013
792.87	94.872
793.17	97.468
793.48	83.908
793.79	88.506
794.09	71.591
794.40	71.429
794.70	72.794
795.01	58.519
795.32	58.993
795.62	61.417
795.93	75.000
796.23	69.912
796.54	83.529
796.85	87.838
797.15	109.859
797.46	92.424
797.76	100.000
798.07	86.076
798.37	98.462
798.68	92.424
798.99	91.549
799.29	83.117
799.60	84.091
799.90	86.301
800.21	98.507
800.51	105.172
800.82	101.754
801.12	108.197
801.43	109.091
801.73	90.541
802.04	98.413
802.34	86.420
802.65	90.625
802.95	111.864
803.26	118.750
803.56	87.143
803.87	101.538
804.17	92.647
804.48	118.519
804.78	86.207
805.09	94.118
805.39	113.462
805.70	110.714
806.00	113.115
806.30	90.909
806.61	80.488
806.91	82.278
807.22	73.684
807.52	85.075
807.83	97.183
808.13	98.437
808.43	103.333
808.74	85.526
809.04	107.246
809.35	104.478
809.65	98.684
809.95	124.194
810.26	105.085
810.56	109.524
810.86	134.091
811.17	147.619
811.47	131.667
811.77	101.852
812.08	123.636
812.38	142.000
812.69	163.889
812.99	152.273
813.29	138.776
813.59	111.905
813.90	134.694
814.20	121.818
814.50	81.538
814.81	100.000
815.11	136.735
815.41	108.197
815.72	150.000
816.02	121.818
816.32	140.476
816.62	135.000
816.93	153.659
817.23	133.333
817.53	129.545
817.84	154.545
818.14	134.783
818.44	128.889
818.74	173.529
819.04	142.500
819.35	171.429
819.65	188.235
819.95	189.286
820.25	275.000
820.56	153.846
820.86	150.000
821.16	130.233
821.46	128.205
821.76	152.000
822.07	202.857
822.37	165.000
822.67	175.758
822.97	123.529
823.27	160.714
823.57	186.486
823.88	147.500
824.18	200.000
824.48	145.238
824.78	200.000
825.08	183.333
825.38	164.865
825.69	156.098
825.99	220.833
826.29	168.966
826.59	171.053
826.89	152.632
827.19	185.294
827.49	212.903
827.79	172.727
828.09	136.364
828.39	125.532
828.70	140.816
829.00	181.481
829.30	174.194
829.60	142.500
829.90	306.667
830.20	235.714
830.50	191.304
830.80	252.174
831.10	193.333
831.40	183.333
831.70	230.435
832.00	207.692
832.30	225.926
832.60	387.500
832.90	223.333
833.20	342.857
833.50	177.419
833.80	196.552
834.10	209.375
834.40	250.000
834.70	305.556
835.00	328.571
835.30	160.000
835.60	353.846
835.90	210.345
836.20	385.714
836.50	224.138
836.80	172.000
837.10	169.444
837.40	228.571
837.70	305.882
838.00	218.519
838.30	295.238
838.60	319.048
838.90	226.923
839.19	315.000
839.49	435.714
839.79	340.000
840.09	290.000
840.39	276.190
840.69	234.783
840.99	311.111
841.29	500.000
841.59	458.333
841.88	337.500
842.18	189.655
842.48	276.190
842.78	186.667
843.08	221.739
843.38	184.375
843.68	916.667
843.97	200.000
844.27	179.310
844.57	304.762
844.87	325.000
845.17	222.222
845.47	1300.000
845.76	533.333
846.06	311.765
846.36	525.000
846.66	314.286
846.96	325.000
847.25	427.273
847.55	427.273
847.85	300.000
848.15	460.000
848.44	457.143
848.74	261.111
849.04	329.412
849.34	600.000
849.63	252.632
849.93	418.182
850.23	1020.000
850.53	414.286
850.82	2050.000
851.12	-5200.000
851.42	4000.000
851.71	285.000
852.01	-1600.000
852.31	258.333
852.61	1900.000
852.90	271.429
853.20	208.000
853.50	382.353
853.79	247.619
854.09	245.833
854.39	337.500
854.68	194.595
854.98	177.419
855.28	193.333
855.57	237.931
855.87	192.593
856.17	263.158
856.46	253.333
856.76	347.059
857.05	189.655
857.35	254.167
857.65	306.667
857.94	260.870
858.24	246.154
858.53	290.000
858.83	295.455
859.13	400.000
859.42	0.000
859.72	544.444
860.01	409.091
860.31	245.455
860.60	305.263
860.90	265.217
861.20	622.222
861.49	500.000
861.79	-6000.000
862.08	575.000
862.38	295.238
862.67	400.000
862.97	352.941
863.26	577.778
863.56	294.444
863.85	400.000
864.15	575.000
864.44	400.000
864.74	933.333
865.03	675.000
865.33	315.789
865.62	463.636
865.92	492.308
866.21	416.667
866.51	0.000
866.80	372.727
867.10	1040.000
867.39	453.846
867.69	381.818
867.98	289.474
868.27	509.091
868.57	331.579
868.86	-5100.000
869.16	337.500
869.45	2050.000
869.75	-4500.000
870.04	433.333
870.33	728.571
870.63	1225.000
870.92	2350.000
871.22	642.857
871.51	388.235
871.80	209.524
872.10	307.143
>>>>>End Processed Spectral Data<<<<<
