SpectraSuite Data File
++++++++++++++++++++++++++++++++++++
Date: Wed May 13 19:48:14 PDT 2015
User: schluterlab
Dark Spectrum Present: Yes
Reference Spectrum Present: Yes
Number of Sampled Component Spectra: 1
Spectrometers: USB2E3373
Integration Time (usec): 3000 (USB2E3373)
Spectra Averaged: 3 (USB2E3373)
Boxcar Smoothing: 0 (USB2E3373)
Correct for Electrical Dark: No (USB2E3373)
Strobe/Lamp Enabled: No (USB2E3373)
Correct for Detector Non-linearity: No (USB2E3373)
Correct for Stray Light: No (USB2E3373)
Number of Pixels in Processed Spectrum: 2048
>>>>>Begin Processed Spectral Data<<<<<
178.53	0.000
178.91	-1375.000
179.29	-1575.000
179.67	-283.333
180.04	-1400.000
180.42	2450.000
180.80	880.000
181.18	-1425.000
181.56	700.000
181.94	0.000
182.31	-742.857
182.69	1966.667
183.07	-562.500
183.45	-400.000
183.83	545.455
184.20	-430.000
184.58	2050.000
184.96	6000.000
185.34	-920.000
185.72	-612.500
186.09	-2650.000
186.47	2500.000
186.85	2500.000
187.23	4800.000
187.61	-1733.333
187.98	1450.000
188.36	509.091
188.74	481.818
189.12	-1020.000
189.49	550.000
189.87	-4600.000
190.25	-1300.000
190.63	421.429
191.00	423.077
191.38	950.000
191.76	-1150.000
192.14	1275.000
192.51	712.500
192.89	1050.000
193.27	662.500
193.65	-1175.000
194.02	620.000
194.40	1040.000
194.78	580.000
195.15	416.667
195.53	660.000
195.91	-2450.000
196.29	362.500
196.66	336.842
197.04	-460.000
197.42	0.000
197.79	720.000
198.17	-5600.000
198.55	614.286
198.92	737.500
199.30	1060.000
199.68	0.000
200.05	311.111
200.43	871.429
200.81	5000.000
201.18	1866.667
201.56	-1566.667
201.94	533.333
202.31	544.444
202.69	416.667
203.07	600.000
203.44	0.000
203.82	1250.000
204.19	671.429
204.57	414.286
204.95	562.500
205.32	1900.000
205.70	563.636
206.08	400.000
206.45	2750.000
206.83	387.500
207.20	1000.000
207.58	800.000
207.96	361.111
208.33	775.000
208.71	-866.667
209.08	771.429
209.46	655.556
209.84	545.455
210.21	-1566.667
210.59	1625.000
210.96	-600.000
211.34	3050.000
211.71	580.000
212.09	950.000
212.46	0.000
212.84	1866.667
213.22	1175.000
213.59	-4200.000
213.97	766.667
214.34	714.286
214.72	545.455
215.09	1060.000
215.47	-2300.000
215.84	-2100.000
216.22	1566.667
216.59	450.000
216.97	1250.000
217.34	454.545
217.72	-866.667
218.09	0.000
218.47	-5100.000
218.84	566.667
219.22	671.429
219.59	1733.333
219.97	-557.143
220.34	980.000
220.72	-1766.667
221.09	371.429
221.47	1425.000
221.84	-966.667
222.22	0.000
222.59	1400.000
222.97	-2450.000
223.34	1060.000
223.72	430.769
224.09	1140.000
224.46	2650.000
224.84	-3900.000
225.21	-1060.000
225.59	-5100.000
225.96	630.000
226.34	345.000
226.71	3100.000
227.08	675.000
227.46	650.000
227.83	-1225.000
228.21	-2250.000
228.58	722.222
228.95	-2150.000
229.33	-2650.000
229.70	1833.333
230.08	900.000
230.45	-720.000
230.82	475.000
231.20	866.667
231.57	785.714
231.95	458.333
232.32	231.818
232.69	481.818
233.07	714.286
233.44	353.846
233.81	-1466.667
234.19	331.579
234.56	458.333
234.93	400.000
235.31	500.000
235.68	330.769
236.05	342.857
236.43	160.606
236.80	300.000
237.17	4100.000
237.55	214.286
237.92	207.143
238.29	280.952
238.67	196.774
239.04	220.690
239.41	161.111
239.79	134.783
240.16	145.238
240.53	140.909
240.91	113.725
241.28	128.000
241.65	114.000
242.02	104.348
242.40	108.065
242.77	106.667
243.14	76.344
243.51	88.764
243.89	67.059
244.26	70.000
244.63	63.441
245.00	67.021
245.38	65.347
245.75	57.944
246.12	57.798
246.49	60.584
246.87	66.400
247.24	61.538
247.61	52.857
247.98	54.902
248.36	51.351
248.73	50.955
249.10	50.318
249.47	46.328
249.84	52.406
250.22	49.733
250.59	42.012
250.96	44.444
251.33	43.128
251.70	45.545
252.08	41.429
252.45	37.220
252.82	41.304
253.19	39.574
253.56	38.039
253.94	38.174
254.31	38.281
254.68	38.846
255.05	40.221
255.42	38.211
255.79	39.706
256.16	38.628
256.54	33.216
256.91	37.011
257.28	34.532
257.65	34.983
258.02	34.472
258.39	35.331
258.76	34.114
259.14	30.655
259.51	32.219
259.88	28.882
260.25	32.931
260.62	33.237
260.99	34.161
261.36	33.033
261.73	31.805
262.10	28.488
262.47	33.239
262.85	30.084
263.22	28.490
263.59	31.624
263.96	31.044
264.33	29.504
264.70	31.579
265.07	31.202
265.44	30.303
265.81	28.954
266.18	27.387
266.55	28.049
266.92	29.975
267.29	29.630
267.66	29.587
268.03	26.818
268.40	29.673
268.77	26.969
269.14	28.829
269.51	28.442
269.88	28.205
270.25	28.217
270.62	27.191
270.99	32.043
271.36	27.682
271.73	28.972
272.10	28.261
272.47	27.312
272.84	30.087
273.21	27.883
273.58	25.764
273.95	26.625
274.32	27.273
274.69	26.767
275.06	27.362
275.43	25.319
275.80	24.850
276.17	29.735
276.54	28.274
276.91	26.482
277.28	26.758
277.65	27.466
278.02	24.224
278.39	27.734
278.76	25.273
279.13	24.340
279.50	27.747
279.87	25.299
280.23	24.950
280.60	25.725
280.97	24.769
281.34	25.133
281.71	26.909
282.08	24.952
282.45	27.455
282.82	24.334
283.19	23.173
283.56	24.035
283.92	24.704
284.29	24.162
284.66	25.045
285.03	23.870
285.40	23.592
285.77	23.401
286.14	23.834
286.51	25.167
286.87	23.419
287.24	25.244
287.61	23.435
287.98	25.812
288.35	23.296
288.72	22.586
289.08	24.257
289.45	24.382
289.82	21.951
290.19	20.879
290.56	22.818
290.93	19.637
291.29	21.319
291.66	19.617
292.03	24.128
292.40	23.054
292.77	21.006
293.13	22.239
293.50	20.700
293.87	22.963
294.24	19.852
294.60	18.777
294.97	20.640
295.34	20.451
295.71	19.602
296.08	20.085
296.44	19.945
296.81	19.551
297.18	21.816
297.55	17.018
297.91	18.734
298.28	18.340
298.65	20.627
299.02	19.236
299.38	17.264
299.75	15.633
300.12	18.391
300.48	17.625
300.85	17.263
301.22	17.580
301.59	16.919
301.95	18.136
302.32	17.330
302.69	17.802
303.05	18.061
303.42	18.025
303.79	18.460
304.15	15.851
304.52	16.454
304.89	17.305
305.25	17.865
305.62	18.233
305.99	17.119
306.35	16.219
306.72	17.040
307.09	18.202
307.45	17.117
307.82	16.518
308.19	16.887
308.55	18.770
308.92	16.971
309.29	15.523
309.65	17.497
310.02	18.182
310.38	17.634
310.75	17.740
311.12	16.684
311.48	17.450
311.85	17.610
312.22	17.378
312.58	16.008
312.95	18.691
313.31	16.699
313.68	17.879
314.05	18.935
314.41	17.789
314.78	16.012
315.14	17.776
315.51	18.538
315.87	17.327
316.24	18.769
316.61	17.544
316.97	18.787
317.34	17.808
317.70	19.407
318.07	19.249
318.43	19.667
318.80	19.869
319.16	19.303
319.53	19.606
319.89	22.095
320.26	22.000
320.62	21.627
320.99	21.616
321.35	22.727
321.72	23.922
322.08	23.988
322.45	24.876
322.81	24.516
323.18	25.723
323.54	26.345
323.91	24.811
324.27	26.673
324.64	27.307
325.00	26.961
325.37	29.026
325.73	29.264
326.10	29.391
326.46	29.839
326.83	30.716
327.19	32.024
327.56	31.882
327.92	33.333
328.29	33.629
328.65	33.241
329.01	33.755
329.38	33.950
329.74	34.257
330.11	36.004
330.47	36.088
330.84	37.500
331.20	36.703
331.56	36.514
331.93	37.500
332.29	36.912
332.66	37.876
333.02	38.026
333.38	37.127
333.75	39.394
334.11	37.989
334.48	37.445
334.84	38.879
335.20	40.182
335.57	38.441
335.93	36.875
336.29	38.645
336.66	39.225
337.02	38.281
337.38	39.444
337.75	39.037
338.11	39.123
338.47	40.608
338.84	38.588
339.20	39.450
339.56	40.693
339.93	39.364
340.29	40.127
340.65	39.929
341.02	40.838
341.38	40.836
341.74	39.825
342.11	40.000
342.47	40.969
342.83	39.298
343.20	40.952
343.56	40.185
343.92	40.614
344.28	40.306
344.65	41.445
345.01	39.141
345.37	39.966
345.73	39.763
346.10	40.494
346.46	40.000
346.82	39.127
347.19	39.933
347.55	38.998
347.91	40.939
348.27	40.345
348.63	41.472
349.00	40.696
349.36	40.394
349.72	39.775
350.08	40.113
350.45	40.277
350.81	40.130
351.17	40.194
351.53	39.967
351.89	40.347
352.26	40.726
352.62	39.936
352.98	39.627
353.34	40.263
353.70	39.689
354.07	39.919
354.43	39.048
354.79	40.547
355.15	39.745
355.51	41.007
355.87	41.959
356.24	41.775
356.60	40.978
356.96	41.030
357.32	41.783
357.68	41.339
358.04	40.618
358.40	40.855
358.77	40.297
359.13	41.200
359.49	40.784
359.85	39.603
360.21	40.351
360.57	41.946
360.93	41.462
361.29	40.665
361.66	39.706
362.02	41.045
362.38	40.380
362.74	40.923
363.10	39.970
363.46	40.719
363.82	41.270
364.18	41.189
364.54	41.605
364.90	41.431
365.26	41.471
365.62	42.221
365.98	40.614
366.35	40.043
366.71	41.649
367.07	41.151
367.43	41.437
367.79	41.970
368.15	43.103
368.51	40.770
368.87	42.827
369.23	41.405
369.59	41.709
369.95	41.324
370.31	41.311
370.67	41.159
371.03	42.472
371.39	41.983
371.75	43.235
372.11	41.750
372.47	43.695
372.83	43.732
373.19	41.185
373.55	43.533
373.91	43.299
374.27	41.856
374.63	43.055
374.99	43.573
375.35	43.057
375.71	42.563
376.07	43.416
376.42	44.567
376.78	43.539
377.14	42.537
377.50	43.907
377.86	42.287
378.22	44.501
378.58	43.170
378.94	43.558
379.30	43.830
379.66	44.797
380.02	43.489
380.38	42.259
380.74	44.058
381.09	43.765
381.45	45.667
381.81	45.332
382.17	45.032
382.53	44.591
382.89	44.753
383.25	44.340
383.61	45.663
383.97	44.403
384.32	43.980
384.68	45.539
385.04	45.482
385.40	44.892
385.76	45.270
386.12	45.337
386.48	47.137
386.83	46.697
387.19	46.877
387.55	45.949
387.91	45.828
388.27	46.229
388.62	46.404
388.98	45.025
389.34	46.308
389.70	46.168
390.06	47.148
390.42	46.304
390.77	46.883
391.13	48.054
391.49	46.954
391.85	46.276
392.20	46.057
392.56	46.907
392.92	46.969
393.28	45.799
393.64	46.523
393.99	48.015
394.35	45.720
394.71	45.797
395.07	46.480
395.42	47.837
395.78	45.992
396.14	46.431
396.50	48.434
396.85	47.870
397.21	46.547
397.57	46.869
397.92	46.334
398.28	45.628
398.64	46.237
399.00	46.391
399.35	47.152
399.71	45.544
400.07	47.250
400.42	47.362
400.78	47.165
401.14	47.195
401.49	47.224
401.85	47.852
402.21	46.407
402.57	46.700
402.92	47.541
403.28	47.595
403.63	46.349
403.99	47.962
404.35	46.606
404.70	46.223
405.06	46.826
405.42	46.288
405.77	45.371
406.13	45.485
406.49	46.777
406.84	45.836
407.20	46.158
407.55	46.267
407.91	48.067
408.27	46.458
408.62	45.816
408.98	46.630
409.34	47.171
409.69	46.516
410.05	46.964
410.40	45.933
410.76	45.998
411.11	46.019
411.47	45.240
411.83	47.587
412.18	46.011
412.54	47.323
412.89	45.964
413.25	46.871
413.60	46.572
413.96	45.719
414.31	46.173
414.67	46.134
415.03	47.285
415.38	47.229
415.74	46.495
416.09	46.244
416.45	45.984
416.80	46.398
417.16	45.979
417.51	46.848
417.87	46.500
418.22	47.256
418.58	46.417
418.93	46.253
419.29	47.040
419.64	46.662
420.00	46.890
420.35	46.261
420.71	46.384
421.06	45.525
421.42	45.848
421.77	46.020
422.12	46.491
422.48	45.548
422.83	45.894
423.19	46.354
423.54	46.605
423.90	46.725
424.25	46.287
424.61	45.536
424.96	46.880
425.31	44.795
425.67	45.449
426.02	44.857
426.38	47.314
426.73	45.933
427.09	47.052
427.44	45.773
427.79	47.269
428.15	46.429
428.50	47.630
428.85	47.378
429.21	47.267
429.56	46.138
429.92	45.848
430.27	44.836
430.62	45.520
430.98	45.771
431.33	45.722
431.68	46.806
432.04	46.592
432.39	47.401
432.74	47.696
433.10	47.142
433.45	47.114
433.80	46.175
434.16	45.833
434.51	45.474
434.86	46.180
435.22	46.971
435.57	46.444
435.92	47.513
436.28	47.983
436.63	46.578
436.98	47.338
437.34	47.704
437.69	47.375
438.04	47.611
438.39	47.224
438.75	48.460
439.10	47.598
439.45	46.694
439.81	46.465
440.16	46.584
440.51	47.569
440.86	47.597
441.22	47.608
441.57	47.611
441.92	47.339
442.27	47.524
442.63	47.393
442.98	47.324
443.33	46.467
443.68	46.205
444.03	46.755
444.39	46.981
444.74	48.052
445.09	46.577
445.44	46.911
445.79	45.720
446.15	47.644
446.50	46.796
446.85	46.917
447.20	47.017
447.55	48.130
447.91	47.711
448.26	47.245
448.61	47.541
448.96	48.007
449.31	48.088
449.66	47.214
450.02	48.022
450.37	46.882
450.72	48.054
451.07	47.227
451.42	46.748
451.77	47.563
452.12	47.055
452.47	47.326
452.83	48.485
453.18	46.883
453.53	48.670
453.88	47.903
454.23	48.117
454.58	47.789
454.93	47.934
455.28	47.444
455.63	48.301
455.98	48.512
456.34	47.990
456.69	48.842
457.04	48.483
457.39	46.639
457.74	46.663
458.09	47.729
458.44	47.092
458.79	45.390
459.14	47.009
459.49	46.643
459.84	46.981
460.19	46.906
460.54	45.775
460.89	47.888
461.24	48.027
461.59	48.286
461.94	47.164
462.29	47.893
462.64	47.607
462.99	46.519
463.34	48.067
463.69	47.530
464.04	47.362
464.39	46.435
464.74	46.999
465.09	46.864
465.44	46.150
465.79	46.700
466.14	46.743
466.49	45.773
466.84	47.519
467.19	45.926
467.54	48.875
467.89	46.939
468.24	46.946
468.59	47.802
468.94	46.549
469.29	47.751
469.64	46.653
469.99	47.970
470.34	47.754
470.68	47.414
471.03	46.054
471.38	48.089
471.73	47.768
472.08	48.092
472.43	47.550
472.78	47.070
473.13	46.213
473.48	46.567
473.83	46.280
474.17	46.484
474.52	46.216
474.87	46.527
475.22	46.315
475.57	46.373
475.92	46.309
476.27	44.645
476.61	45.670
476.96	45.849
477.31	45.474
477.66	46.554
478.01	46.053
478.36	45.584
478.70	44.912
479.05	46.379
479.40	45.292
479.75	46.009
480.10	45.577
480.45	44.836
480.79	44.864
481.14	45.157
481.49	45.230
481.84	45.313
482.19	44.616
482.53	44.450
482.88	45.416
483.23	44.579
483.58	45.132
483.92	45.736
484.27	44.096
484.62	44.267
484.97	43.477
485.31	44.041
485.66	41.421
486.01	40.346
486.36	39.220
486.70	39.129
487.05	40.280
487.40	41.318
487.75	42.141
488.09	42.948
488.44	42.895
488.79	43.906
489.13	45.034
489.48	43.638
489.83	44.411
490.17	44.849
490.52	43.756
490.87	44.098
491.22	44.566
491.56	43.235
491.91	43.555
492.26	44.465
492.60	43.180
492.95	43.124
493.30	44.579
493.64	44.237
493.99	43.036
494.34	43.710
494.68	44.048
495.03	43.844
495.37	43.462
495.72	44.737
496.07	43.619
496.41	42.788
496.76	43.096
497.11	43.404
497.45	42.850
497.80	43.954
498.14	44.348
498.49	43.756
498.84	43.049
499.18	43.429
499.53	43.067
499.87	42.870
500.22	43.335
500.56	43.738
500.91	43.077
501.26	43.291
501.60	44.044
501.95	42.667
502.29	44.424
502.64	43.575
502.98	42.450
503.33	42.322
503.67	42.135
504.02	42.610
504.36	41.834
504.71	43.429
505.06	43.277
505.40	43.218
505.75	41.803
506.09	42.760
506.44	42.871
506.78	43.156
507.13	43.463
507.47	43.232
507.82	43.262
508.16	42.857
508.51	44.394
508.85	42.056
509.19	42.908
509.54	42.296
509.88	43.019
510.23	41.542
510.57	43.963
510.92	43.449
511.26	41.521
511.61	43.257
511.95	41.858
512.30	42.418
512.64	43.579
512.98	43.569
513.33	42.719
513.67	42.743
514.02	43.019
514.36	44.129
514.70	42.778
515.05	43.056
515.39	43.410
515.74	43.468
516.08	43.991
516.42	43.119
516.77	43.868
517.11	41.509
517.46	42.889
517.80	44.135
518.14	41.980
518.49	43.349
518.83	42.386
519.17	41.859
519.52	42.671
519.86	42.384
520.20	42.948
520.55	43.866
520.89	44.100
521.23	43.546
521.58	42.677
521.92	43.601
522.26	42.160
522.61	42.928
522.95	43.094
523.29	42.301
523.64	44.268
523.98	43.746
524.32	41.858
524.66	43.235
525.01	42.831
525.35	42.565
525.69	41.933
526.04	42.928
526.38	42.953
526.72	42.515
527.06	42.624
527.41	41.337
527.75	43.730
528.09	42.775
528.43	42.001
528.78	43.577
529.12	41.091
529.46	41.580
529.80	42.141
530.15	42.492
530.49	41.231
530.83	42.848
531.17	42.624
531.51	43.385
531.86	42.452
532.20	41.395
532.54	42.857
532.88	42.234
533.22	40.662
533.57	40.432
533.91	41.120
534.25	41.009
534.59	41.794
534.93	39.619
535.27	40.857
535.62	40.415
535.96	41.557
536.30	41.640
536.64	42.305
536.98	41.739
537.32	41.870
537.66	41.000
538.01	41.475
538.35	41.176
538.69	41.927
539.03	39.701
539.37	40.064
539.71	39.274
540.05	40.523
540.39	40.664
540.73	40.039
541.07	40.753
541.42	41.618
541.76	41.290
542.10	40.168
542.44	40.464
542.78	40.250
543.12	38.580
543.46	40.918
543.80	41.379
544.14	40.565
544.48	40.000
544.82	40.475
545.16	41.119
545.50	40.553
545.84	40.591
546.18	40.875
546.52	42.120
546.86	41.237
547.20	40.391
547.54	39.813
547.88	39.860
548.22	39.664
548.56	39.497
548.90	38.796
549.24	39.865
549.58	40.314
549.92	40.591
550.26	41.406
550.60	40.180
550.94	41.127
551.28	39.649
551.62	40.259
551.96	39.649
552.30	39.795
552.64	39.351
552.98	39.390
553.32	39.784
553.66	39.468
554.00	40.014
554.34	38.854
554.68	40.701
555.02	39.704
555.36	39.944
555.69	38.092
556.03	38.493
556.37	39.973
556.71	38.677
557.05	39.216
557.39	39.748
557.73	38.532
558.07	39.884
558.41	39.219
558.75	39.677
559.08	41.760
559.42	40.363
559.76	40.294
560.10	38.758
560.44	40.531
560.78	37.525
561.12	38.588
561.45	38.005
561.79	38.629
562.13	39.235
562.47	38.183
562.81	39.261
563.15	38.127
563.48	39.125
563.82	38.682
564.16	38.718
564.50	37.891
564.84	38.180
565.17	38.610
565.51	38.083
565.85	37.881
566.19	36.569
566.52	38.125
566.86	36.709
567.20	38.325
567.54	37.215
567.88	36.067
568.21	37.037
568.55	35.642
568.89	35.895
569.23	34.626
569.56	33.765
569.90	33.887
570.24	33.226
570.57	32.540
570.91	32.159
571.25	31.717
571.59	32.106
571.92	31.682
572.26	32.062
572.60	32.372
572.93	32.054
573.27	31.677
573.61	31.156
573.95	31.344
574.28	30.955
574.62	30.952
574.96	30.346
575.29	31.038
575.63	31.529
575.97	30.591
576.30	31.147
576.64	29.997
576.98	30.919
577.31	30.961
577.65	30.749
577.98	30.237
578.32	29.607
578.66	29.853
578.99	30.792
579.33	30.743
579.67	30.309
580.00	30.712
580.34	30.185
580.67	30.607
581.01	30.582
581.35	29.761
581.68	29.980
582.02	28.721
582.35	29.168
582.69	29.240
583.02	30.278
583.36	30.274
583.70	30.919
584.03	30.381
584.37	31.331
584.70	31.034
585.04	30.626
585.37	30.382
585.71	30.545
586.04	30.394
586.38	30.930
586.72	31.870
587.05	30.617
587.39	30.158
587.72	30.482
588.06	30.363
588.39	30.864
588.73	31.123
589.06	30.820
589.40	31.549
589.73	31.609
590.07	31.708
590.40	31.312
590.73	32.084
591.07	32.682
591.40	32.391
591.74	32.381
592.07	32.243
592.41	32.493
592.74	31.423
593.08	30.413
593.41	30.718
593.75	30.044
594.08	30.875
594.41	30.859
594.75	30.684
595.08	30.565
595.42	31.524
595.75	31.054
596.09	31.581
596.42	32.063
596.75	32.756
597.09	32.771
597.42	31.830
597.75	31.781
598.09	31.870
598.42	31.529
598.76	30.685
599.09	30.825
599.42	30.459
599.76	30.930
600.09	30.601
600.42	29.145
600.76	30.786
601.09	30.273
601.42	30.594
601.76	30.930
602.09	30.870
602.42	31.568
602.76	31.358
603.09	30.409
603.42	31.199
603.76	30.755
604.09	30.748
604.42	31.431
604.76	31.927
605.09	30.931
605.42	31.124
605.75	31.333
606.09	30.175
606.42	30.977
606.75	30.568
607.09	30.264
607.42	30.552
607.75	30.506
608.08	30.308
608.42	31.690
608.75	31.019
609.08	30.897
609.41	31.794
609.75	31.110
610.08	31.527
610.41	30.773
610.74	31.504
611.07	32.312
611.41	30.962
611.74	32.629
612.07	32.764
612.40	32.686
612.73	31.684
613.07	31.789
613.40	32.333
613.73	30.834
614.06	31.559
614.39	31.515
614.72	31.158
615.06	31.565
615.39	31.635
615.72	31.391
616.05	30.835
616.38	32.351
616.71	32.660
617.05	32.568
617.38	32.231
617.71	32.492
618.04	33.173
618.37	32.170
618.70	33.479
619.03	34.539
619.36	34.759
619.69	33.662
620.03	34.272
620.36	33.623
620.69	33.288
621.02	34.513
621.35	34.612
621.68	33.567
622.01	33.824
622.34	34.644
622.67	34.221
623.00	32.502
623.33	33.310
623.66	32.952
623.99	32.769
624.32	32.953
624.65	32.627
624.99	32.932
625.32	32.513
625.65	33.884
625.98	34.512
626.31	34.526
626.64	34.449
626.97	34.414
627.30	34.081
627.63	36.095
627.96	34.483
628.29	33.858
628.62	36.048
628.95	37.642
629.28	35.219
629.61	35.747
629.94	35.714
630.26	35.844
630.59	36.320
630.92	35.153
631.25	35.735
631.58	37.137
631.91	36.207
632.24	35.443
632.57	37.356
632.90	35.965
633.23	37.025
633.56	36.949
633.89	37.826
634.22	38.365
634.55	38.935
634.88	37.246
635.20	38.829
635.53	36.747
635.86	38.614
636.19	35.529
636.52	36.101
636.85	35.510
637.18	36.866
637.51	37.707
637.83	36.128
638.16	37.724
638.49	38.413
638.82	39.444
639.15	35.375
639.48	37.656
639.81	41.421
640.13	39.974
640.46	39.732
640.79	39.102
641.12	38.102
641.45	38.408
641.77	39.912
642.10	39.474
642.43	38.288
642.76	40.557
643.09	40.184
643.41	39.302
643.74	40.895
644.07	40.854
644.40	38.650
644.73	40.472
645.05	41.363
645.38	40.758
645.71	40.741
646.04	41.528
646.36	42.070
646.69	40.301
647.02	39.116
647.35	40.378
647.67	41.947
648.00	41.301
648.33	40.264
648.66	38.030
648.98	39.880
649.31	36.024
649.64	40.359
649.96	38.748
650.29	40.758
650.62	38.026
650.94	41.653
651.27	40.541
651.60	41.597
651.92	39.776
652.25	39.739
652.58	38.474
652.90	38.705
653.23	37.442
653.56	35.906
653.88	40.254
654.21	41.074
654.54	38.944
654.86	39.564
655.19	36.486
655.52	24.088
655.84	20.593
656.17	26.671
656.49	36.114
656.82	37.167
657.15	28.680
657.47	21.249
657.80	16.617
658.13	17.622
658.45	26.596
658.78	26.488
659.10	27.801
659.43	30.123
659.75	31.934
660.08	34.557
660.41	37.803
660.73	40.152
661.06	39.331
661.38	43.818
661.71	43.077
662.03	42.998
662.36	39.761
662.68	39.558
663.01	42.828
663.33	41.401
663.66	40.966
663.98	45.788
664.31	40.966
664.63	38.664
664.96	39.638
665.28	40.369
665.61	41.910
665.93	39.034
666.26	41.785
666.58	42.050
666.91	44.609
667.23	44.270
667.56	40.605
667.88	42.308
668.21	43.710
668.53	44.035
668.86	41.775
669.18	41.365
669.50	41.739
669.83	44.009
670.15	39.556
670.48	39.216
670.80	43.534
671.13	40.764
671.45	39.362
671.77	41.955
672.10	40.481
672.42	36.749
672.75	37.811
673.07	37.500
673.39	38.698
673.72	39.062
674.04	40.588
674.37	40.000
674.69	40.695
675.01	40.795
675.34	39.425
675.66	44.632
675.98	43.992
676.31	40.546
676.63	40.127
676.95	38.784
677.28	41.121
677.60	41.538
677.92	44.304
678.25	40.246
678.57	40.438
678.89	39.479
679.22	38.310
679.54	39.885
679.86	36.147
680.18	37.925
680.51	38.298
680.83	37.722
681.15	38.302
681.48	39.509
681.80	38.685
682.12	37.165
682.44	37.524
682.77	41.548
683.09	42.918
683.41	39.911
683.73	40.177
684.06	40.496
684.38	41.487
684.70	38.178
685.02	39.024
685.34	36.447
685.67	35.490
685.99	35.911
686.31	34.983
686.63	33.922
686.96	36.964
687.28	38.628
687.60	38.406
687.92	36.380
688.24	39.163
688.56	41.165
688.89	40.249
689.21	41.921
689.53	38.622
689.85	40.576
690.17	35.404
690.49	39.066
690.82	42.056
691.14	42.188
691.46	36.498
691.78	38.153
692.10	40.909
692.42	39.122
692.74	37.344
693.06	42.766
693.39	38.809
693.71	37.991
694.03	38.737
694.35	38.961
694.67	38.444
694.99	41.951
695.31	40.931
695.63	39.713
695.95	42.543
696.27	36.548
696.59	45.078
696.91	41.969
697.23	38.028
697.56	39.872
697.88	36.810
698.20	36.250
698.52	40.645
698.84	38.753
699.16	39.171
699.48	38.242
699.80	39.614
700.12	43.636
700.44	41.379
700.76	42.541
701.08	41.379
701.40	42.179
701.72	44.315
702.04	45.739
702.36	41.076
702.68	42.493
703.00	38.781
703.32	39.096
703.64	40.483
703.96	43.454
704.28	43.605
704.60	46.921
704.91	47.181
705.23	42.229
705.55	51.163
705.87	49.169
706.19	47.703
706.51	45.171
706.83	48.182
707.15	43.137
707.47	40.404
707.79	40.541
708.11	38.584
708.43	36.667
708.74	37.755
709.06	42.857
709.38	39.370
709.70	44.186
710.02	41.840
710.34	41.515
710.66	43.582
710.98	43.182
711.29	45.058
711.61	46.903
711.93	46.154
712.25	42.765
712.57	45.956
712.89	45.675
713.20	44.073
713.52	46.053
713.84	42.722
714.16	44.817
714.48	39.368
714.80	47.112
715.11	42.075
715.43	40.059
715.75	38.841
716.07	45.367
716.39	38.245
716.70	49.169
717.02	47.482
717.34	46.290
717.66	46.642
717.97	51.394
718.29	42.222
718.61	43.431
718.93	49.265
719.24	41.176
719.56	42.373
719.88	45.424
720.20	41.554
720.51	44.599
720.83	45.725
721.15	42.910
721.46	42.908
721.78	44.803
722.10	50.943
722.42	46.992
722.73	45.693
723.05	44.672
723.37	48.178
723.68	48.649
724.00	47.154
724.32	43.145
724.63	47.561
724.95	42.259
725.27	51.417
725.58	51.172
725.90	47.810
726.22	44.906
726.53	40.625
726.85	43.003
727.16	45.907
727.48	40.426
727.80	42.045
728.11	43.841
728.43	43.462
728.74	40.860
729.06	48.540
729.38	45.956
729.69	44.840
730.01	42.662
730.32	43.056
730.64	43.478
730.96	39.274
731.27	42.715
731.59	43.425
731.90	41.108
732.22	41.925
732.53	42.415
732.85	40.385
733.16	40.193
733.48	40.864
733.80	42.532
734.11	40.127
734.43	37.870
734.74	37.143
735.06	33.238
735.37	41.908
735.69	37.261
736.00	46.078
736.32	40.810
736.63	41.534
736.95	42.812
737.26	37.415
737.58	37.097
737.89	45.485
738.21	42.321
738.52	46.429
738.83	40.000
739.15	45.000
739.46	45.985
739.78	44.097
740.09	39.385
740.41	43.226
740.72	41.115
741.04	44.815
741.35	42.083
741.66	48.889
741.98	46.226
742.29	48.804
742.61	44.828
742.92	44.796
743.23	50.427
743.55	46.000
743.86	50.000
744.18	50.885
744.49	47.368
744.80	47.887
745.12	50.000
745.43	48.899
745.74	50.450
746.06	45.872
746.37	49.327
746.68	48.416
747.00	52.315
747.31	51.905
747.62	50.885
747.94	48.899
748.25	43.404
748.56	48.018
748.88	45.545
749.19	54.000
749.50	46.047
749.82	48.374
750.13	42.449
750.44	45.985
750.75	43.509
751.07	42.765
751.38	42.509
751.69	41.516
752.01	40.977
752.32	40.072
752.63	40.426
752.94	43.033
753.26	51.200
753.57	40.244
753.88	41.797
754.19	42.500
754.51	48.264
754.82	39.711
755.13	42.642
755.44	42.857
755.75	41.606
756.07	39.362
756.38	40.511
756.69	38.591
757.00	38.922
757.31	40.059
757.63	38.012
757.94	34.853
758.25	36.520
758.56	32.593
758.87	34.140
759.18	37.576
759.50	39.185
759.81	36.137
760.12	34.062
760.43	35.817
760.74	36.957
761.05	37.288
761.36	37.968
761.67	36.364
761.99	36.957
762.30	42.708
762.61	43.893
762.92	46.875
763.23	43.697
763.54	44.400
763.85	39.453
764.16	44.231
764.47	46.388
764.78	39.576
765.10	35.127
765.41	38.053
765.72	36.228
766.03	40.752
766.34	37.333
766.65	46.383
766.96	51.709
767.27	49.239
767.58	54.688
767.89	57.368
768.20	54.598
768.51	53.299
768.82	49.541
769.13	42.276
769.44	44.939
769.75	44.635
770.06	41.284
770.37	48.869
770.68	48.611
770.99	42.222
771.30	40.984
771.61	45.291
771.92	44.262
772.23	49.580
772.54	45.641
772.85	53.403
773.16	46.809
773.47	50.543
773.78	52.284
774.09	46.429
774.39	53.216
774.70	53.086
775.01	58.696
775.32	58.824
775.63	56.579
775.94	62.590
776.25	60.630
776.56	60.448
776.87	59.836
777.18	61.719
777.48	63.359
777.79	68.182
778.10	65.185
778.41	66.071
778.72	48.905
779.03	59.732
779.34	56.376
779.65	51.351
779.95	55.215
780.26	55.556
780.57	64.828
780.88	60.937
781.19	64.662
781.50	57.432
781.80	55.346
782.11	50.282
782.42	42.405
782.73	52.761
783.04	62.162
783.34	50.704
783.65	65.753
783.96	64.179
784.27	48.951
784.57	56.835
784.88	62.963
785.19	54.762
785.50	61.321
785.81	67.910
786.11	73.770
786.42	68.992
786.73	60.177
787.04	76.415
787.34	66.071
787.65	72.000
787.96	69.369
788.26	61.157
788.57	67.797
788.88	68.595
789.19	62.500
789.49	63.636
789.80	58.779
790.11	81.905
790.41	83.168
790.72	81.928
791.03	77.174
791.33	87.209
791.64	77.320
791.95	78.218
792.25	85.556
792.56	101.299
792.87	89.744
793.17	108.861
793.48	90.805
793.79	95.402
794.09	84.091
794.40	73.109
794.70	63.971
795.01	55.556
795.32	51.079
795.62	59.843
795.93	62.069
796.23	67.257
796.54	85.882
796.85	86.486
797.15	95.775
797.46	89.394
797.76	93.976
798.07	87.342
798.37	83.077
798.68	98.485
798.99	94.366
799.29	92.208
799.60	81.818
799.90	100.000
800.21	97.015
800.51	105.172
800.82	117.544
801.12	116.393
801.43	116.667
801.73	83.784
802.04	122.222
802.34	88.889
802.65	104.688
802.95	111.864
803.26	112.500
803.56	77.143
803.87	93.846
804.17	107.353
804.48	127.778
804.78	93.103
805.09	88.235
805.39	109.615
805.70	96.429
806.00	108.197
806.30	109.091
806.61	91.463
806.91	78.481
807.22	75.000
807.52	94.030
807.83	102.817
808.13	112.500
808.43	103.333
808.74	86.842
809.04	95.652
809.35	100.000
809.65	88.158
809.95	130.645
810.26	111.864
810.56	95.238
810.86	150.000
811.17	157.143
811.47	135.000
811.77	111.111
812.08	127.273
812.38	114.000
812.69	166.667
812.99	154.545
813.29	138.776
813.59	111.905
813.90	114.286
814.20	110.909
814.50	107.692
814.81	117.647
815.11	144.898
815.41	98.361
815.72	169.048
816.02	123.636
816.32	140.476
816.62	135.000
816.93	148.780
817.23	176.190
817.53	147.727
817.84	190.909
818.14	152.174
818.44	135.556
818.74	144.118
819.04	172.500
819.35	148.571
819.65	170.588
819.95	160.714
820.25	220.000
820.56	169.231
820.86	138.636
821.16	162.791
821.46	143.590
821.76	150.000
822.07	148.571
822.37	147.500
822.67	166.667
822.97	123.529
823.27	235.714
823.57	154.054
823.88	150.000
824.18	223.333
824.48	157.143
824.78	252.000
825.08	208.333
825.38	172.973
825.69	139.024
825.99	220.833
826.29	172.414
826.59	168.421
826.89	144.737
827.19	161.765
827.49	193.548
827.79	161.364
828.09	134.091
828.39	121.277
828.70	142.857
829.00	203.704
829.30	200.000
829.60	127.500
829.90	353.333
830.20	182.143
830.50	173.913
830.80	221.739
831.10	200.000
831.40	183.333
831.70	213.043
832.00	273.077
832.30	196.296
832.60	393.750
832.90	216.667
833.20	371.429
833.50	177.419
833.80	182.759
834.10	190.625
834.40	234.615
834.70	250.000
835.00	342.857
835.30	191.429
835.60	315.385
835.90	189.655
836.20	357.143
836.50	217.241
836.80	208.000
837.10	200.000
837.40	280.952
837.70	347.059
838.00	203.704
838.30	233.333
838.60	290.476
838.90	215.385
839.19	295.000
839.49	450.000
839.79	330.000
840.09	235.000
840.39	242.857
840.69	256.522
840.99	294.444
841.29	590.000
841.59	316.667
841.88	356.250
842.18	179.310
842.48	295.238
842.78	190.000
843.08	260.870
843.38	190.625
843.68	883.333
843.97	246.154
844.27	186.207
844.57	271.429
844.87	350.000
845.17	222.222
845.47	1333.333
845.76	455.556
846.06	317.647
846.36	600.000
846.66	378.571
846.96	306.250
847.25	363.636
847.55	454.545
847.85	286.957
848.15	530.000
848.44	378.571
848.74	238.889
849.04	347.059
849.34	500.000
849.63	236.842
849.93	472.727
850.23	900.000
850.53	392.857
850.82	2750.000
851.12	-4400.000
851.42	3800.000
851.71	295.000
852.01	-1433.333
852.31	254.167
852.61	1766.667
852.90	276.190
853.20	220.000
853.50	335.294
853.79	276.190
854.09	241.667
854.39	387.500
854.68	194.595
854.98	196.774
855.28	193.333
855.57	210.345
855.87	237.037
856.17	252.632
856.46	286.667
856.76	252.941
857.05	210.345
857.35	275.000
857.65	380.000
857.94	256.522
858.24	269.231
858.53	265.000
858.83	272.727
859.13	360.000
859.42	0.000
859.72	655.556
860.01	445.455
860.31	254.545
860.60	300.000
860.90	273.913
861.20	522.222
861.49	408.333
861.79	-5200.000
862.08	625.000
862.38	300.000
862.67	361.538
862.97	358.824
863.26	577.778
863.56	305.556
863.85	391.667
864.15	550.000
864.44	413.333
864.74	883.333
865.03	675.000
865.33	263.158
865.62	445.455
865.92	438.462
866.21	333.333
866.51	0.000
866.80	427.273
867.10	1060.000
867.39	461.538
867.69	490.909
867.98	315.789
868.27	500.000
868.57	289.474
868.86	-4500.000
869.16	343.750
869.45	1600.000
869.75	-4300.000
870.04	383.333
870.33	671.429
870.63	1275.000
870.92	2200.000
871.22	857.143
871.51	323.529
871.80	266.667
872.10	357.143
>>>>>End Processed Spectral Data<<<<<
