SpectraSuite Data File
++++++++++++++++++++++++++++++++++++
Date: Wed May 13 19:38:18 PDT 2015
User: schluterlab
Dark Spectrum Present: Yes
Reference Spectrum Present: Yes
Number of Sampled Component Spectra: 1
Spectrometers: USB2E3373
Integration Time (usec): 3000 (USB2E3373)
Spectra Averaged: 3 (USB2E3373)
Boxcar Smoothing: 0 (USB2E3373)
Correct for Electrical Dark: No (USB2E3373)
Strobe/Lamp Enabled: No (USB2E3373)
Correct for Detector Non-linearity: No (USB2E3373)
Correct for Stray Light: No (USB2E3373)
Number of Pixels in Processed Spectrum: 2048
>>>>>Begin Processed Spectral Data<<<<<
178.53	0.000
178.91	-1450.000
179.29	-1525.000
179.67	-216.667
180.04	-1100.000
180.42	2500.000
180.80	1060.000
181.18	-1050.000
181.56	800.000
181.94	0.000
182.31	-700.000
182.69	1933.333
183.07	-550.000
183.45	-533.333
183.83	581.818
184.20	-370.000
184.58	2500.000
184.96	6100.000
185.34	-980.000
185.72	-637.500
186.09	-2750.000
186.47	2750.000
186.85	2400.000
187.23	4400.000
187.61	-1833.333
187.98	1325.000
188.36	581.818
188.74	581.818
189.12	-1220.000
189.49	570.000
189.87	-5200.000
190.25	-1375.000
190.63	442.857
191.00	446.154
191.38	950.000
191.76	-1225.000
192.14	1500.000
192.51	625.000
192.89	950.000
193.27	725.000
193.65	-1350.000
194.02	580.000
194.40	1120.000
194.78	580.000
195.15	525.000
195.53	600.000
195.91	-2250.000
196.29	368.750
196.66	352.632
197.04	-420.000
197.42	0.000
197.79	630.000
198.17	-4800.000
198.55	742.857
198.92	825.000
199.30	1060.000
199.68	0.000
200.05	338.889
200.43	828.571
200.81	5100.000
201.18	1900.000
201.56	-1833.333
201.94	533.333
202.31	677.778
202.69	450.000
203.07	540.000
203.44	0.000
203.82	1275.000
204.19	700.000
204.57	500.000
204.95	700.000
205.32	1833.333
205.70	545.455
206.08	364.286
206.45	2850.000
206.83	412.500
207.20	1066.667
207.58	800.000
207.96	316.667
208.33	787.500
208.71	-1083.333
209.08	885.714
209.46	600.000
209.84	500.000
210.21	-1666.667
210.59	1675.000
210.96	-562.500
211.34	2400.000
211.71	710.000
212.09	766.667
212.46	0.000
212.84	1866.667
213.22	1550.000
213.59	-4300.000
213.97	950.000
214.34	871.429
214.72	663.636
215.09	1160.000
215.47	-2450.000
215.84	-2850.000
216.22	1533.333
216.59	428.571
216.97	1425.000
217.34	481.818
217.72	-833.333
218.09	0.000
218.47	-5500.000
218.84	677.778
219.22	1000.000
219.59	1700.000
219.97	-628.571
220.34	980.000
220.72	-1566.667
221.09	421.429
221.47	1625.000
221.84	-1050.000
222.22	0.000
222.59	1375.000
222.97	-2400.000
223.34	1240.000
223.72	423.077
224.09	1220.000
224.46	2400.000
224.84	-5000.000
225.21	-1080.000
225.59	-4800.000
225.96	670.000
226.34	330.000
226.71	2800.000
227.08	725.000
227.46	580.000
227.83	-1075.000
228.21	-3150.000
228.58	722.222
228.95	-2650.000
229.33	-2400.000
229.70	1833.333
230.08	828.571
230.45	-800.000
230.82	450.000
231.20	900.000
231.57	685.714
231.95	541.667
232.32	277.273
232.69	400.000
233.07	742.857
233.44	384.615
233.81	-1800.000
234.19	305.263
234.56	500.000
234.93	475.000
235.31	490.909
235.68	400.000
236.05	385.714
236.43	190.909
236.80	300.000
237.17	4800.000
237.55	185.714
237.92	235.714
238.29	238.095
238.67	193.548
239.04	175.862
239.41	130.556
239.79	108.696
240.16	147.619
240.53	127.273
240.91	107.843
241.28	114.000
241.65	106.000
242.02	86.957
242.40	96.774
242.77	83.333
243.14	70.968
243.51	71.910
243.89	70.588
244.26	67.778
244.63	59.140
245.00	50.000
245.38	48.515
245.75	53.271
246.12	53.211
246.49	53.285
246.87	67.200
247.24	65.385
247.61	44.286
247.98	46.405
248.36	41.216
248.73	37.580
249.10	47.134
249.47	39.548
249.84	43.316
250.22	35.829
250.59	37.278
250.96	35.354
251.33	38.863
251.70	41.089
252.08	35.714
252.45	30.942
252.82	33.913
253.19	34.468
253.56	31.765
253.94	37.344
254.31	31.641
254.68	32.692
255.05	27.306
255.42	30.894
255.79	32.353
256.16	31.408
256.54	28.622
256.91	30.961
257.28	24.820
257.65	28.053
258.02	27.329
258.39	24.606
258.76	26.421
259.14	29.464
259.51	25.836
259.88	24.224
260.25	27.190
260.62	23.410
260.99	28.571
261.36	27.027
261.73	23.209
262.10	22.674
262.47	25.634
262.85	22.841
263.22	22.222
263.59	26.496
263.96	25.000
264.33	23.499
264.70	26.579
265.07	24.808
265.44	24.747
265.81	22.871
266.18	22.864
266.55	21.463
266.92	20.885
267.29	24.769
267.66	22.706
268.03	21.591
268.40	21.028
268.77	21.002
269.14	20.495
269.51	22.573
269.88	23.077
270.25	22.348
270.62	21.348
270.99	23.656
271.36	22.747
271.73	21.262
272.10	18.913
272.47	22.151
272.84	20.996
273.21	20.755
273.58	18.559
273.95	18.868
274.32	18.802
274.69	21.627
275.06	18.110
275.43	19.574
275.80	19.639
276.17	18.534
276.54	21.830
276.91	19.565
277.28	16.406
277.65	19.923
278.02	17.598
278.39	21.875
278.76	19.091
279.13	19.811
279.50	17.877
279.87	19.920
280.23	18.962
280.60	18.569
280.97	18.854
281.34	18.230
281.71	20.182
282.08	18.042
282.45	17.818
282.82	17.052
283.19	16.043
283.56	17.544
283.92	19.289
284.29	18.519
284.66	17.423
285.03	16.998
285.40	17.077
285.77	16.330
286.14	15.026
286.51	18.167
286.87	17.436
287.24	18.730
287.61	18.780
287.98	17.532
288.35	15.848
288.72	16.667
289.08	17.527
289.45	17.298
289.82	16.585
290.19	15.071
290.56	15.773
290.93	16.465
291.29	15.951
291.66	15.192
292.03	15.262
292.40	17.181
292.77	15.680
293.13	16.119
293.50	15.889
293.87	14.519
294.24	15.407
294.60	13.246
294.97	15.698
295.34	16.079
295.71	15.625
296.08	14.245
296.44	13.755
296.81	13.738
297.18	15.583
297.55	12.401
297.91	12.797
298.28	14.190
298.65	13.708
299.02	15.942
299.38	13.413
299.75	11.995
300.12	13.538
300.48	13.125
300.85	12.947
301.22	13.503
301.59	12.500
301.95	12.846
302.32	13.350
302.69	13.501
303.05	13.455
303.42	14.444
303.79	13.930
304.15	12.704
304.52	12.514
304.89	11.382
305.25	13.341
305.62	13.250
305.99	13.695
306.35	11.633
306.72	13.004
307.09	13.097
307.45	13.288
307.82	12.723
308.19	14.128
308.55	13.161
308.92	12.782
309.29	11.404
309.65	13.043
310.02	12.896
310.38	13.118
310.75	12.355
311.12	13.306
311.48	13.480
311.85	13.627
312.22	10.822
312.58	11.642
312.95	12.566
313.31	12.330
313.68	11.746
314.05	13.905
314.41	12.965
314.78	13.192
315.14	11.917
315.51	12.873
315.87	11.980
316.24	11.122
316.61	12.378
316.97	10.568
317.34	11.057
317.70	12.428
318.07	12.320
318.43	13.014
318.80	11.996
319.16	12.618
319.53	11.351
319.89	12.571
320.26	12.600
320.62	11.706
320.99	12.323
321.35	12.424
321.72	12.628
322.08	12.833
322.45	13.433
322.81	14.244
323.18	13.969
323.54	12.245
323.91	12.642
324.27	12.141
324.64	10.531
325.00	12.083
325.37	12.375
325.73	12.478
326.10	11.209
326.46	12.097
326.83	12.597
327.19	11.956
327.56	10.801
327.92	11.461
328.29	11.890
328.65	12.339
329.01	11.372
329.38	11.378
329.74	12.188
330.11	12.253
330.47	12.121
330.84	12.040
331.20	12.022
331.56	12.569
331.93	10.833
332.29	11.713
332.66	12.389
333.02	12.523
333.38	12.195
333.75	11.943
334.11	12.722
334.48	10.736
334.84	11.581
335.20	12.364
335.57	10.698
335.93	10.714
336.29	10.897
336.66	11.091
337.02	11.403
337.38	11.481
337.75	11.141
338.11	11.549
338.47	10.497
338.84	11.641
339.20	10.183
339.56	11.405
339.93	10.364
340.29	11.775
340.65	10.517
341.02	11.606
341.38	11.299
341.74	10.702
342.11	11.179
342.47	11.542
342.83	11.216
343.20	11.948
343.56	10.783
343.92	11.053
344.28	10.969
344.65	11.522
345.01	10.522
345.37	9.091
345.73	11.421
346.10	11.594
346.46	11.186
346.82	10.708
347.19	10.109
347.55	10.755
347.91	11.003
348.27	11.586
348.63	10.953
349.00	10.680
349.36	10.673
349.72	10.986
350.08	10.778
350.45	11.717
350.81	10.398
351.17	10.211
351.53	10.811
351.89	9.901
352.26	11.681
352.62	11.067
352.98	10.535
353.34	10.764
353.70	10.229
354.07	9.516
354.43	10.556
354.79	9.654
355.15	10.375
355.51	10.791
355.87	11.347
356.24	10.668
356.60	9.623
356.96	10.217
357.32	9.648
357.68	10.394
358.04	10.293
358.40	11.164
358.77	11.111
359.13	9.787
359.49	9.961
359.85	8.571
360.21	10.207
360.57	10.350
360.93	9.538
361.29	9.675
361.66	8.746
362.02	10.522
362.38	10.190
362.74	10.045
363.10	8.438
363.46	9.905
363.82	9.297
364.18	10.352
364.54	10.253
364.90	9.773
365.26	9.412
365.62	9.861
365.98	9.496
366.35	8.883
366.71	9.544
367.07	9.031
367.43	8.999
367.79	9.779
368.15	10.704
368.51	9.157
368.87	9.779
369.23	9.437
369.59	9.703
369.95	7.721
370.31	9.402
370.67	9.058
371.03	10.637
371.39	9.694
371.75	8.897
372.11	9.531
372.47	10.264
372.83	9.510
373.19	9.321
373.55	9.904
373.91	9.720
374.27	9.416
374.63	8.509
374.99	9.534
375.35	8.583
375.71	9.321
376.07	9.534
376.42	8.803
376.78	9.543
377.14	8.955
377.50	9.404
377.86	8.245
378.22	9.608
378.58	8.396
378.94	8.674
379.30	9.097
379.66	8.439
380.02	9.029
380.38	8.379
380.74	9.244
381.09	9.719
381.45	9.650
381.81	8.722
382.17	8.535
382.53	8.616
382.89	9.259
383.25	8.443
383.61	8.612
383.97	9.131
384.32	8.546
384.68	8.488
385.04	8.605
385.40	8.978
385.76	8.292
386.12	7.902
386.48	8.874
386.83	9.237
387.19	8.658
387.55	9.153
387.91	8.404
388.27	8.768
388.62	8.666
388.98	8.231
389.34	8.824
389.70	8.461
390.06	9.189
390.42	8.301
390.77	8.651
391.13	8.870
391.49	9.391
391.85	9.102
392.20	7.950
392.56	8.712
392.92	8.476
393.28	7.574
393.64	8.273
393.99	8.308
394.35	8.623
394.71	8.407
395.07	8.162
395.42	8.220
395.78	9.033
396.14	8.504
396.50	8.459
396.85	9.599
397.21	8.878
397.57	8.431
397.92	8.474
398.28	8.128
398.64	8.244
399.00	8.674
399.35	8.235
399.71	8.507
400.07	8.693
400.42	8.773
400.78	8.685
401.14	8.171
401.49	8.597
401.85	8.469
402.21	8.383
402.57	7.896
402.92	8.701
403.28	8.807
403.63	7.859
403.99	7.834
404.35	8.727
404.70	8.153
405.06	8.212
405.42	8.546
405.77	7.943
406.13	7.957
406.49	8.457
406.84	8.683
407.20	7.683
407.55	8.551
407.91	8.200
408.27	8.296
408.62	8.730
408.98	8.640
409.34	7.872
409.69	8.387
410.05	8.116
410.40	8.318
410.76	7.587
411.11	8.987
411.47	8.051
411.83	7.880
412.18	8.411
412.54	8.468
412.89	9.036
413.25	8.442
413.60	7.968
413.96	8.257
414.31	8.627
414.67	8.302
415.03	7.947
415.38	8.312
415.74	8.617
416.09	8.883
416.45	7.898
416.80	8.592
417.16	8.780
417.51	9.423
417.87	8.157
418.22	8.580
418.58	8.974
418.93	8.784
419.29	8.657
419.64	8.816
420.00	8.415
420.35	8.754
420.71	8.129
421.06	8.055
421.42	8.187
421.77	8.352
422.12	7.243
422.48	6.908
422.83	7.921
423.19	8.232
423.54	8.009
423.90	8.638
424.25	8.096
424.61	8.095
424.96	7.988
425.31	7.586
425.67	7.865
426.02	7.714
426.38	8.425
426.73	8.367
427.09	6.869
427.44	8.223
427.79	7.706
428.15	8.869
428.50	7.782
428.85	8.462
429.21	7.565
429.56	7.258
429.92	7.750
430.27	7.498
430.62	7.168
430.98	8.459
431.33	7.784
431.68	8.639
432.04	8.200
432.39	7.253
432.74	7.720
433.10	7.753
433.45	8.222
433.80	7.982
434.16	7.853
434.51	8.000
434.86	7.925
435.22	8.060
435.57	8.389
435.92	7.373
436.28	7.948
436.63	9.437
436.98	7.499
437.34	8.050
437.69	8.285
438.04	7.645
438.39	8.299
438.75	8.774
439.10	7.989
439.45	8.205
439.81	8.157
440.16	7.905
440.51	7.733
440.86	8.396
441.22	7.731
441.57	7.749
441.92	8.035
442.27	8.127
442.63	7.636
442.98	8.282
443.33	8.370
443.68	8.260
444.03	7.711
444.39	7.254
444.74	7.468
445.09	8.302
445.44	7.600
445.79	7.620
446.15	8.470
446.50	8.024
446.85	7.605
447.20	7.751
447.55	8.096
447.91	8.274
448.26	8.236
448.61	7.462
448.96	8.970
449.31	8.493
449.66	8.666
450.02	7.688
450.37	7.823
450.72	7.953
451.07	7.739
451.42	7.477
451.77	8.691
452.12	7.794
452.47	8.582
452.83	7.576
453.18	7.579
453.53	8.905
453.88	7.915
454.23	8.129
454.58	8.964
454.93	8.773
455.28	7.357
455.63	7.403
455.98	8.393
456.34	8.480
456.69	8.203
457.04	8.173
457.39	8.182
457.74	8.532
458.09	7.648
458.44	8.381
458.79	7.430
459.14	8.465
459.49	7.881
459.84	7.756
460.19	8.073
460.54	7.581
460.89	8.228
461.24	7.832
461.59	9.181
461.94	7.583
462.29	9.199
462.64	8.743
462.99	7.938
463.34	8.400
463.69	7.880
464.04	8.232
464.39	8.174
464.74	8.259
465.09	8.082
465.44	7.424
465.79	7.271
466.14	7.772
466.49	7.898
466.84	7.472
467.19	8.811
467.54	8.500
467.89	7.923
468.24	8.377
468.59	7.326
468.94	8.552
469.29	8.033
469.64	9.639
469.99	8.931
470.34	7.860
470.68	8.549
471.03	7.755
471.38	8.548
471.73	8.261
472.08	9.408
472.43	7.915
472.78	7.966
473.13	9.371
473.48	8.552
473.83	7.988
474.17	7.218
474.52	8.375
474.87	8.231
475.22	8.125
475.57	7.738
475.92	7.860
476.27	7.892
476.61	7.667
476.96	8.136
477.31	7.902
477.66	7.987
478.01	7.371
478.36	7.721
478.70	7.425
479.05	8.253
479.40	7.881
479.75	7.626
480.10	7.256
480.45	7.377
480.79	7.597
481.14	7.632
481.49	7.879
481.84	7.545
482.19	7.269
482.53	8.440
482.88	7.259
483.23	7.570
483.58	7.689
483.92	7.685
484.27	6.449
484.62	6.983
484.97	6.898
485.31	6.815
485.66	5.875
486.01	5.545
486.36	5.172
486.70	5.490
487.05	6.022
487.40	6.307
487.75	6.654
488.09	6.642
488.44	6.538
488.79	7.414
489.13	7.219
489.48	7.178
489.83	6.949
490.17	7.716
490.52	7.883
490.87	6.920
491.22	6.639
491.56	6.743
491.91	7.073
492.26	7.487
492.60	7.465
492.95	6.688
493.30	7.430
493.64	7.000
493.99	7.196
494.34	7.262
494.68	7.921
495.03	7.660
495.37	7.771
495.72	7.359
496.07	7.657
496.41	7.611
496.76	7.080
497.11	7.114
497.45	7.219
497.80	7.486
498.14	7.005
498.49	6.976
498.84	7.526
499.18	7.333
499.53	7.312
499.87	7.596
500.22	7.348
500.56	7.573
500.91	6.971
501.26	7.302
501.60	7.119
501.95	6.966
502.29	7.545
502.64	7.309
502.98	6.872
503.33	7.038
503.67	7.610
504.02	7.577
504.36	7.300
504.71	7.621
505.06	6.892
505.40	7.292
505.75	7.281
506.09	7.677
506.44	7.647
506.78	8.037
507.13	7.067
507.47	8.081
507.82	8.055
508.16	7.447
508.51	7.712
508.85	7.398
509.19	7.755
509.54	7.143
509.88	7.779
510.23	7.506
510.57	8.824
510.92	7.872
511.26	8.273
511.61	8.091
511.95	7.829
512.30	7.529
512.64	8.383
512.98	8.360
513.33	8.726
513.67	8.378
514.02	7.522
514.36	8.465
514.70	8.522
515.05	8.366
515.39	7.964
515.74	7.883
516.08	8.105
516.42	7.936
516.77	9.030
517.11	7.825
517.46	8.521
517.80	8.362
518.14	7.991
518.49	8.635
518.83	8.125
519.17	8.603
519.52	8.546
519.86	8.956
520.20	9.017
520.55	9.396
520.89	8.698
521.23	9.590
521.58	8.643
521.92	9.492
522.26	8.054
522.61	9.097
522.95	8.349
523.29	8.521
523.64	9.024
523.98	8.071
524.32	8.565
524.66	9.621
525.01	8.885
525.35	9.232
525.69	8.805
526.04	8.598
526.38	8.786
526.72	9.018
527.06	9.040
527.41	8.540
527.75	9.968
528.09	8.478
528.43	9.178
528.78	9.035
529.12	9.394
529.46	9.308
529.80	9.530
530.15	9.408
530.49	8.862
530.83	9.051
531.17	10.183
531.51	9.403
531.86	8.323
532.20	9.778
532.54	9.930
532.88	9.499
533.22	8.869
533.57	9.074
533.91	9.512
534.25	8.809
534.59	8.969
534.93	9.637
535.27	8.871
535.62	9.219
535.96	9.793
536.30	8.964
536.64	9.401
536.98	10.285
537.32	9.480
537.66	9.533
538.01	8.558
538.35	9.696
538.69	9.572
539.03	8.837
539.37	7.987
539.71	7.388
540.05	9.477
540.39	8.837
540.73	9.379
541.07	9.669
541.42	9.524
541.76	9.677
542.10	9.056
542.44	9.139
542.78	10.211
543.12	8.637
543.46	9.639
543.80	9.759
544.14	8.793
544.48	9.333
544.82	9.237
545.16	9.564
545.50	8.997
545.84	9.745
546.18	9.428
546.52	9.566
546.86	8.660
547.20	10.249
547.54	9.352
547.88	10.395
548.22	9.838
548.56	10.063
548.90	9.475
549.24	8.889
549.58	9.686
549.92	9.959
550.26	10.298
550.60	9.198
550.94	9.577
551.28	8.998
551.62	9.490
551.96	10.246
552.30	11.058
552.64	10.548
552.98	9.627
553.32	10.047
553.66	10.702
554.00	10.226
554.34	9.731
554.68	10.443
555.02	9.520
555.36	9.951
555.69	9.269
556.03	9.623
556.37	9.482
556.71	9.550
557.05	9.244
557.39	9.797
557.73	9.386
558.07	9.500
558.41	10.203
558.75	10.360
559.08	10.440
559.42	9.675
559.76	10.368
560.10	10.207
560.44	10.063
560.78	9.448
561.12	9.828
561.45	10.561
561.79	9.097
562.13	9.859
562.47	9.836
562.81	9.414
563.15	9.699
563.48	9.284
563.82	9.263
564.16	8.895
564.50	8.724
564.84	9.671
565.17	8.301
565.51	9.073
565.85	9.581
566.19	9.267
566.52	9.246
566.86	8.620
567.20	8.962
567.54	9.018
567.88	8.093
568.21	8.624
568.55	8.645
568.89	8.317
569.23	8.066
569.56	7.976
569.90	8.113
570.24	7.427
570.57	7.378
570.91	7.240
571.25	7.319
571.59	7.128
571.92	6.740
572.26	6.961
572.60	7.177
572.93	7.736
573.27	7.513
573.61	7.231
573.95	7.364
574.28	6.583
574.62	6.924
574.96	7.073
575.29	6.814
575.63	6.987
575.97	6.951
576.30	7.276
576.64	6.849
576.98	6.879
577.31	6.770
577.65	6.884
577.98	6.514
578.32	6.573
578.66	7.086
578.99	6.825
579.33	6.826
579.67	6.519
580.00	7.073
580.34	7.000
580.67	7.161
581.01	7.196
581.35	6.750
581.68	6.714
582.02	6.315
582.35	6.365
582.69	6.822
583.02	7.114
583.36	6.871
583.70	7.468
584.03	7.341
584.37	7.642
584.70	7.053
585.04	7.192
585.37	6.920
585.71	7.284
586.04	7.103
586.38	7.132
586.72	7.539
587.05	7.199
587.39	6.834
587.72	7.318
588.06	6.990
588.39	7.325
588.73	7.598
589.06	7.884
589.40	7.643
589.73	7.885
590.07	7.829
590.40	7.636
590.73	8.002
591.07	8.506
591.40	8.562
591.74	8.701
592.07	7.897
592.41	8.227
592.74	7.978
593.08	7.961
593.41	7.308
593.75	7.245
594.08	7.409
594.41	7.812
594.75	7.320
595.08	8.232
595.42	7.986
595.75	7.728
596.09	7.961
596.42	8.723
596.75	8.527
597.09	8.918
597.42	8.052
597.75	8.236
598.09	8.391
598.42	7.904
598.76	8.107
599.09	7.640
599.42	8.042
599.76	7.870
600.09	7.359
600.42	7.159
600.76	7.464
601.09	7.650
601.42	7.458
601.76	8.046
602.09	8.024
602.42	8.479
602.76	8.948
603.09	8.615
603.42	8.239
603.76	7.927
604.09	7.910
604.42	8.072
604.76	8.773
605.09	8.301
605.42	8.038
605.75	8.030
606.09	7.361
606.42	7.560
606.75	8.212
607.09	8.916
607.42	8.087
607.75	7.890
608.08	8.380
608.42	8.785
608.75	8.521
609.08	8.649
609.41	8.853
609.75	9.100
610.08	8.671
610.41	8.147
610.74	8.231
611.07	8.449
611.41	8.342
611.74	8.698
612.07	9.006
612.40	9.339
612.73	8.737
613.07	9.052
613.40	8.636
613.73	8.285
614.06	8.333
614.39	9.282
614.72	8.737
615.06	9.401
615.39	8.493
615.72	8.589
616.05	8.347
616.38	9.672
616.71	9.620
617.05	9.128
617.38	9.621
617.71	9.249
618.04	9.315
618.37	9.107
618.70	9.521
619.03	10.000
619.36	10.115
619.69	9.648
620.03	10.714
620.36	10.294
620.69	10.205
621.02	10.103
621.35	10.023
621.68	10.826
622.01	9.985
622.34	11.271
622.67	10.190
623.00	9.391
623.33	8.863
623.66	9.864
623.99	9.794
624.32	9.843
624.65	9.463
624.99	8.428
625.32	8.472
625.65	10.518
625.98	10.223
626.31	10.886
626.64	10.612
626.97	10.557
627.30	10.723
627.63	10.829
627.96	11.186
628.29	10.324
628.62	11.985
628.95	12.264
629.28	10.858
629.61	12.282
629.94	11.905
630.26	10.772
630.59	12.297
630.92	11.303
631.25	10.859
631.58	11.612
631.91	11.866
632.24	11.709
632.57	12.172
632.90	10.965
633.23	12.081
633.56	14.576
633.89	12.118
634.22	12.372
634.55	13.018
634.88	11.976
635.20	12.067
635.53	13.373
635.86	12.252
636.19	11.529
636.52	12.687
636.85	11.340
637.18	11.406
637.51	13.593
637.83	11.591
638.16	11.893
638.49	13.728
638.82	14.159
639.15	13.250
639.48	12.843
639.81	13.673
640.13	14.323
640.46	12.886
640.79	13.738
641.12	12.655
641.45	13.687
641.77	13.549
642.10	13.889
642.43	14.414
642.76	13.158
643.09	13.804
643.41	12.595
643.74	14.969
644.07	13.720
644.40	15.184
644.73	16.220
645.05	14.897
645.38	14.060
645.71	14.654
646.04	13.123
646.36	17.362
646.69	16.890
647.02	14.456
647.35	14.777
647.67	15.398
648.00	16.098
648.33	15.512
648.66	14.091
648.98	13.643
649.31	13.602
649.64	14.200
649.96	15.052
650.29	13.744
650.62	15.210
650.94	15.721
651.27	15.372
651.60	16.639
651.92	14.856
652.25	14.984
652.58	14.019
652.90	15.798
653.23	15.871
653.56	12.126
653.88	15.372
654.21	16.430
654.54	13.696
654.86	14.953
655.19	12.162
655.52	7.173
655.84	5.042
656.17	5.850
656.49	8.256
656.82	8.920
657.15	7.319
657.47	5.516
657.80	4.530
658.13	4.904
658.45	7.922
658.78	8.105
659.10	8.695
659.43	9.360
659.75	10.987
660.08	11.329
660.41	13.315
660.73	15.248
661.06	15.605
661.38	17.636
661.71	16.154
662.03	18.146
662.36	16.302
662.68	17.871
663.01	18.384
663.33	17.834
663.66	16.597
663.98	16.199
664.31	15.966
664.63	17.409
664.96	15.694
665.28	17.623
665.61	16.569
665.93	15.493
666.26	16.836
666.58	17.782
666.91	17.970
667.23	18.202
667.56	16.199
667.88	18.803
668.21	18.337
668.53	16.703
668.86	15.584
669.18	22.175
669.50	17.826
669.83	20.479
670.15	17.778
670.48	16.993
670.80	18.966
671.13	18.047
671.45	15.957
671.77	17.923
672.10	16.266
672.42	15.548
672.75	15.755
673.07	14.789
673.39	14.467
673.72	14.453
674.04	13.725
674.37	16.893
674.69	15.542
675.01	15.272
675.34	20.945
675.66	18.737
675.98	17.108
676.31	17.647
676.63	18.471
676.95	17.191
677.28	14.019
677.60	14.945
677.92	18.565
678.25	16.222
678.57	16.932
678.89	17.635
679.22	15.128
679.54	16.794
679.86	18.349
680.18	15.206
680.51	14.716
680.83	16.726
681.15	16.415
681.48	17.580
681.80	14.313
682.12	18.966
682.44	14.313
682.77	15.682
683.09	21.030
683.41	17.295
683.73	18.764
684.06	19.008
684.38	18.200
684.70	16.473
685.02	15.197
685.34	17.033
685.67	14.161
685.99	14.605
686.31	14.164
686.63	14.311
686.96	15.357
687.28	15.704
687.60	14.130
687.92	15.722
688.24	17.110
688.56	17.871
688.89	19.295
689.21	19.869
689.53	17.745
689.85	18.847
690.17	15.321
690.49	20.170
690.82	16.121
691.14	17.411
691.46	15.612
691.78	16.265
692.10	16.116
692.42	18.962
692.74	13.693
693.06	18.298
693.39	19.097
693.71	18.122
694.03	20.000
694.35	15.584
694.67	17.391
694.99	20.244
695.31	17.892
695.63	17.464
695.95	17.359
696.27	14.213
696.59	17.876
696.91	20.725
697.23	17.136
697.56	20.043
697.88	14.724
698.20	15.208
698.52	16.774
698.84	18.931
699.16	15.438
699.48	16.865
699.80	18.841
700.12	22.857
700.44	20.424
700.76	18.785
701.08	17.529
701.40	24.302
701.72	22.449
702.04	25.000
702.36	19.263
702.68	24.079
703.00	20.222
703.32	20.479
703.64	19.571
703.96	18.942
704.28	21.802
704.60	20.528
704.91	22.255
705.23	22.287
705.55	23.920
705.87	25.914
706.19	25.442
706.51	23.053
706.83	21.818
707.15	23.249
707.47	18.182
707.79	19.410
708.11	18.721
708.43	16.190
708.74	17.857
709.06	21.818
709.38	20.472
709.70	17.733
710.02	24.926
710.34	20.909
710.66	21.791
710.98	22.159
711.29	21.221
711.61	27.729
711.93	20.192
712.25	24.437
712.57	22.059
712.89	23.183
713.20	26.444
713.52	26.645
713.84	20.253
714.16	21.951
714.48	20.115
714.80	21.277
715.11	21.902
715.43	21.068
715.75	21.449
716.07	22.045
716.39	19.749
716.70	22.591
717.02	26.978
717.34	24.735
717.66	29.851
717.97	25.100
718.29	28.148
718.61	25.547
718.93	24.632
719.24	25.952
719.56	25.424
719.88	23.051
720.20	23.311
720.51	28.571
720.83	24.535
721.15	23.507
721.46	23.404
721.78	29.032
722.10	28.679
722.42	25.188
722.73	26.966
723.05	27.459
723.37	25.911
723.68	24.324
724.00	24.390
724.32	24.597
724.63	26.423
724.95	26.778
725.27	30.769
725.58	30.469
725.90	28.102
726.22	25.660
726.53	23.264
726.85	25.597
727.16	24.199
727.48	26.596
727.80	28.409
728.11	22.826
728.43	30.000
728.74	23.297
729.06	30.292
729.38	25.735
729.69	25.623
730.01	25.256
730.32	25.000
730.64	25.418
730.96	23.432
731.27	23.510
731.59	23.547
731.90	22.157
732.22	20.497
732.53	22.601
732.85	23.077
733.16	23.473
733.48	19.269
733.80	24.351
734.11	27.070
734.43	22.781
734.74	18.571
735.06	19.198
735.37	25.434
735.69	18.790
736.00	24.837
736.32	23.364
736.63	24.281
736.95	23.323
737.26	18.707
737.58	16.452
737.89	25.418
738.21	24.573
738.52	25.357
738.83	22.264
739.15	29.615
739.46	27.372
739.78	21.875
740.09	23.077
740.41	26.129
740.72	20.557
741.04	28.519
741.35	27.083
741.66	28.000
741.98	23.113
742.29	28.708
742.61	34.483
742.92	24.434
743.23	26.496
743.55	27.200
743.86	28.070
744.18	34.071
744.49	34.450
744.80	30.986
745.12	35.000
745.43	30.396
745.74	29.730
746.06	26.606
746.37	33.632
746.68	24.887
747.00	33.796
747.31	31.905
747.62	23.894
747.94	31.718
748.25	23.830
748.56	33.921
748.88	28.713
749.19	30.000
749.50	32.093
749.82	26.829
750.13	28.980
750.44	24.453
750.75	24.912
751.07	28.296
751.38	23.693
751.69	21.300
752.01	24.812
752.32	24.549
752.63	25.887
752.94	27.869
753.26	27.600
753.57	22.358
753.88	31.641
754.19	22.857
754.51	26.736
754.82	24.910
755.13	25.660
755.44	23.308
755.75	24.453
756.07	26.596
756.38	20.803
756.69	19.799
757.00	20.958
757.31	23.442
757.63	18.129
757.94	16.622
758.25	19.608
758.56	20.000
758.87	16.935
759.18	20.606
759.50	20.690
759.81	25.545
760.12	16.875
760.43	22.350
760.74	21.739
761.05	18.644
761.36	19.251
761.67	23.864
761.99	22.671
762.30	25.000
762.61	26.336
762.92	26.953
763.23	26.891
763.54	28.400
763.85	22.266
764.16	26.923
764.47	26.616
764.78	21.555
765.10	19.304
765.41	18.879
765.72	20.359
766.03	24.138
766.34	21.333
766.65	28.085
766.96	26.068
767.27	35.025
767.58	34.896
767.89	41.579
768.20	37.356
768.51	37.056
768.82	31.193
769.13	28.455
769.44	24.291
769.75	29.185
770.06	27.523
770.37	30.769
770.68	33.796
770.99	23.111
771.30	27.869
771.61	31.839
771.92	27.049
772.23	31.933
772.54	29.231
772.85	31.937
773.16	38.298
773.47	38.043
773.78	38.579
774.09	34.524
774.39	39.181
774.70	40.741
775.01	49.275
775.32	44.444
775.63	42.763
775.94	36.691
776.25	50.394
776.56	43.284
776.87	43.443
777.18	43.750
777.48	52.672
777.79	52.273
778.10	47.407
778.41	53.571
778.72	34.307
779.03	47.651
779.34	40.940
779.65	33.108
779.95	41.718
780.26	37.255
780.57	38.621
780.88	54.688
781.19	42.857
781.50	38.514
781.80	38.994
782.11	29.379
782.42	31.013
782.73	38.650
783.04	48.649
783.34	40.141
783.65	47.945
783.96	52.239
784.27	30.070
784.57	46.043
784.88	32.407
785.19	56.349
785.50	53.774
785.81	50.000
786.11	50.820
786.42	55.039
786.73	47.788
787.04	54.717
787.34	50.000
787.65	57.000
787.96	52.252
788.26	47.934
788.57	53.390
788.88	58.678
789.19	42.361
789.49	53.030
789.80	46.565
790.11	63.810
790.41	56.436
790.72	55.422
791.03	69.565
791.33	73.256
791.64	60.825
791.95	61.386
792.25	65.556
792.56	66.234
792.87	87.179
793.17	77.215
793.48	79.310
793.79	65.517
794.09	64.773
794.40	43.697
794.70	55.147
795.01	41.481
795.32	47.482
795.62	45.669
795.93	52.586
796.23	53.097
796.54	56.471
796.85	75.676
797.15	87.324
797.46	74.242
797.76	85.542
798.07	73.418
798.37	63.077
798.68	66.667
798.99	73.239
799.29	77.922
799.60	69.318
799.90	67.123
800.21	85.075
800.51	94.828
800.82	105.263
801.12	98.361
801.43	78.788
801.73	74.324
802.04	84.127
802.34	67.901
802.65	89.062
802.95	84.746
803.26	96.875
803.56	70.000
803.87	89.231
804.17	100.000
804.48	109.259
804.78	84.483
805.09	89.706
805.39	98.077
805.70	121.429
806.00	103.279
806.30	77.273
806.61	68.293
806.91	70.886
807.22	60.526
807.52	65.672
807.83	85.915
808.13	98.437
808.43	86.667
808.74	63.158
809.04	78.261
809.35	82.090
809.65	82.895
809.95	112.903
810.26	91.525
810.56	96.825
810.86	120.455
811.17	119.048
811.47	90.000
811.77	96.296
812.08	94.545
812.38	122.000
812.69	136.111
812.99	145.455
813.29	126.531
813.59	119.048
813.90	120.408
814.20	96.364
814.50	81.538
814.81	105.882
815.11	112.245
815.41	106.557
815.72	133.333
816.02	123.636
816.32	128.571
816.62	117.500
816.93	109.756
817.23	126.190
817.53	134.091
817.84	178.788
818.14	130.435
818.44	124.444
818.74	164.706
819.04	127.500
819.35	154.286
819.65	173.529
819.95	171.429
820.25	200.000
820.56	171.795
820.86	125.000
821.16	160.465
821.46	135.897
821.76	132.000
822.07	122.857
822.37	145.000
822.67	190.909
822.97	107.843
823.27	196.429
823.57	140.541
823.88	177.500
824.18	173.333
824.48	145.238
824.78	204.000
825.08	179.167
825.38	164.865
825.69	141.463
825.99	241.667
826.29	162.069
826.59	160.526
826.89	178.947
827.19	197.059
827.49	180.645
827.79	150.000
828.09	143.182
828.39	140.426
828.70	134.694
829.00	155.556
829.30	141.935
829.60	132.500
829.90	306.667
830.20	207.143
830.50	186.957
830.80	217.391
831.10	193.333
831.40	193.333
831.70	208.696
832.00	230.769
832.30	229.630
832.60	400.000
832.90	210.000
833.20	414.286
833.50	196.774
833.80	186.207
834.10	218.750
834.40	203.846
834.70	294.444
835.00	295.238
835.30	142.857
835.60	353.846
835.90	172.414
836.20	435.714
836.50	213.793
836.80	216.000
837.10	194.444
837.40	242.857
837.70	305.882
838.00	192.593
838.30	257.143
838.60	271.429
838.90	261.538
839.19	260.000
839.49	421.429
839.79	335.000
840.09	260.000
840.39	228.571
840.69	282.609
840.99	300.000
841.29	410.000
841.59	391.667
841.88	337.500
842.18	179.310
842.48	290.476
842.78	213.333
843.08	260.870
843.38	175.000
843.68	933.333
843.97	246.154
844.27	175.862
844.57	338.095
844.87	387.500
845.17	222.222
845.47	1533.333
845.76	522.222
846.06	317.647
846.36	612.500
846.66	407.143
846.96	343.750
847.25	336.364
847.55	527.273
847.85	260.870
848.15	560.000
848.44	392.857
848.74	288.889
849.04	341.176
849.34	610.000
849.63	278.947
849.93	572.727
850.23	1060.000
850.53	378.571
850.82	2400.000
851.12	-4100.000
851.42	4500.000
851.71	275.000
852.01	-1633.333
852.31	291.667
852.61	1633.333
852.90	271.429
853.20	272.000
853.50	323.529
853.79	280.952
854.09	216.667
854.39	268.750
854.68	172.973
854.98	216.129
855.28	153.333
855.57	179.310
855.87	222.222
856.17	268.421
856.46	253.333
856.76	282.353
857.05	217.241
857.35	237.500
857.65	326.667
857.94	265.217
858.24	246.154
858.53	295.000
858.83	222.727
859.13	406.667
859.42	0.000
859.72	633.333
860.01	418.182
860.31	281.818
860.60	310.526
860.90	256.522
861.20	588.889
861.49	583.333
861.79	-4900.000
862.08	700.000
862.38	347.619
862.67	300.000
862.97	329.412
863.26	622.222
863.56	316.667
863.85	408.333
864.15	562.500
864.44	386.667
864.74	983.333
865.03	612.500
865.33	315.789
865.62	472.727
865.92	469.231
866.21	458.333
866.51	0.000
866.80	536.364
867.10	1160.000
867.39	484.615
867.69	481.818
867.98	294.737
868.27	490.909
868.57	342.105
868.86	-4900.000
869.16	331.250
869.45	2450.000
869.75	-3400.000
870.04	475.000
870.33	628.571
870.63	925.000
870.92	2850.000
871.22	800.000
871.51	364.706
871.80	238.095
872.10	357.143
>>>>>End Processed Spectral Data<<<<<
