SpectraSuite Data File
++++++++++++++++++++++++++++++++++++
Date: Wed May 13 19:33:49 PDT 2015
User: schluterlab
Dark Spectrum Present: Yes
Reference Spectrum Present: Yes
Number of Sampled Component Spectra: 1
Spectrometers: USB2E3373
Integration Time (usec): 3000 (USB2E3373)
Spectra Averaged: 3 (USB2E3373)
Boxcar Smoothing: 0 (USB2E3373)
Correct for Electrical Dark: No (USB2E3373)
Strobe/Lamp Enabled: No (USB2E3373)
Correct for Detector Non-linearity: No (USB2E3373)
Correct for Stray Light: No (USB2E3373)
Number of Pixels in Processed Spectrum: 2048
>>>>>Begin Processed Spectral Data<<<<<
178.53	0.000
178.91	-1225.000
179.29	-1400.000
179.67	-227.778
180.04	-1400.000
180.42	2700.000
180.80	1260.000
181.18	-1100.000
181.56	842.857
181.94	0.000
182.31	-614.286
182.69	1766.667
183.07	-562.500
183.45	-533.333
183.83	527.273
184.20	-520.000
184.58	2200.000
184.96	6000.000
185.34	-780.000
185.72	-500.000
186.09	-2100.000
186.47	2700.000
186.85	2750.000
187.23	5300.000
187.61	-2033.333
187.98	1550.000
188.36	554.545
188.74	536.364
189.12	-960.000
189.49	590.000
189.87	-6100.000
190.25	-1225.000
190.63	421.429
191.00	446.154
191.38	833.333
191.76	-1075.000
192.14	1525.000
192.51	612.500
192.89	1133.333
193.27	625.000
193.65	-1350.000
194.02	660.000
194.40	1060.000
194.78	560.000
195.15	625.000
195.53	680.000
195.91	-2400.000
196.29	337.500
196.66	300.000
197.04	-490.000
197.42	0.000
197.79	600.000
198.17	-5400.000
198.55	685.714
198.92	700.000
199.30	1000.000
199.68	0.000
200.05	361.111
200.43	728.571
200.81	5200.000
201.18	1600.000
201.56	-1633.333
201.94	622.222
202.31	544.444
202.69	475.000
203.07	600.000
203.44	0.000
203.82	1550.000
204.19	771.429
204.57	500.000
204.95	687.500
205.32	1600.000
205.70	609.091
206.08	471.429
206.45	2950.000
206.83	368.750
207.20	1166.667
207.58	980.000
207.96	338.889
208.33	712.500
208.71	-783.333
209.08	757.143
209.46	722.222
209.84	481.818
210.21	-1633.333
210.59	1450.000
210.96	-512.500
211.34	2850.000
211.71	670.000
212.09	816.667
212.46	0.000
212.84	1666.667
213.22	1375.000
213.59	-4900.000
213.97	850.000
214.34	928.571
214.72	563.636
215.09	980.000
215.47	-2350.000
215.84	-2900.000
216.22	1566.667
216.59	407.143
216.97	1450.000
217.34	463.636
217.72	-716.667
218.09	0.000
218.47	-5600.000
218.84	688.889
219.22	871.429
219.59	1600.000
219.97	-657.143
220.34	1060.000
220.72	-2033.333
221.09	371.429
221.47	1475.000
221.84	-900.000
222.22	0.000
222.59	1350.000
222.97	-2600.000
223.34	1360.000
223.72	430.769
224.09	1200.000
224.46	2450.000
224.84	-6400.000
225.21	-1080.000
225.59	-4600.000
225.96	620.000
226.34	285.000
226.71	3000.000
227.08	587.500
227.46	640.000
227.83	-1125.000
228.21	-2550.000
228.58	622.222
228.95	-2400.000
229.33	-2250.000
229.70	2000.000
230.08	800.000
230.45	-940.000
230.82	541.667
231.20	733.333
231.57	742.857
231.95	591.667
232.32	245.455
232.69	445.455
233.07	714.286
233.44	430.769
233.81	-1600.000
234.19	321.053
234.56	508.333
234.93	450.000
235.31	472.727
235.68	361.538
236.05	371.429
236.43	190.909
236.80	294.737
237.17	4600.000
237.55	214.286
237.92	232.143
238.29	285.714
238.67	177.419
239.04	200.000
239.41	177.778
239.79	110.870
240.16	130.952
240.53	140.909
240.91	107.843
241.28	100.000
241.65	104.000
242.02	92.754
242.40	88.710
242.77	88.333
243.14	84.946
243.51	74.157
243.89	76.471
244.26	70.000
244.63	72.043
245.00	62.766
245.38	60.396
245.75	66.355
246.12	51.376
246.49	56.204
246.87	60.800
247.24	58.462
247.61	57.857
247.98	52.288
248.36	42.568
248.73	43.312
249.10	45.860
249.47	44.068
249.84	44.385
250.22	42.781
250.59	44.379
250.96	44.444
251.33	41.232
251.70	37.129
252.08	38.571
252.45	31.390
252.82	31.304
253.19	36.596
253.56	35.294
253.94	34.025
254.31	38.672
254.68	32.308
255.05	34.317
255.42	32.927
255.79	30.515
256.16	33.935
256.54	31.095
256.91	30.605
257.28	29.496
257.65	28.053
258.02	30.745
258.39	29.968
258.76	30.100
259.14	30.655
259.51	27.052
259.88	25.466
260.25	28.701
260.62	26.590
260.99	25.466
261.36	27.027
261.73	28.653
262.10	24.709
262.47	25.070
262.85	25.348
263.22	21.652
263.59	26.781
263.96	26.923
264.33	24.804
264.70	26.316
265.07	26.343
265.44	24.495
265.81	22.871
266.18	24.372
266.55	24.390
266.92	23.833
267.29	25.926
267.66	25.229
268.03	23.636
268.40	26.869
268.77	21.718
269.14	22.297
269.51	27.540
269.88	22.145
270.25	23.025
270.62	22.921
270.99	22.366
271.36	24.678
271.73	21.262
272.10	22.609
272.47	23.441
272.84	23.160
273.21	24.528
273.58	20.742
273.95	22.013
274.32	21.694
274.69	23.340
275.06	20.472
275.43	20.638
275.80	21.242
276.17	22.403
276.54	22.245
276.91	22.530
277.28	22.070
277.65	20.696
278.02	20.083
278.39	22.266
278.76	22.545
279.13	22.453
279.50	22.905
279.87	20.916
280.23	20.160
280.60	20.696
280.97	19.224
281.34	21.593
281.71	22.545
282.08	23.608
282.45	18.909
282.82	20.604
283.19	18.538
283.56	21.754
283.92	19.289
284.29	20.282
284.66	20.145
285.03	20.072
285.40	20.775
285.77	19.529
286.14	17.962
286.51	21.333
286.87	19.829
287.24	19.544
287.61	20.385
287.98	19.156
288.35	19.334
288.72	17.601
289.08	18.779
289.45	17.298
289.82	17.236
290.19	16.484
290.56	18.530
290.93	14.955
291.29	17.485
291.66	17.109
292.03	20.058
292.40	20.558
292.77	17.160
293.13	17.612
293.50	16.472
293.87	17.630
294.24	16.593
294.60	14.993
294.97	16.134
295.34	18.618
295.71	15.483
296.08	16.097
296.44	16.506
296.81	15.456
297.18	17.209
297.55	14.380
297.91	15.435
298.28	15.261
298.65	17.102
299.02	15.942
299.38	13.280
299.75	14.151
300.12	14.176
300.48	15.625
300.85	13.440
301.22	16.178
301.59	15.278
301.95	15.113
302.32	15.918
302.69	16.249
303.05	13.818
303.42	14.938
303.79	14.043
304.15	14.219
304.52	12.862
304.89	13.589
305.25	14.269
305.62	13.930
305.99	13.577
306.35	13.199
306.72	13.677
307.09	13.762
307.45	13.626
307.82	12.835
308.19	14.128
308.55	14.995
308.92	14.071
309.29	13.094
309.65	13.256
310.02	13.319
310.38	12.581
310.75	14.256
311.12	13.920
311.48	13.689
311.85	14.361
312.22	13.215
312.58	13.410
312.95	13.728
313.31	13.495
313.68	14.449
314.05	15.187
314.41	13.769
314.78	13.394
315.14	13.406
315.51	13.491
315.87	15.248
316.24	14.101
316.61	13.938
316.97	14.971
317.34	13.992
317.70	15.392
318.07	14.822
318.43	14.873
318.80	17.057
319.16	14.878
319.53	15.291
319.89	16.095
320.26	16.800
320.62	15.377
320.99	15.657
321.35	17.879
321.72	19.199
322.08	18.361
322.45	20.597
322.81	19.283
323.18	18.882
323.54	19.202
323.91	21.226
324.27	22.084
324.64	19.758
325.00	20.559
325.37	21.838
325.73	23.519
326.10	22.595
326.46	23.477
326.83	24.849
327.19	24.167
327.56	24.303
327.92	26.597
328.29	25.909
328.65	26.888
329.01	26.083
329.38	25.902
329.74	27.054
330.11	28.464
330.47	27.365
330.84	28.860
331.20	28.142
331.56	28.440
331.93	28.148
332.29	29.015
332.66	29.469
333.02	28.885
333.38	29.268
333.75	29.947
334.11	30.249
334.48	30.612
334.84	30.607
335.20	30.727
335.57	30.190
335.93	29.554
336.29	29.762
336.66	30.929
337.02	31.403
337.38	30.741
337.75	29.590
338.11	29.991
338.47	30.939
338.84	31.806
339.20	30.092
339.56	32.482
339.93	30.545
340.29	31.975
340.65	30.749
341.02	32.199
341.38	32.028
341.74	32.368
342.11	31.528
342.47	32.159
342.83	31.849
343.20	32.208
343.56	30.750
343.92	32.105
344.28	31.803
344.65	33.276
345.01	31.313
345.37	31.818
345.73	32.487
346.10	32.566
346.46	34.068
346.82	31.301
347.19	31.830
347.55	31.281
347.91	33.091
348.27	33.361
348.63	33.110
349.00	32.848
349.36	32.759
349.72	33.039
350.08	32.739
350.45	34.418
350.81	31.925
351.17	33.306
351.53	34.480
351.89	33.333
352.26	32.912
352.62	33.440
352.98	34.198
353.34	33.443
353.70	32.897
354.07	33.306
354.43	32.937
354.79	32.341
355.15	32.642
355.51	34.293
355.87	33.714
356.24	35.179
356.60	31.516
356.96	34.031
357.32	34.096
357.68	34.331
358.04	33.729
358.40	34.759
358.77	35.133
359.13	34.333
359.49	34.118
359.85	33.095
360.21	34.689
360.57	35.331
360.93	35.385
361.29	34.240
361.66	34.520
362.02	35.373
362.38	35.513
362.74	34.896
363.10	35.825
363.46	34.923
363.82	35.828
364.18	34.655
364.54	37.221
364.90	35.269
365.26	35.809
365.62	36.596
365.98	36.304
366.35	35.960
366.71	35.864
367.07	37.436
367.43	37.010
367.79	37.330
368.15	38.290
368.51	36.773
368.87	37.616
369.23	37.820
369.59	37.726
369.95	37.353
370.31	37.821
370.67	37.029
371.03	37.828
371.39	36.880
371.75	39.044
372.11	37.269
372.47	38.783
372.83	39.986
373.19	39.162
373.55	38.655
373.91	39.691
374.27	38.419
374.63	38.182
374.99	39.195
375.35	38.800
375.71	38.999
376.07	39.712
376.42	39.340
376.78	40.093
377.14	39.620
377.50	40.199
377.86	39.295
378.22	40.771
378.58	39.536
378.94	40.918
379.30	41.603
379.66	42.069
380.02	41.093
380.38	40.801
380.74	42.857
381.09	41.932
381.45	42.348
381.81	42.568
382.17	41.720
382.53	42.013
382.89	43.395
383.25	43.402
383.61	43.123
383.97	42.652
384.32	42.857
384.68	42.937
385.04	43.639
385.40	43.344
385.76	42.813
386.12	44.236
386.48	44.682
386.83	44.195
387.19	45.516
387.55	45.455
387.91	45.103
388.27	44.206
388.62	44.991
388.98	45.455
389.34	46.308
389.70	43.961
390.06	46.324
390.42	45.979
390.77	46.183
391.13	45.437
391.49	46.066
391.85	45.576
392.20	46.751
392.56	47.033
392.92	47.204
393.28	46.213
393.64	46.703
393.99	46.915
394.35	47.891
394.71	45.922
395.07	47.477
395.42	47.651
395.78	47.519
396.14	47.052
396.50	49.937
396.85	48.951
397.21	48.150
397.57	47.799
397.92	49.038
398.28	47.365
398.64	48.984
399.00	48.573
399.35	48.675
399.71	48.264
400.07	49.734
400.42	49.387
400.78	49.940
401.14	49.634
401.49	50.507
401.85	49.002
402.21	49.102
402.57	49.722
402.92	50.315
403.28	51.156
403.63	50.928
403.99	51.720
404.35	51.152
404.70	50.839
405.06	50.553
405.42	51.653
405.77	50.171
406.13	51.129
406.49	50.976
406.84	50.266
407.20	50.887
407.55	51.563
407.91	52.600
408.27	52.776
408.62	50.933
408.98	52.206
409.34	52.706
409.69	52.710
410.05	51.735
410.40	51.498
410.76	53.226
411.11	52.654
411.47	53.099
411.83	52.596
412.18	53.556
412.54	53.611
412.89	51.506
413.25	52.361
413.60	52.502
413.96	51.670
414.31	52.369
414.67	54.119
415.03	53.907
415.38	53.544
415.74	53.183
416.09	54.474
416.45	54.150
416.80	54.263
417.16	54.960
417.51	54.015
417.87	54.978
418.22	55.079
418.58	54.745
418.93	55.037
419.29	53.787
419.64	55.919
420.00	55.549
420.35	54.145
420.71	55.649
421.06	55.430
421.42	54.620
421.77	54.709
422.12	54.351
422.48	54.506
422.83	55.853
423.19	55.525
423.54	55.775
423.90	56.000
424.25	55.221
424.61	56.012
424.96	56.676
425.31	55.814
425.67	55.169
426.02	56.457
426.38	56.471
426.73	56.641
427.09	57.082
427.44	56.814
427.79	56.987
428.15	57.738
428.50	55.705
428.85	57.867
429.21	55.991
429.56	57.543
429.92	55.863
430.27	55.859
430.62	55.760
430.98	56.098
431.33	56.134
431.68	57.173
432.04	56.443
432.39	58.310
432.74	57.810
433.10	59.423
433.45	59.125
433.80	57.927
434.16	57.051
434.51	55.895
434.86	56.842
435.22	58.255
435.57	58.906
435.92	58.748
436.28	59.193
436.63	58.333
436.98	57.184
437.34	59.213
437.69	59.393
438.04	58.797
438.39	58.388
438.75	59.384
439.10	60.279
439.45	58.442
439.81	59.275
440.16	58.103
440.51	58.582
440.86	59.178
441.22	59.121
441.57	58.386
441.92	59.314
442.27	58.988
442.63	58.662
442.98	59.831
443.33	58.424
443.68	57.976
444.03	58.565
444.39	57.790
444.74	59.145
445.09	58.814
445.44	58.721
445.79	58.535
446.15	58.549
446.50	59.343
446.85	59.404
447.20	59.867
447.55	59.520
447.91	58.742
448.26	59.989
448.61	59.525
448.96	59.690
449.31	60.236
449.66	59.651
450.02	57.883
450.37	59.637
450.72	60.575
451.07	59.171
451.42	58.906
451.77	60.070
452.12	57.852
452.47	59.639
452.83	60.781
453.18	60.391
453.53	60.792
453.88	59.480
454.23	59.235
454.58	60.024
454.93	61.920
455.28	59.165
455.63	59.466
455.98	61.071
456.34	59.736
456.69	60.426
457.04	60.681
457.39	59.030
457.74	57.632
458.09	60.265
458.44	59.350
458.79	58.189
459.14	60.045
459.49	59.311
459.84	59.612
460.19	57.690
460.54	56.944
460.89	59.188
461.24	59.866
461.59	60.837
461.94	57.707
462.29	59.703
462.64	58.073
462.99	58.165
463.34	59.600
463.69	59.537
464.04	58.783
464.39	58.319
464.74	57.992
465.09	58.685
465.44	58.670
465.79	56.767
466.14	57.745
466.49	58.231
466.84	58.727
467.19	58.902
467.54	58.875
467.89	59.004
468.24	57.999
468.59	58.242
468.94	58.461
469.29	58.869
469.64	59.973
469.99	59.269
470.34	58.983
470.68	60.057
471.03	59.524
471.38	59.972
471.73	60.493
472.08	58.947
472.43	58.229
472.78	59.184
473.13	59.499
473.48	59.363
473.83	59.756
474.17	57.996
474.52	60.298
474.87	57.268
475.22	58.967
475.57	57.335
475.92	57.833
476.27	57.948
476.61	57.805
476.96	58.824
477.31	56.986
477.66	58.534
478.01	56.665
478.36	58.012
478.70	57.477
479.05	56.390
479.40	57.267
479.75	56.431
480.10	57.306
480.45	55.973
480.79	56.187
481.14	56.800
481.49	56.194
481.84	57.430
482.19	56.929
482.53	56.651
482.88	56.910
483.23	56.542
483.58	55.823
483.92	56.701
484.27	53.943
484.62	55.819
484.97	54.631
485.31	54.692
485.66	51.254
486.01	49.871
486.36	47.809
486.70	48.371
487.05	49.278
487.40	51.353
487.75	52.136
488.09	53.715
488.44	53.869
488.79	55.154
489.13	54.049
489.48	54.608
489.83	55.848
490.17	55.940
490.52	54.827
490.87	56.174
491.22	55.753
491.56	54.989
491.91	55.421
492.26	55.168
492.60	54.931
492.95	53.461
493.30	54.346
493.64	54.830
493.99	53.900
494.34	53.793
494.68	54.487
495.03	54.511
495.37	53.746
495.72	54.971
496.07	54.617
496.41	53.540
496.76	53.386
497.11	53.579
497.45	54.308
497.80	54.894
498.14	53.671
498.49	53.902
498.84	53.979
499.18	53.667
499.53	53.894
499.87	53.215
500.22	54.357
500.56	54.903
500.91	53.221
501.26	52.963
501.60	54.343
501.95	52.200
502.29	53.140
502.64	52.747
502.98	52.595
503.33	51.965
503.67	52.343
504.02	51.777
504.36	51.942
504.71	53.298
505.06	52.000
505.40	52.358
505.75	51.880
506.09	52.138
506.44	52.738
506.78	52.655
507.13	53.559
507.47	52.879
507.82	53.141
508.16	52.634
508.51	53.526
508.85	52.582
509.19	53.061
509.54	51.224
509.88	51.880
510.23	52.237
510.57	52.477
510.92	52.615
511.26	52.312
511.61	52.127
511.95	51.357
512.30	51.750
512.64	52.714
512.98	52.787
513.33	53.319
513.67	51.494
514.02	51.623
514.36	52.703
514.70	52.905
515.05	52.036
515.39	52.384
515.74	52.646
516.08	52.655
516.42	53.108
516.77	52.731
517.11	51.221
517.46	52.652
517.80	53.020
518.14	52.113
518.49	53.559
518.83	51.364
519.17	51.443
519.52	51.726
519.86	51.683
520.20	52.775
520.55	52.962
520.89	52.798
521.23	52.533
521.58	52.641
521.92	53.705
522.26	51.617
522.61	53.956
522.95	51.320
523.29	51.369
523.64	52.622
523.98	52.372
524.32	51.327
524.66	51.413
525.01	51.716
525.35	52.107
525.69	51.416
526.04	51.838
526.38	51.007
526.72	50.920
527.06	52.040
527.41	49.938
527.75	52.347
528.09	51.509
528.43	50.287
528.78	50.338
529.12	49.818
529.46	51.562
529.80	51.547
530.15	51.090
530.49	49.108
530.83	50.949
531.17	50.914
531.51	52.464
531.86	51.677
532.20	51.108
532.54	50.224
532.88	51.027
533.22	48.345
533.57	49.074
533.91	48.766
534.25	49.635
534.59	49.725
534.93	48.126
535.27	49.004
535.62	48.352
535.96	50.596
536.30	49.269
536.64	49.646
536.98	49.370
537.32	49.835
537.66	49.200
538.01	50.494
538.35	48.610
538.69	48.947
539.03	47.953
539.37	47.348
539.71	46.533
540.05	49.346
540.39	49.502
540.73	47.801
541.07	49.448
541.42	47.945
541.76	47.355
542.10	47.413
542.44	48.278
542.78	48.617
543.12	47.921
543.46	46.164
543.80	48.146
544.14	46.470
544.48	47.492
544.82	47.530
545.16	46.845
545.50	46.208
545.84	47.581
546.18	47.946
546.52	48.245
546.86	48.660
547.20	47.202
547.54	47.228
547.88	45.982
548.22	46.638
548.56	45.975
548.90	44.686
549.24	46.734
549.58	47.476
549.92	47.184
550.26	46.378
550.60	46.404
550.94	48.099
551.28	46.233
551.62	46.657
551.96	45.614
552.30	45.870
552.64	46.586
552.98	45.831
553.32	45.920
553.66	46.149
554.00	45.161
554.34	45.825
554.68	46.066
555.02	46.262
555.36	45.651
555.69	44.723
556.03	45.424
556.37	46.044
556.71	44.816
557.05	46.429
557.39	44.997
557.73	44.813
558.07	46.773
558.41	46.165
558.75	45.849
559.08	44.370
559.42	47.392
559.76	45.735
560.10	44.540
560.44	44.514
560.78	43.513
561.12	43.865
561.45	43.220
561.79	43.705
562.13	45.406
562.47	44.262
562.81	43.933
563.15	43.813
563.48	43.966
563.82	44.031
564.16	42.250
564.50	41.797
564.84	42.351
565.17	41.763
565.51	42.812
565.85	42.830
566.19	41.954
566.52	42.242
566.86	41.290
567.20	42.689
567.54	42.009
567.88	40.684
568.21	40.899
568.55	39.130
568.89	39.591
569.23	38.146
569.56	37.530
569.90	36.717
570.24	36.132
570.57	36.280
570.91	35.165
571.25	35.454
571.59	35.022
571.92	34.591
572.26	34.720
572.60	35.796
572.93	35.022
573.27	34.723
573.61	34.785
573.95	34.393
574.28	33.769
574.62	33.771
574.96	32.903
575.29	33.366
575.63	33.892
575.97	33.793
576.30	33.909
576.64	33.637
576.98	33.106
577.31	33.087
577.65	33.116
577.98	32.288
578.32	31.910
578.66	32.725
578.99	32.983
579.33	33.140
579.67	32.523
580.00	33.014
580.34	33.151
580.67	32.711
581.01	32.921
581.35	31.827
581.68	31.839
582.02	31.118
582.35	31.682
582.69	31.685
583.02	31.617
583.36	32.972
583.70	33.591
584.03	33.438
584.37	33.597
584.70	32.863
585.04	32.901
585.37	32.153
585.71	32.636
586.04	32.375
586.38	32.994
586.72	33.140
587.05	32.437
587.39	31.609
587.72	32.079
588.06	32.257
588.39	32.647
588.73	32.913
589.06	33.126
589.40	33.300
589.73	34.108
590.07	34.306
590.40	33.431
590.73	34.973
591.07	34.554
591.40	34.669
591.74	36.061
592.07	34.642
592.41	33.857
592.74	33.071
593.08	32.545
593.41	31.477
593.75	31.512
594.08	31.680
594.41	32.838
594.75	32.865
595.08	32.999
595.42	32.960
595.75	32.372
596.09	33.496
596.42	33.910
596.75	33.643
597.09	34.416
597.42	33.094
597.75	33.506
598.09	33.348
598.42	33.076
598.76	33.158
599.09	31.965
599.42	32.023
599.76	31.955
600.09	30.528
600.42	31.337
600.76	31.500
601.09	31.840
601.42	32.230
601.76	31.954
602.09	32.569
602.42	32.882
602.76	32.729
603.09	31.629
603.42	32.292
603.76	31.707
604.09	32.183
604.42	31.553
604.76	33.151
605.09	31.542
605.42	31.979
605.75	32.409
606.09	31.802
606.42	31.835
606.75	31.730
607.09	32.357
607.42	32.050
607.75	31.224
608.08	32.393
608.42	32.676
608.75	31.560
609.08	32.146
609.41	32.223
609.75	32.253
610.08	31.621
610.41	31.797
610.74	31.599
611.07	33.004
611.41	32.090
611.74	32.428
612.07	32.505
612.40	32.424
612.73	32.000
613.07	32.866
613.40	32.596
613.73	31.358
614.06	32.527
614.39	31.411
614.72	32.105
615.06	31.985
615.39	31.635
615.72	32.055
616.05	31.845
616.38	32.574
616.71	33.017
617.05	32.450
617.38	33.073
617.71	32.492
618.04	34.435
618.37	32.762
618.70	33.292
619.03	34.408
619.36	34.827
619.69	34.296
620.03	35.096
620.36	34.492
620.69	34.041
621.02	35.546
621.35	36.492
621.68	33.879
622.01	35.449
622.34	35.098
622.67	34.753
623.00	32.062
623.33	33.381
623.66	34.024
623.99	33.063
624.32	32.668
624.65	34.110
624.99	31.870
625.32	33.309
625.65	33.434
625.98	34.743
626.31	35.070
626.64	34.286
626.97	35.495
627.30	34.830
627.63	34.783
627.96	35.408
628.29	35.433
628.62	35.133
628.95	37.736
629.28	35.949
629.61	36.114
629.94	34.095
630.26	34.223
630.59	35.939
630.92	35.057
631.25	36.328
631.58	36.036
631.91	36.105
632.24	37.131
632.57	36.306
632.90	38.048
633.23	37.025
633.56	37.853
633.89	38.052
634.22	37.798
634.55	38.462
634.88	38.323
635.20	37.634
635.53	38.675
635.86	38.366
636.19	36.588
636.52	36.101
636.85	37.801
637.18	35.369
637.51	38.180
637.83	36.991
638.16	37.724
638.49	37.028
638.82	38.559
639.15	38.750
639.48	38.778
639.81	38.472
640.13	38.411
640.46	38.926
640.79	38.309
641.12	37.139
641.45	37.849
641.77	39.912
642.10	40.205
642.43	40.541
642.76	38.235
643.09	40.031
643.41	38.695
643.74	40.432
644.07	39.329
644.40	41.104
644.73	41.417
645.05	40.412
645.38	39.810
645.71	39.775
646.04	40.199
646.36	41.402
646.69	42.475
647.02	39.626
647.35	40.893
647.67	40.885
648.00	40.000
648.33	40.429
648.66	36.970
648.98	37.031
649.31	37.818
649.64	37.967
649.96	39.195
650.29	39.968
650.62	37.540
650.94	40.519
651.27	40.541
651.60	40.433
651.92	38.019
652.25	38.762
652.58	36.449
652.90	39.810
653.23	36.055
653.56	37.638
653.88	37.876
654.21	38.705
654.54	39.109
654.86	37.539
655.19	34.865
655.52	22.355
655.84	17.872
656.17	23.079
656.49	31.413
656.82	33.534
657.15	26.509
657.47	19.764
657.80	15.794
658.13	16.534
658.45	25.589
658.78	26.378
659.10	27.854
659.43	30.293
659.75	31.845
660.08	34.367
660.41	39.292
660.73	39.136
661.06	37.102
661.38	39.636
661.71	40.000
662.03	41.420
662.36	39.960
662.68	37.751
663.01	40.808
663.33	40.127
663.66	43.697
663.98	41.685
664.31	39.496
664.63	39.069
664.96	38.632
665.28	42.418
665.61	37.037
665.93	40.644
666.26	38.134
666.58	40.167
666.91	42.918
667.23	43.596
667.56	42.333
667.88	41.239
668.21	40.299
668.53	41.649
668.86	36.797
669.18	42.857
669.50	43.478
669.83	45.534
670.15	41.333
670.48	41.830
670.80	43.103
671.13	41.401
671.45	38.511
671.77	39.104
672.10	38.078
672.42	34.099
672.75	37.148
673.07	35.387
673.39	36.347
673.72	36.133
674.04	37.255
674.37	38.058
674.69	38.037
675.01	38.703
675.34	39.836
675.66	40.842
675.98	37.882
676.31	39.286
676.63	40.977
676.95	40.881
677.28	42.056
677.60	39.560
677.92	40.928
678.25	37.988
678.57	39.641
678.89	37.074
679.22	38.507
679.54	36.641
679.86	36.147
680.18	36.852
680.51	34.574
680.83	35.587
681.15	37.925
681.48	38.185
681.80	37.718
682.12	35.249
682.44	37.137
682.77	38.900
683.09	39.700
683.41	40.355
683.73	37.969
684.06	37.397
684.38	36.595
684.70	34.884
685.02	37.523
685.34	36.447
685.67	33.217
685.99	32.646
686.31	34.471
686.63	32.862
686.96	36.071
687.28	35.018
687.60	35.688
687.92	37.477
688.24	36.692
688.56	38.956
688.89	36.722
689.21	42.795
689.53	36.534
689.85	40.133
690.17	33.954
690.49	38.429
690.82	38.318
691.14	38.393
691.46	36.287
691.78	35.542
692.10	36.364
692.42	37.126
692.74	36.307
693.06	34.894
693.39	36.550
693.71	36.681
694.03	34.737
694.35	34.632
694.67	36.384
694.99	38.293
695.31	38.235
695.63	38.756
695.95	38.386
696.27	35.787
696.59	36.788
696.91	38.860
697.23	34.977
697.56	34.755
697.88	32.311
698.20	34.583
698.52	35.054
698.84	35.857
699.16	34.793
699.48	37.055
699.80	38.406
700.12	40.519
700.44	44.032
700.76	41.989
701.08	40.805
701.40	38.827
701.72	43.732
702.04	44.602
702.36	36.544
702.68	37.394
703.00	42.105
703.32	37.234
703.64	37.534
703.96	38.440
704.28	36.337
704.60	42.229
704.91	41.246
705.23	39.589
705.55	44.850
705.87	47.508
706.19	44.170
706.51	40.498
706.83	40.303
707.15	41.737
707.47	35.859
707.79	38.084
708.11	34.247
708.43	35.714
708.74	33.929
709.06	39.221
709.38	38.320
709.70	39.826
710.02	40.356
710.34	41.212
710.66	42.090
710.98	38.068
711.29	42.151
711.61	43.068
711.93	43.590
712.25	45.016
712.57	47.059
712.89	41.176
713.20	38.298
713.52	41.447
713.84	42.089
714.16	39.329
714.48	34.770
714.80	44.377
715.11	38.329
715.43	38.872
715.75	38.841
716.07	41.214
716.39	40.125
716.70	40.532
717.02	44.964
717.34	42.403
717.66	43.657
717.97	47.012
718.29	40.370
718.61	43.796
718.93	46.691
719.24	43.253
719.56	40.000
719.88	40.339
720.20	41.216
720.51	48.780
720.83	45.725
721.15	42.164
721.46	41.844
721.78	48.029
722.10	44.151
722.42	41.729
722.73	43.071
723.05	42.623
723.37	46.154
723.68	42.857
724.00	43.902
724.32	48.790
724.63	42.276
724.95	46.025
725.27	43.320
725.58	45.703
725.90	46.350
726.22	44.906
726.53	40.278
726.85	39.590
727.16	39.502
727.48	41.135
727.80	44.318
728.11	40.580
728.43	43.077
728.74	39.427
729.06	44.526
729.38	44.853
729.69	40.214
730.01	36.519
730.32	41.319
730.64	39.799
730.96	36.964
731.27	37.086
731.59	38.532
731.90	36.152
732.22	37.267
732.53	32.198
732.85	40.385
733.16	35.370
733.48	39.867
733.80	39.286
734.11	41.401
734.43	39.349
734.74	32.857
735.06	32.665
735.37	39.306
735.69	35.669
736.00	36.928
736.32	37.695
736.63	38.978
736.95	38.978
737.26	31.973
737.58	31.290
737.89	43.813
738.21	40.273
738.52	38.214
738.83	36.981
739.15	39.231
739.46	40.511
739.78	37.847
740.09	38.462
740.41	41.613
740.72	37.631
741.04	40.741
741.35	45.417
741.66	50.222
741.98	44.340
742.29	47.368
742.61	48.707
742.92	42.534
743.23	47.009
743.55	42.400
743.86	39.035
744.18	48.230
744.49	46.411
744.80	46.479
745.12	45.909
745.43	46.256
745.74	49.550
746.06	50.000
746.37	45.291
746.68	38.009
747.00	40.741
747.31	47.619
747.62	42.478
747.94	45.815
748.25	45.106
748.56	50.661
748.88	50.000
749.19	54.500
749.50	50.233
749.82	43.089
750.13	42.449
750.44	37.956
750.75	41.404
751.07	39.550
751.38	37.282
751.69	38.989
752.01	40.602
752.32	38.628
752.63	36.879
752.94	41.393
753.26	44.800
753.57	38.618
753.88	43.359
754.19	37.857
754.51	40.278
754.82	35.740
755.13	40.377
755.44	34.962
755.75	37.591
756.07	33.333
756.38	38.686
756.69	38.591
757.00	30.539
757.31	35.312
757.63	34.503
757.94	30.295
758.25	31.127
758.56	27.654
758.87	32.527
759.18	33.636
759.50	33.856
759.81	37.383
760.12	29.687
760.43	32.951
760.74	32.880
761.05	35.311
761.36	31.551
761.67	34.943
761.99	35.093
762.30	37.847
762.61	39.313
762.92	41.797
763.23	39.076
763.54	39.200
763.85	38.672
764.16	41.923
764.47	38.023
764.78	37.809
765.10	30.380
765.41	37.168
765.72	35.030
766.03	34.169
766.34	37.667
766.65	48.511
766.96	44.017
767.27	52.284
767.58	48.958
767.89	54.737
768.20	51.149
768.51	47.716
768.82	44.037
769.13	41.870
769.44	38.057
769.75	39.485
770.06	34.862
770.37	47.964
770.68	43.519
770.99	42.667
771.30	34.836
771.61	44.843
771.92	42.623
772.23	46.218
772.54	43.077
772.85	49.738
773.16	47.340
773.47	52.174
773.78	51.777
774.09	52.976
774.39	53.801
774.70	56.790
775.01	54.348
775.32	58.170
775.63	51.316
775.94	59.712
776.25	65.354
776.56	67.164
776.87	58.197
777.18	63.281
777.48	65.649
777.79	60.606
778.10	54.074
778.41	67.857
778.72	51.095
779.03	51.007
779.34	55.034
779.65	50.676
779.95	57.055
780.26	59.477
780.57	57.241
780.88	65.625
781.19	55.639
781.50	54.730
781.80	54.717
782.11	47.458
782.42	47.468
782.73	53.988
783.04	60.811
783.34	61.268
783.65	63.014
783.96	57.463
784.27	58.741
784.57	47.482
784.88	52.778
785.19	63.492
785.50	74.528
785.81	64.925
786.11	68.852
786.42	62.016
786.73	62.832
787.04	67.925
787.34	55.357
787.65	63.000
787.96	70.270
788.26	64.463
788.57	70.339
788.88	68.595
789.19	66.667
789.49	63.636
789.80	62.595
790.11	83.810
790.41	75.248
790.72	90.361
791.03	69.565
791.33	81.395
791.64	75.258
791.95	81.188
792.25	70.000
792.56	80.519
792.87	85.897
793.17	92.405
793.48	88.506
793.79	72.414
794.09	78.409
794.40	57.983
794.70	61.765
795.01	52.593
795.32	59.712
795.62	59.843
795.93	62.931
796.23	61.947
796.54	75.294
796.85	75.676
797.15	107.042
797.46	95.455
797.76	81.928
798.07	94.937
798.37	90.769
798.68	95.455
798.99	87.324
799.29	84.416
799.60	81.818
799.90	94.521
800.21	110.448
800.51	113.793
800.82	129.825
801.12	101.639
801.43	109.091
801.73	89.189
802.04	106.349
802.34	90.123
802.65	92.188
802.95	116.949
803.26	118.750
803.56	91.429
803.87	84.615
804.17	89.706
804.48	118.519
804.78	103.448
805.09	92.647
805.39	109.615
805.70	96.429
806.00	119.672
806.30	90.909
806.61	84.146
806.91	87.342
807.22	90.789
807.52	73.134
807.83	94.366
808.13	109.375
808.43	95.000
808.74	75.000
809.04	101.449
809.35	102.985
809.65	97.368
809.95	124.194
810.26	105.085
810.56	104.762
810.86	159.091
811.17	123.810
811.47	108.333
811.77	109.259
812.08	140.000
812.38	134.000
812.69	180.556
812.99	156.818
813.29	134.694
813.59	150.000
813.90	132.653
814.20	105.455
814.50	93.846
814.81	104.412
815.11	124.490
815.41	96.721
815.72	178.571
816.02	127.273
816.32	140.476
816.62	155.000
816.93	139.024
817.23	154.762
817.53	156.818
817.84	166.667
818.14	132.609
818.44	122.222
818.74	188.235
819.04	140.000
819.35	174.286
819.65	176.471
819.95	189.286
820.25	255.000
820.56	164.103
820.86	150.000
821.16	165.116
821.46	174.359
821.76	144.000
822.07	160.000
822.37	145.000
822.67	190.909
822.97	115.686
823.27	235.714
823.57	189.189
823.88	165.000
824.18	206.667
824.48	154.762
824.78	228.000
825.08	183.333
825.38	156.757
825.69	129.268
825.99	233.333
826.29	175.862
826.59	197.368
826.89	139.474
827.19	200.000
827.49	193.548
827.79	159.091
828.09	129.545
828.39	134.043
828.70	128.571
829.00	181.481
829.30	167.742
829.60	152.500
829.90	313.333
830.20	232.143
830.50	213.043
830.80	226.087
831.10	206.667
831.40	200.000
831.70	195.652
832.00	276.923
832.30	225.926
832.60	300.000
832.90	223.333
833.20	400.000
833.50	225.806
833.80	224.138
834.10	212.500
834.40	246.154
834.70	311.111
835.00	314.286
835.30	191.429
835.60	430.769
835.90	203.448
836.20	335.714
836.50	227.586
836.80	244.000
837.10	180.556
837.40	276.190
837.70	370.588
838.00	229.630
838.30	276.190
838.60	290.476
838.90	276.923
839.19	275.000
839.49	492.857
839.79	380.000
840.09	320.000
840.39	295.238
840.69	313.043
840.99	277.778
841.29	590.000
841.59	383.333
841.88	356.250
842.18	186.207
842.48	295.238
842.78	190.000
843.08	278.261
843.38	178.125
843.68	883.333
843.97	250.000
844.27	227.586
844.57	342.857
844.87	406.250
845.17	211.111
845.47	1666.667
845.76	577.778
846.06	335.294
846.36	712.500
846.66	428.571
846.96	325.000
847.25	509.091
847.55	481.818
847.85	278.261
848.15	560.000
848.44	335.714
848.74	294.444
849.04	305.882
849.34	510.000
849.63	257.895
849.93	481.818
850.23	1000.000
850.53	421.429
850.82	2600.000
851.12	-4100.000
851.42	5400.000
851.71	285.000
852.01	-1166.667
852.31	270.833
852.61	1933.333
852.90	266.667
853.20	260.000
853.50	376.471
853.79	285.714
854.09	266.667
854.39	381.250
854.68	162.162
854.98	216.129
855.28	220.000
855.57	220.690
855.87	259.259
856.17	336.842
856.46	313.333
856.76	382.353
857.05	186.207
857.35	250.000
857.65	340.000
857.94	252.174
858.24	226.923
858.53	290.000
858.83	263.636
859.13	386.667
859.42	0.000
859.72	644.444
860.01	490.909
860.31	254.545
860.60	331.579
860.90	252.174
861.20	688.889
861.49	575.000
861.79	-4800.000
862.08	750.000
862.38	271.429
862.67	361.538
862.97	358.824
863.26	633.333
863.56	305.556
863.85	450.000
864.15	687.500
864.44	420.000
864.74	950.000
865.03	787.500
865.33	326.316
865.62	472.727
865.92	438.462
866.21	416.667
866.51	0.000
866.80	472.727
867.10	1380.000
867.39	476.923
867.69	481.818
867.98	315.789
868.27	490.909
868.57	310.526
868.86	-5100.000
869.16	368.750
869.45	2300.000
869.75	-4300.000
870.04	416.667
870.33	714.286
870.63	1425.000
870.92	2600.000
871.22	671.429
871.51	376.471
871.80	266.667
872.10	371.429
>>>>>End Processed Spectral Data<<<<<
