SpectraSuite Data File
++++++++++++++++++++++++++++++++++++
Date: Wed May 13 19:49:21 PDT 2015
User: schluterlab
Dark Spectrum Present: Yes
Reference Spectrum Present: Yes
Number of Sampled Component Spectra: 1
Spectrometers: USB2E3373
Integration Time (usec): 3000 (USB2E3373)
Spectra Averaged: 3 (USB2E3373)
Boxcar Smoothing: 0 (USB2E3373)
Correct for Electrical Dark: No (USB2E3373)
Strobe/Lamp Enabled: No (USB2E3373)
Correct for Detector Non-linearity: No (USB2E3373)
Correct for Stray Light: No (USB2E3373)
Number of Pixels in Processed Spectrum: 2048
>>>>>Begin Processed Spectral Data<<<<<
178.53	0.000
178.91	-1450.000
179.29	-1200.000
179.67	-227.778
180.04	-1275.000
180.42	3000.000
180.80	1040.000
181.18	-1350.000
181.56	771.429
181.94	0.000
182.31	-814.286
182.69	2066.667
183.07	-612.500
183.45	-600.000
183.83	554.545
184.20	-420.000
184.58	2400.000
184.96	5500.000
185.34	-900.000
185.72	-575.000
186.09	-2150.000
186.47	2900.000
186.85	2300.000
187.23	5200.000
187.61	-1733.333
187.98	1475.000
188.36	609.091
188.74	518.182
189.12	-920.000
189.49	520.000
189.87	-5000.000
190.25	-1400.000
190.63	428.571
191.00	438.462
191.38	966.667
191.76	-1150.000
192.14	1275.000
192.51	700.000
192.89	1133.333
193.27	600.000
193.65	-1350.000
194.02	600.000
194.40	900.000
194.78	530.000
195.15	583.333
195.53	700.000
195.91	-2500.000
196.29	406.250
196.66	315.789
197.04	-370.000
197.42	0.000
197.79	580.000
198.17	-3800.000
198.55	657.143
198.92	687.500
199.30	860.000
199.68	0.000
200.05	316.667
200.43	800.000
200.81	5000.000
201.18	2066.667
201.56	-1766.667
201.94	577.778
202.31	644.444
202.69	416.667
203.07	580.000
203.44	0.000
203.82	1350.000
204.19	800.000
204.57	428.571
204.95	750.000
205.32	1600.000
205.70	536.364
206.08	414.286
206.45	3250.000
206.83	406.250
207.20	850.000
207.58	760.000
207.96	361.111
208.33	812.500
208.71	-933.333
209.08	757.143
209.46	555.556
209.84	518.182
210.21	-1433.333
210.59	1375.000
210.96	-500.000
211.34	2450.000
211.71	650.000
212.09	866.667
212.46	0.000
212.84	1800.000
213.22	1575.000
213.59	-5300.000
213.97	916.667
214.34	728.571
214.72	600.000
215.09	1200.000
215.47	-2600.000
215.84	-2700.000
216.22	1600.000
216.59	492.857
216.97	1500.000
217.34	481.818
217.72	-816.667
218.09	0.000
218.47	-4500.000
218.84	633.333
219.22	685.714
219.59	1900.000
219.97	-728.571
220.34	900.000
220.72	-2133.333
221.09	428.571
221.47	1375.000
221.84	-766.667
222.22	0.000
222.59	1500.000
222.97	-2600.000
223.34	1260.000
223.72	476.923
224.09	1160.000
224.46	2950.000
224.84	-5300.000
225.21	-1100.000
225.59	-5400.000
225.96	610.000
226.34	280.000
226.71	2850.000
227.08	700.000
227.46	520.000
227.83	-1050.000
228.21	-2500.000
228.58	711.111
228.95	-2700.000
229.33	-2350.000
229.70	1800.000
230.08	785.714
230.45	-760.000
230.82	483.333
231.20	733.333
231.57	685.714
231.95	550.000
232.32	277.273
232.69	509.091
233.07	657.143
233.44	392.308
233.81	-1666.667
234.19	342.105
234.56	508.333
234.93	408.333
235.31	554.545
235.68	415.385
236.05	442.857
236.43	218.182
236.80	321.053
237.17	5600.000
237.55	266.667
237.92	235.714
238.29	319.048
238.67	196.774
239.04	275.862
239.41	186.111
239.79	150.000
240.16	176.190
240.53	168.182
240.91	125.490
241.28	138.000
241.65	146.000
242.02	117.391
242.40	109.677
242.77	125.000
243.14	108.602
243.51	103.371
243.89	105.882
244.26	98.889
244.63	97.849
245.00	98.936
245.38	88.119
245.75	83.178
246.12	87.156
246.49	81.752
246.87	96.800
247.24	78.462
247.61	77.857
247.98	84.967
248.36	75.000
248.73	76.433
249.10	87.261
249.47	72.316
249.84	71.123
250.22	66.310
250.59	74.556
250.96	77.273
251.33	68.720
251.70	71.287
252.08	68.095
252.45	62.332
252.82	63.913
253.19	62.128
253.56	65.490
253.94	66.805
254.31	63.672
254.68	65.769
255.05	64.207
255.42	65.041
255.79	60.662
256.16	64.982
256.54	56.537
256.91	63.345
257.28	61.511
257.65	60.066
258.02	57.143
258.39	57.413
258.76	63.211
259.14	58.929
259.51	57.143
259.88	58.385
260.25	57.704
260.62	59.827
260.99	61.180
261.36	58.258
261.73	58.453
262.10	55.523
262.47	58.028
262.85	54.039
263.22	57.835
263.59	55.556
263.96	57.143
264.33	58.225
264.70	53.947
265.07	54.987
265.44	55.556
265.81	51.582
266.18	56.533
266.55	54.634
266.92	55.037
267.29	55.556
267.66	53.670
268.03	52.727
268.40	54.907
268.77	51.551
269.14	51.126
269.51	52.596
269.88	54.079
270.25	53.950
270.62	52.360
270.99	51.613
271.36	52.790
271.73	54.673
272.10	52.826
272.47	52.903
272.84	52.165
273.21	51.363
273.58	51.092
273.95	47.799
274.32	48.760
274.69	55.032
275.06	49.409
275.43	53.617
275.80	52.906
276.17	50.713
276.54	50.520
276.91	51.186
277.28	49.414
277.65	47.582
278.02	50.932
278.39	50.000
278.76	50.909
279.13	52.075
279.50	47.672
279.87	50.398
280.23	51.697
280.60	51.064
280.97	47.505
281.34	50.265
281.71	48.364
282.08	49.904
282.45	48.727
282.82	48.668
283.19	48.663
283.56	49.825
283.92	47.885
284.29	47.443
284.66	48.276
285.03	47.016
285.40	46.655
285.77	48.485
286.14	46.632
286.51	47.333
286.87	46.667
287.24	45.277
287.61	45.746
287.98	43.831
288.35	44.374
288.72	44.704
289.08	44.288
289.45	43.657
289.82	43.740
290.19	41.915
290.56	41.960
290.93	41.088
291.29	44.632
291.66	40.413
292.03	44.331
292.40	41.997
292.77	40.089
293.13	39.851
293.50	39.942
293.87	40.593
294.24	38.963
294.60	39.738
294.97	39.244
295.34	40.197
295.71	39.489
296.08	37.749
296.44	38.927
296.81	39.234
297.18	39.431
297.55	35.620
297.91	37.071
298.28	38.822
298.65	36.684
299.02	37.418
299.38	36.786
299.75	37.466
300.12	35.377
300.48	35.000
300.85	36.252
301.22	36.561
301.59	34.343
301.95	37.280
302.32	36.842
302.69	33.931
303.05	35.152
303.42	34.198
303.79	35.108
304.15	33.800
304.52	33.140
304.89	31.940
305.25	32.715
305.62	33.296
305.99	36.009
306.35	34.340
306.72	33.969
307.09	34.628
307.45	34.347
307.82	33.036
308.19	34.106
308.55	33.981
308.92	33.298
309.29	30.834
309.65	31.919
310.02	33.192
310.38	33.226
310.75	32.946
311.12	33.367
311.48	33.020
311.85	32.180
312.22	32.362
312.58	30.665
312.95	32.207
313.31	31.165
313.68	32.952
314.05	34.221
314.41	32.261
314.78	30.614
315.14	31.082
315.51	32.544
315.87	31.386
316.24	31.480
316.61	30.994
316.97	30.431
317.34	30.626
317.70	32.122
318.07	31.184
318.43	30.431
318.80	31.584
319.16	30.508
319.53	30.769
319.89	30.667
320.26	32.200
320.62	31.448
320.99	30.404
321.35	30.909
321.72	31.930
322.08	31.293
322.45	32.239
322.81	29.845
323.18	30.154
323.54	30.983
323.91	31.226
324.27	30.115
324.64	29.450
325.00	29.576
325.37	30.755
325.73	31.777
326.10	30.891
326.46	30.556
326.83	30.716
327.19	29.974
327.56	29.878
327.92	30.096
328.29	30.612
328.65	31.860
329.01	30.957
329.38	29.695
329.74	29.271
330.11	30.160
330.47	31.497
330.84	31.066
331.20	31.421
331.56	30.459
331.93	29.537
332.29	30.257
332.66	30.619
333.02	30.804
333.38	30.714
333.75	29.857
334.11	30.961
334.48	29.636
334.84	30.331
335.20	29.545
335.57	29.918
335.93	28.661
336.29	30.128
336.66	29.216
337.02	29.321
337.38	28.796
337.75	30.125
338.11	29.722
338.47	29.374
338.84	30.247
339.20	29.358
339.56	29.380
339.93	30.182
340.29	30.344
340.65	29.590
341.02	30.628
341.38	30.427
341.74	28.860
342.11	29.345
342.47	28.899
342.83	28.253
343.20	29.697
343.56	28.307
343.92	29.386
344.28	29.592
344.65	28.977
345.01	27.778
345.37	28.302
345.73	28.849
346.10	28.474
346.46	28.898
346.82	28.748
347.19	28.404
347.55	27.997
347.91	28.803
348.27	29.745
348.63	28.846
349.00	27.670
349.36	28.079
349.72	28.067
350.08	27.634
350.45	28.316
350.81	28.838
351.17	28.201
351.53	27.846
351.89	28.053
352.26	28.571
352.62	27.185
352.98	27.066
353.34	28.102
353.70	27.741
354.07	27.742
354.43	26.508
354.79	26.388
355.15	27.135
355.51	28.537
355.87	28.000
356.24	27.524
356.60	27.907
356.96	26.790
357.32	26.983
357.68	28.346
358.04	27.553
358.40	27.395
358.77	26.995
359.13	26.283
359.49	27.608
359.85	26.746
360.21	26.715
360.57	26.615
360.93	26.769
361.29	26.002
361.66	26.393
362.02	27.090
362.38	27.376
362.74	27.083
363.10	25.981
363.46	26.926
363.82	26.077
364.18	25.698
364.54	26.597
364.90	26.629
365.26	26.544
365.62	26.808
365.98	25.931
366.35	26.218
366.71	26.103
367.07	26.293
367.43	25.544
367.79	26.124
368.15	26.724
368.51	26.235
368.87	26.552
369.23	27.286
369.59	26.140
369.95	25.809
370.31	25.000
370.67	26.014
371.03	26.517
371.39	26.312
371.75	25.588
372.11	25.391
372.47	27.566
372.83	26.657
373.19	26.517
373.55	26.312
373.91	27.099
374.27	25.842
374.63	25.527
374.99	25.636
375.35	25.820
375.71	25.634
376.07	26.337
376.42	26.204
376.78	25.646
377.14	25.441
377.50	25.629
377.86	24.867
378.22	25.917
378.58	24.687
378.94	25.016
379.30	25.573
379.66	25.825
380.02	25.369
380.38	24.651
380.74	25.090
381.09	25.489
381.45	24.339
381.81	25.123
382.17	25.732
382.53	24.340
382.89	25.432
383.25	24.453
383.61	24.907
383.97	25.016
384.32	24.828
384.68	24.226
385.04	24.954
385.40	24.644
385.76	23.710
386.12	24.288
386.48	25.047
386.83	25.208
387.19	25.974
387.55	24.181
387.91	24.547
388.27	23.728
388.62	24.093
388.98	23.956
389.34	24.406
389.70	24.280
390.06	23.828
390.42	24.708
390.77	24.936
391.13	25.335
391.49	25.444
391.85	24.889
392.20	24.543
392.56	23.801
392.92	24.308
393.28	23.787
393.64	24.281
393.99	24.618
394.35	24.007
394.71	24.404
395.07	23.676
395.42	24.969
395.78	24.873
396.14	24.519
396.50	25.063
396.85	24.921
397.21	23.798
397.57	23.931
397.92	24.279
398.28	23.262
398.64	24.074
399.00	24.231
399.35	24.083
399.71	24.248
400.07	24.187
400.42	24.172
400.78	24.608
401.14	23.659
401.49	24.299
401.85	23.654
402.21	23.353
402.57	24.244
402.92	23.834
403.28	23.985
403.63	24.196
403.99	23.121
404.35	24.606
404.70	24.281
405.06	23.588
405.42	23.019
405.77	23.257
406.13	23.025
406.49	23.418
406.84	23.449
407.20	23.050
407.55	23.676
407.91	24.133
408.27	23.484
408.62	23.961
408.98	23.897
409.34	24.170
409.69	23.935
410.05	23.358
410.40	24.404
410.76	22.939
411.11	23.221
411.47	23.195
411.83	23.152
412.18	23.315
412.54	24.720
412.89	23.976
413.25	22.845
413.60	23.471
413.96	22.526
414.31	22.539
414.67	23.638
415.03	23.709
415.38	23.647
415.74	23.923
416.09	24.233
416.45	23.159
416.80	23.133
417.16	24.531
417.51	24.154
417.87	23.250
418.22	24.290
418.58	24.274
418.93	23.771
419.29	23.552
419.64	23.866
420.00	23.780
420.35	22.957
420.71	23.252
421.06	23.329
421.42	24.094
421.77	23.599
422.12	22.796
422.48	22.234
422.83	22.481
423.19	23.260
423.54	23.506
423.90	23.420
424.25	23.004
424.61	23.155
424.96	23.090
425.31	23.311
425.67	22.528
426.02	23.143
426.38	22.955
426.73	23.113
427.09	23.647
427.44	22.542
427.79	22.082
428.15	23.036
428.50	23.171
428.85	23.063
429.21	22.308
429.56	22.913
429.92	22.396
430.27	22.790
430.62	21.608
430.98	22.833
431.33	23.196
431.68	22.618
432.04	22.630
432.39	22.159
432.74	22.741
433.10	22.807
433.45	23.207
433.80	22.838
434.16	22.810
434.51	22.316
434.86	22.121
435.22	22.679
435.57	23.161
435.92	22.528
436.28	23.369
436.63	23.068
436.98	23.354
437.34	22.182
437.69	23.454
438.04	22.485
438.39	22.866
438.75	22.719
439.10	22.346
439.45	22.550
439.81	22.719
440.16	23.094
440.51	22.378
440.86	22.235
441.22	23.137
441.57	22.665
441.92	23.030
442.27	22.443
442.63	22.380
442.98	22.873
443.33	23.152
443.68	22.509
444.03	22.889
444.39	21.519
444.74	23.539
445.09	22.102
445.44	22.799
445.79	22.415
446.15	22.446
446.50	22.079
446.85	22.713
447.20	22.743
447.55	22.111
447.91	22.890
448.26	22.259
448.61	22.442
448.96	22.591
449.31	21.935
449.66	23.016
450.02	22.117
450.37	22.562
450.72	22.617
451.07	21.999
451.42	23.040
451.77	23.194
452.12	21.709
452.47	22.512
452.83	22.960
453.18	22.555
453.53	23.129
453.88	21.914
454.23	22.654
454.58	23.016
454.93	22.632
455.28	22.070
455.63	22.148
455.98	23.155
456.34	22.236
456.69	21.728
457.04	22.848
457.39	22.092
457.74	22.577
458.09	22.139
458.44	22.235
458.79	21.638
459.14	22.630
459.49	22.534
459.84	21.994
460.19	20.978
460.54	22.106
460.89	22.161
461.24	22.587
461.59	22.371
461.94	21.825
462.29	22.730
462.64	23.293
462.99	22.251
463.34	24.000
463.69	22.702
464.04	22.377
464.39	22.319
464.74	22.816
465.09	22.497
465.44	21.994
465.79	21.812
466.14	21.839
466.49	21.580
466.84	22.592
467.19	21.847
467.54	23.125
467.89	21.669
468.24	22.862
468.59	22.222
468.94	21.747
469.29	21.979
469.64	23.360
469.99	22.869
470.34	23.052
470.68	22.557
471.03	21.020
471.38	22.446
471.73	22.518
472.08	23.224
472.43	22.236
472.78	21.988
473.13	23.042
473.48	23.221
473.83	22.561
474.17	22.153
474.52	22.333
474.87	22.709
475.22	22.809
475.57	21.924
475.92	22.358
476.27	21.082
476.61	21.677
476.96	22.320
477.31	21.978
477.66	22.374
478.01	20.910
478.36	22.052
478.70	21.391
479.05	22.630
479.40	22.160
479.75	21.098
480.10	21.372
480.45	21.799
480.79	21.309
481.14	21.575
481.49	21.642
481.84	21.811
482.19	21.899
482.53	21.468
482.88	21.778
483.23	20.794
483.58	22.111
483.92	22.118
484.27	20.436
484.62	20.948
484.97	21.009
485.31	21.747
485.66	21.559
486.01	21.242
486.36	20.448
486.70	19.583
487.05	20.162
487.40	21.118
487.75	20.290
488.09	20.412
488.44	20.080
488.79	20.723
489.13	20.397
489.48	20.840
489.83	20.932
490.17	21.701
490.52	21.036
490.87	21.076
491.22	20.009
491.56	20.228
491.91	20.568
492.26	20.671
492.60	20.968
492.95	20.159
493.30	20.093
493.64	20.672
493.99	20.706
494.34	21.277
494.68	20.467
495.03	21.100
495.37	20.568
495.72	20.517
496.07	21.253
496.41	20.354
496.76	21.108
497.11	20.666
497.45	20.121
497.80	20.441
498.14	20.580
498.49	20.927
498.84	21.093
499.18	20.810
499.53	21.083
499.87	20.969
500.22	20.160
500.56	20.874
500.91	21.058
501.26	20.721
501.60	21.120
501.95	20.257
502.29	22.071
502.64	20.717
502.98	20.757
503.33	20.795
503.67	20.742
504.02	21.422
504.36	21.151
504.71	20.518
505.06	21.253
505.40	20.856
505.75	20.829
506.09	20.214
506.44	20.720
506.78	21.140
507.13	21.403
507.47	20.404
507.82	21.023
508.16	21.479
508.51	20.903
508.85	20.407
509.19	20.816
509.54	20.357
509.88	20.402
510.23	21.131
510.57	21.878
510.92	21.543
511.26	20.298
511.61	20.954
511.95	21.033
512.30	21.050
512.64	21.279
512.98	20.954
513.33	21.306
513.67	20.864
514.02	20.455
514.36	20.754
514.70	20.642
515.05	20.301
515.39	21.312
515.74	20.833
516.08	20.906
516.42	21.976
516.77	20.847
517.11	21.088
517.46	21.840
517.80	21.545
518.14	20.382
518.49	22.462
518.83	21.023
519.17	20.843
519.52	21.166
519.86	21.563
520.20	21.618
520.55	22.142
520.89	21.229
521.23	22.135
521.58	20.708
521.92	21.800
522.26	20.195
522.61	20.436
522.95	21.486
523.29	20.511
523.64	21.280
523.98	20.641
524.32	21.411
524.66	20.746
525.01	21.324
525.35	21.004
525.69	20.443
526.04	21.184
526.38	20.866
526.72	20.920
527.06	21.343
527.41	20.606
527.75	21.543
528.09	21.387
528.43	21.224
528.78	22.250
529.12	21.152
529.46	21.310
529.80	21.163
530.15	21.869
530.49	21.846
530.83	21.582
531.17	21.345
531.51	23.217
531.86	22.194
532.20	21.969
532.54	22.486
532.88	21.502
533.22	21.799
533.57	21.481
533.91	21.252
534.25	21.567
534.59	21.538
534.93	21.773
535.27	21.123
535.62	22.222
535.96	21.406
536.30	21.742
536.64	22.151
536.98	21.831
537.32	21.725
537.66	22.667
538.01	22.120
538.35	22.107
538.69	22.017
539.03	20.923
539.37	21.150
539.71	20.933
540.05	21.634
540.39	21.595
540.73	22.316
541.07	21.220
541.42	21.918
541.76	23.161
542.10	22.445
542.44	21.457
542.78	21.871
543.12	21.753
543.46	21.443
543.80	21.796
544.14	21.566
544.48	22.032
544.82	20.783
545.16	23.162
545.50	21.337
545.84	21.976
546.18	21.953
546.52	22.712
546.86	21.924
547.20	21.578
547.54	21.910
547.88	23.023
548.22	21.731
548.56	22.579
548.90	22.023
549.24	21.549
549.58	21.828
549.92	21.841
550.26	21.733
550.60	21.231
550.94	20.915
551.28	21.434
551.62	21.711
551.96	21.333
552.30	21.502
552.64	22.312
552.98	21.356
553.32	22.050
553.66	22.154
554.00	21.826
554.34	22.084
554.68	22.031
555.02	20.945
555.36	20.807
555.69	21.313
556.03	21.938
556.37	21.623
556.71	21.896
557.05	22.479
557.39	21.763
557.73	21.171
558.07	22.553
558.41	21.346
558.75	21.969
559.08	22.446
559.42	21.240
559.76	21.838
560.10	22.270
560.44	22.572
560.78	21.490
561.12	21.768
561.45	21.186
561.79	21.556
562.13	20.926
562.47	21.653
562.81	22.176
563.15	21.538
563.48	22.347
563.82	22.244
564.16	21.975
564.50	21.745
564.84	21.997
565.17	21.622
565.51	21.981
565.85	21.891
566.19	21.165
566.52	22.673
566.86	21.157
567.20	22.052
567.54	21.747
567.88	21.890
568.21	22.275
568.55	21.992
568.89	21.936
569.23	22.059
569.56	21.538
569.90	21.585
570.24	21.708
570.57	21.761
570.91	21.396
571.25	21.618
571.59	21.414
571.92	21.774
572.26	21.115
572.60	21.622
572.93	20.960
573.27	21.325
573.61	21.692
573.95	21.602
574.28	21.382
574.62	21.380
574.96	21.004
575.29	20.587
575.63	20.910
575.97	20.828
576.30	20.951
576.64	20.950
576.98	21.050
577.31	20.933
577.65	21.564
577.98	21.190
578.32	21.207
578.66	20.860
578.99	21.616
579.33	20.963
579.67	20.725
580.00	20.834
580.34	20.764
580.67	20.657
581.01	21.048
581.35	21.313
581.68	21.350
582.02	21.043
582.35	20.922
582.69	20.959
583.02	21.030
583.36	21.121
583.70	20.954
584.03	20.716
584.37	20.817
584.70	21.578
585.04	20.988
585.37	21.412
585.71	21.852
586.04	21.044
586.38	21.735
586.72	20.933
587.05	21.054
587.39	21.135
587.72	21.103
588.06	21.265
588.39	21.838
588.73	21.414
589.06	21.564
589.40	21.549
589.73	22.210
590.07	21.637
590.40	21.191
590.73	21.429
591.07	21.815
591.40	21.468
591.74	22.987
592.07	21.684
592.41	22.241
592.74	21.910
593.08	21.752
593.41	21.923
593.75	21.049
594.08	21.388
594.41	21.774
594.75	21.257
595.08	22.047
595.42	21.716
595.75	21.652
596.09	22.005
596.42	21.965
596.75	21.655
597.09	22.165
597.42	21.206
597.75	21.000
598.09	21.783
598.42	21.478
598.76	21.686
599.09	21.095
599.42	21.834
599.76	21.962
600.09	21.421
600.42	21.256
600.76	20.964
601.09	21.530
601.42	21.385
601.76	21.328
602.09	20.830
602.42	21.935
602.76	21.765
603.09	22.266
603.42	22.062
603.76	21.380
604.09	20.706
604.42	21.525
604.76	21.679
605.09	21.713
605.42	21.248
605.75	21.689
606.09	21.797
606.42	21.700
606.75	21.734
607.09	21.850
607.42	21.609
607.75	20.717
608.08	21.320
608.42	22.277
608.75	21.461
609.08	21.924
609.41	21.704
609.75	21.343
610.08	22.196
610.41	20.810
610.74	21.192
611.07	21.492
611.41	22.080
611.74	22.272
612.07	21.273
612.40	22.455
612.73	21.842
613.07	22.198
613.40	22.538
613.73	21.028
614.06	21.129
614.39	21.185
614.72	22.368
615.06	22.111
615.39	21.550
615.72	21.472
616.05	21.903
616.38	22.123
616.71	22.506
617.05	22.850
617.38	22.189
617.71	21.261
618.04	22.716
618.37	22.117
618.70	21.904
619.03	23.026
619.36	21.860
619.69	21.972
620.03	22.665
620.36	22.326
620.69	23.151
621.02	22.935
621.35	21.300
621.68	21.885
622.01	21.207
622.34	22.920
622.67	22.357
623.00	21.864
623.33	20.372
623.66	23.159
623.99	21.208
624.32	22.896
624.65	21.893
624.99	21.459
625.32	21.506
625.65	22.014
625.98	21.829
626.31	21.928
626.64	23.102
626.97	22.943
627.30	22.111
627.63	22.970
627.96	22.876
628.29	22.660
628.62	22.873
628.95	22.547
629.28	23.175
629.61	23.098
629.94	23.238
630.26	21.354
630.59	22.593
630.92	22.414
631.25	21.816
631.58	22.523
631.91	23.225
632.24	22.152
632.57	22.875
632.90	23.465
633.23	22.819
633.56	24.633
633.89	22.990
634.22	22.134
634.55	25.207
634.88	21.796
635.20	23.178
635.53	22.289
635.86	23.886
636.19	23.176
636.52	22.376
636.85	22.680
637.18	22.235
637.51	22.695
637.83	20.838
638.16	22.251
638.49	22.796
638.82	24.652
639.15	23.250
639.48	23.691
639.81	23.727
640.13	23.307
640.46	25.503
640.79	24.042
641.12	22.834
641.45	22.905
641.77	22.975
642.10	23.830
642.43	23.423
642.76	26.471
643.09	24.387
643.41	26.404
643.74	25.154
644.07	23.780
644.40	25.460
644.73	24.567
645.05	24.406
645.38	24.171
645.71	21.900
646.04	25.748
646.36	25.876
646.69	25.585
647.02	23.129
647.35	25.258
647.67	24.956
648.00	25.691
648.33	25.908
648.66	24.242
648.98	25.637
649.31	23.468
649.64	23.318
649.96	24.292
650.29	25.276
650.62	24.110
650.94	26.256
651.27	24.493
651.60	24.792
651.92	26.677
652.25	24.267
652.58	23.364
652.90	24.171
653.23	24.653
653.56	25.197
653.88	27.100
654.21	26.224
654.54	24.752
654.86	23.832
655.19	23.919
655.52	19.187
655.84	20.413
656.17	26.509
656.49	34.765
656.82	34.196
657.15	25.161
657.47	18.321
657.80	13.462
658.13	13.721
658.45	19.206
658.78	19.943
659.10	20.877
659.43	20.933
659.75	22.331
660.08	23.101
660.41	25.698
660.73	28.208
661.06	25.478
661.38	26.727
661.71	27.692
662.03	27.022
662.36	24.652
662.68	27.912
663.01	26.667
663.33	27.601
663.66	28.992
663.98	26.134
664.31	27.311
664.63	25.911
664.96	26.358
665.28	26.434
665.61	25.926
665.93	24.950
666.26	27.181
666.58	25.941
666.91	27.061
667.23	28.090
667.56	23.974
667.88	28.205
668.21	27.719
668.53	24.946
668.86	26.407
669.18	27.932
669.50	26.739
669.83	30.283
670.15	27.111
670.48	26.144
670.80	27.586
671.13	25.478
671.45	26.596
671.77	28.717
672.10	27.542
672.42	25.618
672.75	25.871
673.07	25.176
673.39	24.774
673.72	24.219
674.04	26.275
674.37	26.019
674.69	25.562
675.01	25.732
675.34	28.542
675.66	29.684
675.98	27.902
676.31	27.311
676.63	28.025
676.95	26.415
677.28	27.336
677.60	25.714
677.92	29.747
678.25	28.542
678.57	26.096
678.89	24.248
679.22	26.916
679.54	27.290
679.86	25.872
680.18	27.370
680.51	25.355
680.83	27.936
681.15	25.472
681.48	28.922
681.80	28.627
682.12	25.670
682.44	24.952
682.77	27.088
683.09	29.399
683.41	27.051
683.73	28.035
684.06	27.273
684.38	25.636
684.70	26.744
685.02	27.580
685.34	25.824
685.67	24.476
685.99	23.024
686.31	26.109
686.63	24.205
686.96	24.821
687.28	26.173
687.60	23.370
687.92	25.777
688.24	26.046
688.56	28.514
688.89	27.593
689.21	28.821
689.53	27.140
689.85	27.716
690.17	25.259
690.49	27.813
690.82	27.570
691.14	26.116
691.46	24.895
691.78	27.510
692.10	26.860
692.42	27.545
692.74	25.519
693.06	27.660
693.39	27.515
693.71	29.476
694.03	28.842
694.35	26.407
694.67	27.002
694.99	29.024
695.31	26.471
695.63	26.077
695.95	29.829
696.27	28.173
696.59	30.052
696.91	28.756
697.23	28.638
697.56	31.557
697.88	25.358
698.20	27.083
698.52	27.097
698.84	28.953
699.16	28.341
699.48	29.454
699.80	30.193
700.12	29.870
700.44	28.647
700.76	32.320
701.08	32.184
701.40	27.933
701.72	30.321
702.04	35.511
702.36	33.428
702.68	32.861
703.00	28.809
703.32	28.723
703.64	29.759
703.96	31.476
704.28	31.686
704.60	33.431
704.91	33.531
705.23	31.085
705.55	33.223
705.87	35.216
706.19	35.336
706.51	30.218
706.83	30.909
707.15	30.532
707.47	30.556
707.79	32.678
708.11	30.137
708.43	26.190
708.74	27.551
709.06	31.948
709.38	30.446
709.70	30.523
710.02	31.157
710.34	30.303
710.66	31.045
710.98	34.091
711.29	31.686
711.61	36.283
711.93	28.526
712.25	34.405
712.57	32.721
712.89	31.488
713.20	34.650
713.52	31.250
713.84	30.696
714.16	32.622
714.48	33.333
714.80	37.386
715.11	32.277
715.43	31.454
715.75	32.464
716.07	34.505
716.39	30.408
716.70	31.561
717.02	35.612
717.34	31.449
717.66	36.940
717.97	37.052
718.29	34.815
718.61	33.212
718.93	34.191
719.24	35.986
719.56	34.915
719.88	28.136
720.20	34.122
720.51	35.540
720.83	36.059
721.15	30.597
721.46	33.333
721.78	35.842
722.10	32.453
722.42	37.970
722.73	31.461
723.05	38.115
723.37	37.247
723.68	35.521
724.00	38.211
724.32	34.274
724.63	32.114
724.95	33.054
725.27	36.842
725.58	37.891
725.90	38.321
726.22	34.717
726.53	32.986
726.85	33.788
727.16	39.858
727.48	35.106
727.80	33.712
728.11	35.507
728.43	36.154
728.74	34.409
729.06	36.861
729.38	40.441
729.69	36.655
730.01	33.447
730.32	35.764
730.64	36.120
730.96	33.333
731.27	35.762
731.59	33.333
731.90	36.152
732.22	31.677
732.53	31.889
732.85	31.410
733.16	34.405
733.48	32.890
733.80	36.039
734.11	32.484
734.43	33.432
734.74	30.857
735.06	28.940
735.37	34.971
735.69	33.121
736.00	39.216
736.32	36.137
736.63	31.629
736.95	36.741
737.26	31.293
737.58	31.613
737.89	35.117
738.21	31.058
738.52	32.857
738.83	34.717
739.15	36.923
739.46	35.036
739.78	36.806
740.09	33.538
740.41	33.226
740.72	36.237
741.04	38.148
741.35	38.333
741.66	44.444
741.98	37.736
742.29	41.148
742.61	41.379
742.92	34.389
743.23	38.034
743.55	40.000
743.86	39.912
744.18	47.345
744.49	43.541
744.80	43.192
745.12	43.636
745.43	39.648
745.74	40.541
746.06	43.119
746.37	43.049
746.68	39.819
747.00	41.204
747.31	41.905
747.62	36.726
747.94	40.969
748.25	39.149
748.56	39.207
748.88	37.129
749.19	45.000
749.50	37.674
749.82	39.024
750.13	35.918
750.44	35.401
750.75	37.544
751.07	40.193
751.38	40.070
751.69	39.711
752.01	39.850
752.32	36.823
752.63	38.298
752.94	38.115
753.26	40.800
753.57	30.081
753.88	35.937
754.19	36.786
754.51	36.458
754.82	35.018
755.13	35.472
755.44	34.211
755.75	38.321
756.07	35.816
756.38	32.847
756.69	36.242
757.00	33.533
757.31	34.421
757.63	32.749
757.94	30.831
758.25	33.578
758.56	32.593
758.87	31.720
759.18	33.939
759.50	33.229
759.81	36.137
760.12	34.062
760.43	32.665
760.74	30.978
761.05	35.876
761.36	32.620
761.67	36.932
761.99	32.609
762.30	35.069
762.61	38.931
762.92	39.062
763.23	37.395
763.54	40.800
763.85	37.109
764.16	36.538
764.47	38.023
764.78	34.982
765.10	34.810
765.41	35.693
765.72	33.533
766.03	34.796
766.34	32.333
766.65	40.426
766.96	42.735
767.27	46.701
767.58	38.021
767.89	47.368
768.20	41.954
768.51	43.147
768.82	48.624
769.13	37.398
769.44	38.866
769.75	39.914
770.06	37.156
770.37	47.059
770.68	43.056
770.99	40.444
771.30	36.475
771.61	43.049
771.92	40.164
772.23	52.521
772.54	42.564
772.85	41.361
773.16	48.404
773.47	45.109
773.78	41.117
774.09	44.048
774.39	49.123
774.70	48.765
775.01	53.623
775.32	57.516
775.63	53.947
775.94	50.360
776.25	55.906
776.56	50.746
776.87	65.574
777.18	58.594
777.48	61.069
777.79	55.303
778.10	57.778
778.41	58.036
778.72	45.255
779.03	51.007
779.34	53.020
779.65	45.946
779.95	52.147
780.26	52.288
780.57	50.345
780.88	60.937
781.19	52.632
781.50	50.676
781.80	56.604
782.11	46.328
782.42	53.165
782.73	50.307
783.04	55.405
783.34	53.521
783.65	58.219
783.96	61.940
784.27	58.042
784.57	58.273
784.88	57.407
785.19	62.698
785.50	62.264
785.81	67.164
786.11	68.852
786.42	50.388
786.73	61.947
787.04	70.755
787.34	60.714
787.65	75.000
787.96	69.369
788.26	57.851
788.57	72.034
788.88	70.248
789.19	55.556
789.49	59.848
789.80	52.672
790.11	69.524
790.41	70.297
790.72	69.880
791.03	78.261
791.33	79.070
791.64	78.351
791.95	68.317
792.25	83.333
792.56	94.805
792.87	108.974
793.17	94.937
793.48	81.609
793.79	67.816
794.09	82.955
794.40	63.866
794.70	64.706
795.01	55.556
795.32	60.432
795.62	60.630
795.93	62.931
796.23	63.717
796.54	74.118
796.85	77.027
797.15	87.324
797.46	90.909
797.76	77.108
798.07	86.076
798.37	90.769
798.68	74.242
798.99	98.592
799.29	81.818
799.60	78.409
799.90	98.630
800.21	79.104
800.51	112.069
800.82	126.316
801.12	98.361
801.43	98.485
801.73	86.486
802.04	101.587
802.34	93.827
802.65	109.375
802.95	108.475
803.26	103.125
803.56	87.143
803.87	92.308
804.17	77.941
804.48	120.370
804.78	94.828
805.09	104.412
805.39	125.000
805.70	101.786
806.00	104.918
806.30	78.788
806.61	97.561
806.91	91.139
807.22	92.105
807.52	83.582
807.83	85.915
808.13	85.938
808.43	108.333
808.74	88.158
809.04	98.551
809.35	97.015
809.65	85.526
809.95	122.581
810.26	113.559
810.56	96.825
810.86	136.364
811.17	159.524
811.47	106.667
811.77	114.815
812.08	116.364
812.38	120.000
812.69	166.667
812.99	145.455
813.29	122.449
813.59	111.905
813.90	132.653
814.20	114.545
814.50	96.923
814.81	110.294
815.11	124.490
815.41	103.279
815.72	159.524
816.02	138.182
816.32	135.714
816.62	117.500
816.93	153.659
817.23	121.429
817.53	152.273
817.84	193.939
818.14	130.435
818.44	144.444
818.74	170.588
819.04	152.500
819.35	151.429
819.65	167.647
819.95	207.143
820.25	260.000
820.56	158.974
820.86	127.273
821.16	139.535
821.46	128.205
821.76	134.000
822.07	182.857
822.37	167.500
822.67	151.515
822.97	131.373
823.27	221.429
823.57	162.162
823.88	165.000
824.18	223.333
824.48	183.333
824.78	208.000
825.08	216.667
825.38	178.378
825.69	136.585
825.99	233.333
826.29	172.414
826.59	168.421
826.89	173.684
827.19	167.647
827.49	200.000
827.79	138.636
828.09	125.000
828.39	146.809
828.70	148.980
829.00	188.889
829.30	206.452
829.60	137.500
829.90	280.000
830.20	192.857
830.50	204.348
830.80	208.696
831.10	183.333
831.40	186.667
831.70	217.391
832.00	215.385
832.30	214.815
832.60	318.750
832.90	236.667
833.20	392.857
833.50	216.129
833.80	175.862
834.10	165.625
834.40	223.077
834.70	277.778
835.00	304.762
835.30	182.857
835.60	315.385
835.90	210.345
836.20	335.714
836.50	206.897
836.80	184.000
837.10	175.000
837.40	300.000
837.70	288.235
838.00	200.000
838.30	266.667
838.60	314.286
838.90	253.846
839.19	275.000
839.49	464.286
839.79	315.000
840.09	320.000
840.39	280.952
840.69	243.478
840.99	250.000
841.29	530.000
841.59	341.667
841.88	368.750
842.18	210.345
842.48	319.048
842.78	190.000
843.08	286.957
843.38	165.625
843.68	983.333
843.97	265.385
844.27	206.897
844.57	280.952
844.87	343.750
845.17	192.593
845.47	1533.333
845.76	500.000
846.06	294.118
846.36	550.000
846.66	392.857
846.96	300.000
847.25	436.364
847.55	427.273
847.85	256.522
848.15	450.000
848.44	357.143
848.74	311.111
849.04	270.588
849.34	500.000
849.63	310.526
849.93	400.000
850.23	920.000
850.53	421.429
850.82	2300.000
851.12	-4600.000
851.42	4900.000
851.71	300.000
852.01	-1733.333
852.31	245.833
852.61	2066.667
852.90	233.333
853.20	208.000
853.50	317.647
853.79	247.619
854.09	216.667
854.39	337.500
854.68	135.135
854.98	203.226
855.28	160.000
855.57	210.345
855.87	229.630
856.17	252.632
856.46	246.667
856.76	276.471
857.05	203.448
857.35	254.167
857.65	326.667
857.94	252.174
858.24	219.231
858.53	295.000
858.83	200.000
859.13	393.333
859.42	0.000
859.72	644.444
860.01	500.000
860.31	277.273
860.60	289.474
860.90	239.130
861.20	588.889
861.49	566.667
861.79	-6200.000
862.08	800.000
862.38	266.667
862.67	369.231
862.97	282.353
863.26	577.778
863.56	288.889
863.85	491.667
864.15	712.500
864.44	366.667
864.74	1050.000
865.03	575.000
865.33	310.526
865.62	518.182
865.92	461.538
866.21	458.333
866.51	0.000
866.80	445.455
867.10	1000.000
867.39	476.923
867.69	518.182
867.98	300.000
868.27	554.545
868.57	263.158
868.86	-4900.000
869.16	337.500
869.45	2700.000
869.75	-3900.000
870.04	433.333
870.33	742.857
870.63	1075.000
870.92	2550.000
871.22	842.857
871.51	352.941
871.80	285.714
872.10	385.714
>>>>>End Processed Spectral Data<<<<<
