SpectraSuite Data File
++++++++++++++++++++++++++++++++++++
Date: Wed May 13 19:43:39 PDT 2015
User: schluterlab
Dark Spectrum Present: Yes
Reference Spectrum Present: Yes
Number of Sampled Component Spectra: 1
Spectrometers: USB2E3373
Integration Time (usec): 3000 (USB2E3373)
Spectra Averaged: 3 (USB2E3373)
Boxcar Smoothing: 0 (USB2E3373)
Correct for Electrical Dark: No (USB2E3373)
Strobe/Lamp Enabled: No (USB2E3373)
Correct for Detector Non-linearity: No (USB2E3373)
Correct for Stray Light: No (USB2E3373)
Number of Pixels in Processed Spectrum: 2048
>>>>>Begin Processed Spectral Data<<<<<
178.53	0.000
178.91	-1325.000
179.29	-1250.000
179.67	-244.444
180.04	-1175.000
180.42	2500.000
180.80	1020.000
181.18	-950.000
181.56	628.571
181.94	0.000
182.31	-642.857
182.69	1800.000
183.07	-587.500
183.45	-422.222
183.83	536.364
184.20	-440.000
184.58	2300.000
184.96	6400.000
185.34	-860.000
185.72	-600.000
186.09	-2400.000
186.47	2800.000
186.85	2700.000
187.23	5000.000
187.61	-1666.667
187.98	1250.000
188.36	572.727
188.74	454.545
189.12	-1000.000
189.49	520.000
189.87	-5300.000
190.25	-1200.000
190.63	414.286
191.00	438.462
191.38	916.667
191.76	-1150.000
192.14	1200.000
192.51	650.000
192.89	950.000
193.27	500.000
193.65	-1000.000
194.02	490.000
194.40	1040.000
194.78	520.000
195.15	533.333
195.53	610.000
195.91	-2000.000
196.29	306.250
196.66	315.789
197.04	-280.000
197.42	0.000
197.79	570.000
198.17	-4800.000
198.55	757.143
198.92	550.000
199.30	920.000
199.68	0.000
200.05	316.667
200.43	785.714
200.81	3900.000
201.18	1866.667
201.56	-1600.000
201.94	555.556
202.31	633.333
202.69	441.667
203.07	560.000
203.44	0.000
203.82	1225.000
204.19	657.143
204.57	428.571
204.95	600.000
205.32	1533.333
205.70	481.818
206.08	371.429
206.45	2150.000
206.83	368.750
207.20	850.000
207.58	640.000
207.96	294.444
208.33	787.500
208.71	-916.667
209.08	671.429
209.46	500.000
209.84	527.273
210.21	-1633.333
210.59	1375.000
210.96	-462.500
211.34	2350.000
211.71	600.000
212.09	766.667
212.46	0.000
212.84	1600.000
213.22	1550.000
213.59	-4800.000
213.97	900.000
214.34	757.143
214.72	609.091
215.09	1080.000
215.47	-2150.000
215.84	-2250.000
216.22	1733.333
216.59	357.143
216.97	1450.000
217.34	436.364
217.72	-766.667
218.09	0.000
218.47	-5300.000
218.84	577.778
219.22	785.714
219.59	1833.333
219.97	-671.429
220.34	1060.000
220.72	-1766.667
221.09	378.571
221.47	1325.000
221.84	-933.333
222.22	0.000
222.59	1200.000
222.97	-2950.000
223.34	1300.000
223.72	461.538
224.09	1040.000
224.46	2250.000
224.84	-5200.000
225.21	-1160.000
225.59	-4700.000
225.96	640.000
226.34	310.000
226.71	2800.000
227.08	700.000
227.46	660.000
227.83	-1150.000
228.21	-2100.000
228.58	644.444
228.95	-2100.000
229.33	-2200.000
229.70	1866.667
230.08	771.429
230.45	-780.000
230.82	408.333
231.20	800.000
231.57	528.571
231.95	458.333
232.32	227.273
232.69	381.818
233.07	642.857
233.44	338.462
233.81	-1533.333
234.19	310.526
234.56	475.000
234.93	433.333
235.31	390.909
235.68	338.462
236.05	278.571
236.43	157.576
236.80	300.000
237.17	4300.000
237.55	195.238
237.92	203.571
238.29	219.048
238.67	161.290
239.04	203.448
239.41	155.556
239.79	100.000
240.16	133.333
240.53	127.273
240.91	92.157
241.28	90.000
241.65	90.000
242.02	75.362
242.40	74.194
242.77	83.333
243.14	63.441
243.51	62.921
243.89	61.176
244.26	54.444
244.63	47.312
245.00	53.191
245.38	53.465
245.75	44.860
246.12	44.954
246.49	42.336
246.87	44.800
247.24	44.615
247.61	40.714
247.98	40.523
248.36	35.811
248.73	33.758
249.10	33.758
249.47	32.768
249.84	32.620
250.22	25.668
250.59	30.178
250.96	27.273
251.33	32.227
251.70	28.713
252.08	30.476
252.45	22.870
252.82	22.609
253.19	23.404
253.56	26.275
253.94	29.046
254.31	27.734
254.68	23.077
255.05	26.199
255.42	20.732
255.79	21.691
256.16	22.744
256.54	18.728
256.91	25.267
257.28	15.108
257.65	21.782
258.02	22.050
258.39	17.350
258.76	19.398
259.14	21.726
259.51	16.413
259.88	15.839
260.25	19.033
260.62	17.630
260.99	15.528
261.36	18.619
261.73	16.905
262.10	17.733
262.47	18.310
262.85	15.877
263.22	15.954
263.59	15.670
263.96	18.407
264.33	18.799
264.70	17.105
265.07	19.437
265.44	13.131
265.81	14.112
266.18	15.327
266.55	14.878
266.92	15.971
267.29	16.435
267.66	15.596
268.03	14.773
268.40	13.551
268.77	14.081
269.14	13.514
269.51	16.930
269.88	14.918
270.25	13.093
270.62	13.483
270.99	18.065
271.36	16.524
271.73	12.617
272.10	14.348
272.47	12.688
272.84	12.987
273.21	14.256
273.58	13.537
273.95	13.208
274.32	13.636
274.69	11.991
275.06	11.614
275.43	14.255
275.80	13.828
276.17	14.868
276.54	14.553
276.91	13.043
277.28	13.477
277.65	14.313
278.02	12.629
278.39	15.039
278.76	14.000
279.13	15.660
279.50	10.987
279.87	13.745
280.23	12.974
280.60	11.025
280.97	10.166
281.34	13.451
281.71	14.364
282.08	13.052
282.45	11.091
282.82	11.723
283.19	9.269
283.56	13.684
283.92	12.521
284.29	11.640
284.66	12.704
285.03	11.212
285.40	11.620
285.77	9.596
286.14	12.953
286.51	11.000
286.87	12.650
287.24	12.215
287.61	11.075
287.98	10.552
288.35	11.727
288.72	11.526
289.08	12.676
289.45	12.356
289.82	11.057
290.19	8.948
290.56	10.873
290.93	10.121
291.29	9.202
291.66	11.504
292.03	11.337
292.40	11.013
292.77	10.207
293.13	9.254
293.50	9.329
293.87	9.037
294.24	8.296
294.60	10.044
294.97	9.157
295.34	10.155
295.71	10.511
296.08	8.974
296.44	9.766
296.81	9.775
297.18	9.756
297.55	7.652
297.91	8.707
298.28	8.032
298.65	9.399
299.02	9.486
299.38	8.367
299.75	6.334
300.12	7.407
300.48	8.250
300.85	9.494
301.22	9.427
301.59	8.460
301.95	8.564
302.32	8.087
302.69	9.319
303.05	8.485
303.42	8.272
303.79	8.381
304.15	8.625
304.52	7.995
304.89	7.782
305.25	8.469
305.62	9.060
305.99	9.445
306.35	7.830
306.72	8.744
307.09	8.213
307.45	9.685
307.82	7.478
308.19	8.720
308.55	8.738
308.92	7.411
309.29	8.765
309.65	6.999
310.02	9.302
310.38	8.172
310.75	7.814
311.12	8.086
311.48	8.673
311.85	9.539
312.22	8.741
312.58	8.836
312.95	10.137
313.31	9.612
313.68	9.979
314.05	11.834
314.41	10.251
314.78	8.862
315.14	9.633
315.51	9.681
315.87	10.000
316.24	8.937
316.61	11.014
316.97	10.372
317.34	10.372
317.70	12.046
318.07	12.512
318.43	11.057
318.80	12.090
319.16	12.618
319.53	12.570
319.89	13.905
320.26	14.200
320.62	13.889
320.99	14.545
321.35	14.040
321.72	15.914
322.08	15.795
322.45	16.915
322.81	16.667
323.18	17.052
323.54	17.161
323.91	17.736
324.27	18.451
324.64	17.987
325.00	17.583
325.37	19.563
325.73	19.479
326.10	19.682
326.46	19.176
326.83	20.017
327.19	20.581
327.56	21.080
327.92	20.560
328.29	22.094
328.65	23.481
329.01	22.202
329.38	21.832
329.74	21.607
330.11	22.903
330.47	22.314
330.84	24.357
331.20	23.315
331.56	24.404
331.93	23.889
332.29	23.336
332.66	25.398
333.02	24.406
333.38	24.752
333.75	25.134
334.11	25.000
334.48	23.780
334.84	25.735
335.20	24.364
335.57	24.116
335.93	24.196
336.29	26.282
336.66	25.248
337.02	25.520
337.38	25.741
337.75	25.847
338.11	26.321
338.47	25.230
338.84	25.756
339.20	25.963
339.56	27.555
339.93	25.818
340.29	26.268
340.65	26.471
341.02	27.051
341.38	26.423
341.74	25.965
342.11	26.900
342.47	26.784
342.83	27.312
343.20	26.667
343.56	26.453
343.92	27.281
344.28	27.551
344.65	28.031
345.01	27.189
345.37	26.244
345.73	27.919
346.10	27.366
346.46	28.475
346.82	28.254
347.19	27.987
347.55	27.668
347.91	28.479
348.27	28.020
348.63	30.017
349.00	28.398
349.36	29.228
349.72	28.148
350.08	27.958
350.45	29.292
350.81	28.595
351.17	29.335
351.53	28.747
351.89	28.218
352.26	29.440
352.62	28.949
352.98	29.011
353.34	29.581
353.70	29.133
354.07	30.403
354.43	29.921
354.79	29.525
355.15	30.168
355.51	31.015
355.87	30.531
356.24	31.026
356.60	29.671
356.96	29.928
357.32	32.134
357.68	32.126
358.04	32.067
358.40	31.512
358.77	31.221
359.13	30.229
359.49	31.686
359.85	30.317
360.21	30.223
360.57	32.451
360.93	31.538
361.29	32.048
361.66	31.579
362.02	33.209
362.38	33.080
362.74	32.664
363.10	32.272
363.46	32.649
363.82	32.955
364.18	33.480
364.54	34.324
364.90	33.853
365.26	33.235
365.62	33.820
365.98	33.820
366.35	33.739
366.71	34.418
367.07	34.450
367.43	35.123
367.79	35.046
368.15	34.626
368.51	34.157
368.87	34.832
369.23	35.260
369.59	34.251
369.95	34.926
370.31	35.185
370.67	35.652
371.03	36.330
371.39	35.569
371.75	36.985
372.11	35.846
372.47	37.463
372.83	37.680
373.19	36.055
373.55	37.324
373.91	38.660
374.27	37.182
374.63	36.945
374.99	37.782
375.35	36.776
375.71	37.012
376.07	38.752
376.42	37.414
376.78	38.171
377.14	37.246
377.50	39.073
377.86	37.899
378.22	37.990
378.58	37.907
378.94	38.529
379.30	39.631
379.66	40.165
380.02	39.681
380.38	38.859
380.74	39.196
381.09	39.120
381.45	39.705
381.81	39.742
382.17	40.318
382.53	39.686
382.89	41.605
383.25	40.650
383.61	41.822
383.97	40.650
384.32	40.424
384.68	39.715
385.04	40.443
385.40	40.867
385.76	40.848
386.12	40.803
386.48	41.473
386.83	41.373
387.19	43.105
387.55	41.806
387.91	41.415
388.27	41.692
388.62	41.795
388.98	40.602
389.34	43.242
389.70	41.937
390.06	43.029
390.42	42.023
390.77	42.748
391.13	43.395
391.49	43.084
391.85	43.412
392.20	43.407
392.56	44.066
392.92	42.790
393.28	41.893
393.64	43.106
393.99	42.517
394.35	42.494
394.71	42.472
395.07	43.364
395.42	42.769
395.78	42.812
396.14	42.520
396.50	44.737
396.85	43.547
397.21	43.527
397.57	42.963
397.92	44.591
398.28	41.816
398.64	43.130
399.00	43.313
399.35	43.147
399.71	43.634
400.07	43.584
400.42	44.663
400.78	44.029
401.14	43.049
401.49	44.179
401.85	43.073
402.21	43.832
402.57	44.109
402.92	44.388
403.28	44.847
403.63	43.688
403.99	44.713
404.35	43.091
404.70	43.885
405.06	43.331
405.42	44.167
405.77	42.743
406.13	43.510
406.49	44.057
406.84	44.182
407.20	42.376
407.55	44.671
407.91	45.267
408.27	44.735
408.62	43.648
408.98	43.321
409.34	44.342
409.69	43.935
410.05	43.804
410.40	43.364
410.76	43.668
411.11	42.702
411.47	43.003
411.83	43.616
412.18	42.548
412.54	44.022
412.89	43.735
413.25	44.215
413.60	44.348
413.96	42.987
414.31	43.196
414.67	44.106
415.03	43.444
415.38	43.299
415.74	42.765
416.09	44.350
416.45	43.106
416.80	43.159
417.16	43.700
417.51	44.194
417.87	43.031
418.22	44.164
418.58	42.866
418.93	43.612
419.29	43.285
419.64	43.514
420.00	43.110
420.35	42.841
420.71	43.754
421.06	42.542
421.42	43.509
421.77	43.161
422.12	42.167
422.48	41.554
422.83	42.341
423.19	42.431
423.54	42.078
423.90	41.971
424.25	41.374
424.61	42.500
424.96	43.149
425.31	42.082
425.67	41.798
426.02	43.029
426.38	42.674
426.73	42.774
427.09	42.006
427.44	41.576
427.79	41.518
428.15	41.131
428.50	41.779
428.85	42.074
429.21	41.248
429.56	41.058
429.92	40.765
430.27	40.318
430.62	40.399
430.98	40.944
431.33	41.701
431.68	41.623
432.04	39.989
432.39	41.234
432.74	41.352
433.10	41.766
433.45	41.691
433.80	40.798
434.16	41.293
434.51	40.842
434.86	41.334
435.22	39.689
435.57	40.729
435.92	40.550
436.28	41.578
436.63	41.170
436.98	41.271
437.34	40.429
437.69	41.132
438.04	40.641
438.39	40.597
438.75	40.848
439.10	40.279
439.45	38.902
439.81	39.456
440.16	40.090
440.51	40.422
440.86	40.822
441.22	40.044
441.57	40.127
441.92	40.276
442.27	40.097
442.63	39.336
442.98	40.845
443.33	40.652
443.68	39.855
444.03	39.483
444.39	38.705
444.74	39.719
445.09	40.539
445.44	38.382
445.79	38.545
446.15	38.909
446.50	39.149
446.85	38.746
447.20	39.572
447.55	39.587
447.91	39.493
448.26	38.787
448.61	38.949
448.96	40.255
449.31	40.382
449.66	39.280
450.02	39.109
450.37	38.832
450.72	37.958
451.07	38.574
451.42	37.812
451.77	38.755
452.12	38.048
452.47	37.935
452.83	37.821
453.18	37.714
453.53	38.899
453.88	36.917
454.23	36.999
454.58	37.977
454.93	39.479
455.28	38.217
455.63	39.138
455.98	38.452
456.34	36.935
456.69	37.821
457.04	38.080
457.39	37.171
457.74	37.667
458.09	36.975
458.44	37.457
458.79	35.683
459.14	36.569
459.49	36.311
459.84	36.399
460.19	35.828
460.54	35.012
460.89	37.246
461.24	37.280
461.59	36.839
461.94	36.375
462.29	36.261
462.64	34.461
462.99	35.784
463.34	36.533
463.69	36.710
464.04	35.130
464.39	35.826
464.74	34.759
465.09	35.947
465.44	34.792
465.79	34.676
466.14	34.702
466.49	34.538
466.84	35.435
467.19	34.400
467.54	34.375
467.89	34.934
468.24	34.729
468.59	35.287
468.94	34.759
469.29	33.933
469.64	35.074
469.99	35.250
470.34	33.752
470.68	34.195
471.03	34.354
471.38	34.607
471.73	34.510
472.08	34.276
472.43	33.417
472.78	34.365
473.13	34.531
473.48	34.020
473.83	34.024
474.17	32.732
474.52	33.437
474.87	33.392
475.22	33.024
475.57	32.456
475.92	32.183
476.27	32.018
476.61	32.708
476.96	32.820
477.31	31.188
477.66	32.604
478.01	31.573
478.36	32.152
478.70	31.983
479.05	31.683
479.40	32.600
479.75	31.622
480.10	31.014
480.45	30.795
480.79	31.151
481.14	31.703
481.49	31.039
481.84	30.041
482.19	31.577
482.53	30.092
482.88	30.805
483.23	30.607
483.58	30.073
483.92	30.178
484.27	28.540
484.62	30.000
484.97	28.814
485.31	29.932
485.66	28.638
486.01	27.892
486.36	27.038
486.70	26.775
487.05	27.402
487.40	28.013
487.75	27.985
488.09	28.541
488.44	28.419
488.79	29.005
489.13	28.495
489.48	28.426
489.83	27.881
490.17	28.672
490.52	28.078
490.87	28.042
491.22	28.604
491.56	27.745
491.91	27.780
492.26	27.147
492.60	27.558
492.95	26.614
493.30	27.430
493.64	27.858
493.99	27.298
494.34	27.382
494.68	27.518
495.03	27.820
495.37	26.570
495.72	26.852
496.07	27.657
496.41	26.814
496.76	27.177
497.11	27.150
497.45	26.921
497.80	26.631
498.14	26.425
498.49	27.073
498.84	26.558
499.18	26.714
499.53	26.353
499.87	26.654
500.22	25.389
500.56	26.456
500.91	26.779
501.26	26.411
501.60	26.246
501.95	25.573
502.29	26.054
502.64	25.512
502.98	25.339
503.33	25.411
503.67	25.893
504.02	26.099
504.36	25.690
504.71	25.452
505.06	25.157
505.40	25.425
505.75	24.542
506.09	25.413
506.44	25.160
506.78	25.134
507.13	25.139
507.47	25.051
507.82	24.772
508.16	24.924
508.51	25.114
508.85	24.926
509.19	25.204
509.54	24.286
509.88	24.833
510.23	24.576
510.57	25.593
510.92	24.288
511.26	25.128
511.61	24.533
511.95	24.478
512.30	23.542
512.64	24.234
512.98	24.116
513.33	25.107
513.67	23.533
514.02	23.918
514.36	24.795
514.70	23.962
515.05	23.424
515.39	24.173
515.74	23.255
516.08	24.818
516.42	23.973
516.77	23.913
517.11	23.696
517.46	23.646
517.80	24.274
518.14	23.625
518.49	24.329
518.83	23.068
519.17	23.903
519.52	23.939
519.86	24.073
520.20	23.757
520.55	23.878
520.89	23.358
521.23	23.884
521.58	23.109
521.92	24.250
522.26	23.124
522.61	23.551
522.95	22.406
523.29	22.459
523.64	23.415
523.98	23.906
524.32	22.678
524.66	23.091
525.01	23.039
525.35	22.739
525.69	23.399
526.04	22.804
526.38	22.636
526.72	22.393
527.06	23.478
527.41	22.587
527.75	24.180
528.09	22.608
528.43	23.901
528.78	22.372
529.12	22.667
529.46	22.596
529.80	22.896
530.15	22.991
530.49	21.723
530.83	22.722
531.17	23.433
531.51	22.763
531.86	22.645
532.20	23.077
532.54	22.742
532.88	22.208
533.22	21.424
533.57	22.778
533.91	22.095
534.25	22.114
534.59	21.904
534.93	20.702
535.27	22.088
535.62	21.734
535.96	21.908
536.30	21.933
536.64	22.601
536.98	22.163
537.32	21.856
537.66	22.200
538.01	21.593
538.35	21.655
538.69	22.910
539.03	20.533
539.37	20.767
539.71	20.220
540.05	21.830
540.39	21.462
540.73	21.863
541.07	22.323
541.42	21.787
541.76	21.484
542.10	21.669
542.44	20.397
542.78	21.278
543.12	20.473
543.46	21.311
543.80	21.275
544.14	20.475
544.48	21.460
544.82	21.616
545.16	21.796
545.50	20.566
545.84	21.169
546.18	21.751
546.52	21.198
546.86	20.344
547.20	20.432
547.54	21.977
547.88	20.344
548.22	20.859
548.56	20.566
548.90	20.423
549.24	20.606
549.58	20.737
549.92	20.810
550.26	21.378
550.60	20.124
550.94	20.070
551.28	20.190
551.62	19.410
551.96	20.421
552.30	21.160
552.64	20.487
552.98	19.864
553.32	21.173
553.66	20.859
554.00	20.590
554.34	19.807
554.68	20.959
555.02	19.958
555.36	20.390
555.69	19.283
556.03	19.112
556.37	19.509
556.71	19.714
557.05	19.468
557.39	19.804
557.73	19.548
558.07	19.217
558.41	18.813
558.75	19.030
559.08	20.433
559.42	19.803
559.76	19.779
560.10	18.772
560.44	19.078
560.78	18.762
561.12	18.470
561.45	19.166
561.79	19.974
562.13	18.846
562.47	18.374
562.81	19.038
563.15	18.729
563.48	18.833
563.82	18.526
564.16	18.313
564.50	17.448
564.84	18.331
565.17	18.082
565.51	18.275
565.85	19.099
566.19	17.971
566.52	18.429
566.86	17.661
567.20	18.868
567.54	17.865
567.88	16.839
568.21	18.254
568.55	17.897
568.89	17.121
569.23	17.023
569.56	16.761
569.90	16.792
570.24	16.649
570.57	16.083
570.91	15.546
571.25	16.028
571.59	15.994
571.92	15.841
572.26	15.973
572.60	15.766
572.93	16.042
573.27	15.972
573.61	16.443
573.95	16.047
574.28	15.276
574.62	15.695
574.96	15.436
575.29	15.495
575.63	15.752
575.97	15.282
576.30	15.613
576.64	15.390
576.98	14.754
577.31	15.157
577.65	15.375
577.98	14.958
578.32	15.111
578.66	15.031
578.99	14.882
579.33	15.202
579.67	14.887
580.00	15.128
580.34	15.069
580.67	14.654
581.01	15.179
581.35	14.931
581.68	14.636
582.02	14.221
582.35	14.376
582.69	14.762
583.02	14.752
583.36	14.895
583.70	15.235
584.03	14.943
584.37	14.809
584.70	15.178
585.04	14.897
585.37	14.585
585.71	14.873
586.04	14.738
586.38	14.498
586.72	15.162
587.05	14.453
587.39	14.459
587.72	15.073
588.06	14.594
588.39	14.595
588.73	14.726
589.06	14.864
589.40	15.421
589.73	15.065
590.07	15.338
590.40	14.432
590.73	15.222
591.07	15.507
591.40	15.394
591.74	15.758
592.07	15.183
592.41	15.296
592.74	15.019
593.08	14.923
593.41	14.616
593.75	14.241
594.08	14.516
594.41	15.447
594.75	14.713
595.08	14.531
595.42	14.851
595.75	14.601
596.09	15.208
596.42	15.835
596.75	14.901
597.09	15.281
597.42	14.587
597.75	15.179
598.09	15.217
598.42	14.863
598.76	14.471
599.09	13.987
599.42	14.556
599.76	14.568
600.09	14.098
600.42	13.952
600.76	13.786
601.09	14.499
601.42	14.612
601.76	14.459
602.09	14.071
602.42	14.729
602.76	14.591
603.09	14.437
603.42	14.643
603.76	14.215
604.09	14.308
604.42	14.309
604.76	14.762
605.09	14.679
605.42	14.451
605.75	14.487
606.09	14.233
606.42	14.181
606.75	14.351
607.09	14.943
607.42	14.035
607.75	13.924
608.08	14.025
608.42	14.881
608.75	14.743
609.08	14.616
609.41	14.612
609.75	14.483
610.08	14.892
610.41	14.060
610.74	13.765
611.07	14.872
611.41	14.181
611.74	14.781
612.07	14.648
612.40	14.638
612.73	14.842
613.07	15.409
613.40	14.797
613.73	13.214
614.06	14.570
614.39	14.578
614.72	14.737
615.06	14.916
615.39	14.756
615.72	15.031
616.05	14.620
616.38	13.952
616.71	15.202
617.05	15.018
617.38	15.033
617.71	13.994
618.04	14.363
618.37	14.429
618.70	14.997
619.03	15.789
619.36	15.275
619.69	15.423
620.03	16.621
620.36	15.040
620.69	15.411
621.02	16.003
621.35	14.957
621.68	15.966
622.01	15.867
622.34	15.658
622.67	15.894
623.00	14.453
623.33	15.654
623.66	15.154
623.99	15.317
624.32	14.836
624.65	14.972
624.99	14.306
625.32	15.206
625.65	15.402
625.98	15.373
626.31	15.863
626.64	15.265
626.97	15.046
627.30	15.129
627.63	15.997
627.96	15.728
628.29	15.486
628.62	16.743
628.95	17.170
629.28	16.241
629.61	16.865
629.94	16.286
630.26	14.967
630.59	16.206
630.92	15.038
631.25	15.893
631.58	16.016
631.91	17.140
632.24	14.557
632.57	16.999
632.90	17.215
633.23	14.989
633.56	16.836
633.89	17.327
634.22	17.707
634.55	17.751
634.88	15.449
635.20	17.563
635.53	18.072
635.86	15.223
636.19	17.882
636.52	17.647
636.85	17.068
637.18	17.051
637.51	18.203
637.83	15.413
638.16	17.008
638.49	17.632
638.82	17.193
639.15	18.625
639.48	18.579
639.81	17.426
640.13	19.010
640.46	18.926
640.79	18.362
641.12	16.506
641.45	17.458
641.77	18.999
642.10	19.152
642.43	18.619
642.76	19.814
643.09	17.791
643.41	18.361
643.74	19.753
644.07	17.835
644.40	19.785
644.73	19.843
645.05	19.810
645.38	19.905
645.71	18.196
646.04	19.103
646.36	20.534
646.69	22.910
647.02	20.748
647.35	20.275
647.67	17.345
648.00	19.187
648.33	18.317
648.66	18.030
648.98	18.141
649.31	17.937
649.64	18.087
649.96	18.182
650.29	16.746
650.62	18.285
650.94	20.259
651.27	19.932
651.60	19.967
651.92	18.530
652.25	17.264
652.58	19.782
652.90	16.746
653.23	18.336
653.56	18.583
653.88	19.968
654.21	18.641
654.54	18.647
654.86	19.315
655.19	17.162
655.52	11.417
655.84	9.117
656.17	11.573
656.49	15.749
656.82	16.041
657.15	12.398
657.47	9.199
657.80	6.922
658.13	7.566
658.45	10.961
658.78	11.531
659.10	11.284
659.43	12.866
659.75	13.622
660.08	13.797
660.41	17.505
660.73	17.789
661.06	19.427
661.38	21.273
661.71	20.385
662.03	21.696
662.36	17.893
662.68	20.683
663.01	21.010
663.33	17.622
663.66	21.849
663.98	18.143
664.31	20.378
664.63	19.838
664.96	17.706
665.28	21.721
665.61	20.663
665.93	19.115
666.26	19.067
666.58	21.339
666.91	19.662
667.23	22.697
667.56	18.575
667.88	22.009
668.21	21.962
668.53	19.523
668.86	19.697
669.18	21.748
669.50	22.391
669.83	24.183
670.15	22.222
670.48	21.133
670.80	21.767
671.13	19.958
671.45	18.723
671.77	21.589
672.10	20.333
672.42	19.258
672.75	19.403
673.07	17.606
673.39	18.807
673.72	19.141
674.04	20.000
674.37	19.806
674.69	19.632
675.01	19.456
675.34	22.587
675.66	22.526
675.98	21.589
676.31	20.588
676.63	19.958
676.95	21.593
677.28	21.963
677.60	18.681
677.92	22.785
678.25	18.480
678.57	19.323
678.89	21.042
679.22	20.432
679.54	18.893
679.86	18.165
680.18	18.068
680.51	19.326
680.83	19.751
681.15	20.377
681.48	20.227
681.80	20.116
682.12	18.582
682.44	16.441
682.77	21.181
683.09	22.747
683.41	19.956
683.73	21.413
684.06	22.934
684.38	20.352
684.70	21.512
685.02	21.201
685.34	21.245
685.67	16.259
685.99	16.838
686.31	17.918
686.63	17.138
686.96	18.750
687.28	18.773
687.60	16.848
687.92	19.561
688.24	19.202
688.56	21.285
688.89	21.369
689.21	22.926
689.53	20.877
689.85	20.843
690.17	19.876
690.49	20.594
690.82	19.860
691.14	20.089
691.46	20.253
691.78	20.482
692.10	19.421
692.42	20.758
692.74	18.257
693.06	19.362
693.39	21.150
693.71	17.249
694.03	21.053
694.35	21.212
694.67	18.307
694.99	20.976
695.31	18.873
695.63	22.488
695.95	22.005
696.27	18.274
696.59	20.466
696.91	22.798
697.23	18.310
697.56	21.322
697.88	17.587
698.20	20.000
698.52	20.860
698.84	22.272
699.16	17.512
699.48	20.428
699.80	21.981
700.12	25.714
700.44	20.955
700.76	21.823
701.08	20.690
701.40	20.391
701.72	23.615
702.04	28.693
702.36	19.547
702.68	24.929
703.00	24.100
703.32	18.351
703.64	22.520
703.96	27.298
704.28	21.802
704.60	24.633
704.91	28.190
705.23	24.633
705.55	23.256
705.87	30.233
706.19	24.028
706.51	21.807
706.83	23.030
707.15	25.770
707.47	20.707
707.79	22.604
708.11	21.233
708.43	20.714
708.74	19.643
709.06	24.156
709.38	23.097
709.70	21.512
710.02	24.629
710.34	21.515
710.66	25.373
710.98	25.568
711.29	24.128
711.61	25.664
711.93	21.795
712.25	26.688
712.57	27.574
712.89	26.644
713.20	22.188
713.52	25.000
713.84	24.051
714.16	24.390
714.48	23.276
714.80	27.964
715.11	25.360
715.43	23.145
715.75	22.609
716.07	26.837
716.39	25.392
716.70	26.578
717.02	26.259
717.34	25.795
717.66	28.358
717.97	27.888
718.29	26.667
718.61	26.642
718.93	29.779
719.24	28.374
719.56	25.085
719.88	26.102
720.20	30.743
720.51	28.571
720.83	24.164
721.15	24.627
721.46	24.113
721.78	30.108
722.10	31.321
722.42	27.820
722.73	30.712
723.05	25.820
723.37	26.316
723.68	29.344
724.00	30.081
724.32	31.048
724.63	25.203
724.95	29.289
725.27	31.579
725.58	23.828
725.90	29.927
726.22	23.396
726.53	27.083
726.85	24.573
727.16	29.537
727.48	25.887
727.80	26.894
728.11	26.812
728.43	26.538
728.74	25.806
729.06	27.007
729.38	28.309
729.69	28.114
730.01	25.597
730.32	25.694
730.64	24.749
730.96	23.762
731.27	26.159
731.59	22.630
731.90	27.697
732.22	23.913
732.53	22.910
732.85	23.397
733.16	26.688
733.48	22.591
733.80	23.377
734.11	26.752
734.43	23.373
734.74	21.714
735.06	23.209
735.37	24.277
735.69	23.567
736.00	24.837
736.32	23.988
736.63	26.198
736.95	23.962
737.26	22.449
737.58	22.581
737.89	24.080
738.21	23.549
738.52	27.857
738.83	26.415
739.15	25.000
739.46	28.467
739.78	26.389
740.09	24.308
740.41	25.484
740.72	22.997
741.04	29.630
741.35	30.833
741.66	39.111
741.98	27.358
742.29	35.407
742.61	32.759
742.92	29.412
743.23	32.479
743.55	32.000
743.86	27.632
744.18	31.858
744.49	30.622
744.80	34.742
745.12	33.636
745.43	29.515
745.74	35.135
746.06	32.569
746.37	32.735
746.68	29.412
747.00	33.796
747.31	31.429
747.62	29.204
747.94	30.396
748.25	32.766
748.56	37.885
748.88	29.208
749.19	39.000
749.50	24.651
749.82	28.455
750.13	25.714
750.44	28.102
750.75	23.158
751.07	27.331
751.38	23.693
751.69	28.520
752.01	21.805
752.32	29.242
752.63	23.759
752.94	26.639
753.26	30.000
753.57	23.984
753.88	32.031
754.19	26.786
754.51	29.167
754.82	24.910
755.13	28.302
755.44	27.444
755.75	25.182
756.07	24.113
756.38	25.182
756.69	26.846
757.00	24.551
757.31	22.552
757.63	21.637
757.94	22.252
758.25	21.814
758.56	20.247
758.87	23.387
759.18	23.636
759.50	20.690
759.81	24.611
760.12	20.938
760.43	23.782
760.74	23.641
761.05	18.644
761.36	20.856
761.67	23.295
761.99	22.671
762.30	28.472
762.61	25.191
762.92	28.125
763.23	26.891
763.54	32.800
763.85	23.828
764.16	30.385
764.47	25.475
764.78	25.795
765.10	22.468
765.41	25.369
765.72	27.545
766.03	23.511
766.34	23.667
766.65	28.511
766.96	27.350
767.27	32.487
767.58	35.417
767.89	34.737
768.20	37.356
768.51	31.472
768.82	29.358
769.13	23.171
769.44	29.555
769.75	31.330
770.06	22.936
770.37	33.484
770.68	32.870
770.99	30.667
771.30	25.820
771.61	32.735
771.92	31.967
772.23	36.134
772.54	41.538
772.85	32.461
773.16	34.574
773.47	41.304
773.78	37.056
774.09	38.095
774.39	39.181
774.70	37.037
775.01	42.754
775.32	45.752
775.63	40.789
775.94	43.165
776.25	47.244
776.56	44.776
776.87	48.361
777.18	42.969
777.48	47.328
777.79	46.212
778.10	45.185
778.41	44.643
778.72	45.985
779.03	46.309
779.34	48.322
779.65	39.189
779.95	40.491
780.26	41.176
780.57	44.828
780.88	43.750
781.19	45.865
781.50	49.324
781.80	35.849
782.11	38.418
782.42	34.810
782.73	38.650
783.04	45.270
783.34	43.662
783.65	51.370
783.96	48.507
784.27	35.664
784.57	43.165
784.88	53.704
785.19	50.000
785.50	47.170
785.81	42.537
786.11	43.443
786.42	52.713
786.73	46.903
787.04	51.887
787.34	51.786
787.65	58.000
787.96	49.550
788.26	51.240
788.57	53.390
788.88	55.372
789.19	43.750
789.49	53.788
789.80	51.908
790.11	61.905
790.41	62.376
790.72	54.217
791.03	60.870
791.33	55.814
791.64	54.639
791.95	68.317
792.25	68.889
792.56	61.039
792.87	80.769
793.17	82.278
793.48	82.759
793.79	70.115
794.09	68.182
794.40	42.857
794.70	55.147
795.01	39.259
795.32	35.971
795.62	48.819
795.93	44.828
796.23	57.522
796.54	56.471
796.85	78.378
797.15	88.732
797.46	84.848
797.76	67.470
798.07	60.759
798.37	80.000
798.68	65.152
798.99	69.014
799.29	72.727
799.60	64.773
799.90	84.932
800.21	74.627
800.51	93.103
800.82	96.491
801.12	100.000
801.43	84.848
801.73	74.324
802.04	103.175
802.34	81.481
802.65	75.000
802.95	89.831
803.26	87.500
803.56	74.286
803.87	83.077
804.17	91.176
804.48	98.148
804.78	81.034
805.09	80.882
805.39	101.923
805.70	94.643
806.00	100.000
806.30	75.758
806.61	71.951
806.91	70.886
807.22	77.632
807.52	52.239
807.83	71.831
808.13	82.813
808.43	81.667
808.74	71.053
809.04	86.957
809.35	92.537
809.65	80.263
809.95	111.290
810.26	72.881
810.56	84.127
810.86	136.364
811.17	100.000
811.47	96.667
811.77	112.963
812.08	96.364
812.38	136.000
812.69	133.333
812.99	140.909
813.29	110.204
813.59	80.952
813.90	116.327
814.20	103.636
814.50	75.385
814.81	79.412
815.11	110.204
815.41	86.885
815.72	135.714
816.02	105.455
816.32	116.667
816.62	107.500
816.93	129.268
817.23	135.714
817.53	138.636
817.84	136.364
818.14	106.522
818.44	124.444
818.74	141.176
819.04	107.500
819.35	160.000
819.65	185.294
819.95	185.714
820.25	225.000
820.56	138.462
820.86	104.545
821.16	132.558
821.46	138.462
821.76	120.000
822.07	140.000
822.37	122.500
822.67	151.515
822.97	107.843
823.27	185.714
823.57	129.730
823.88	152.500
824.18	210.000
824.48	161.905
824.78	204.000
825.08	204.167
825.38	154.054
825.69	141.463
825.99	170.833
826.29	144.828
826.59	107.895
826.89	131.579
827.19	164.706
827.49	187.097
827.79	120.455
828.09	120.455
828.39	108.511
828.70	155.102
829.00	188.889
829.30	132.258
829.60	130.000
829.90	300.000
830.20	153.571
830.50	173.913
830.80	226.087
831.10	183.333
831.40	203.333
831.70	178.261
832.00	226.923
832.30	192.593
832.60	237.500
832.90	190.000
833.20	335.714
833.50	174.194
833.80	165.517
834.10	178.125
834.40	250.000
834.70	266.667
835.00	300.000
835.30	160.000
835.60	300.000
835.90	193.103
836.20	428.571
836.50	210.345
836.80	200.000
837.10	158.333
837.40	204.762
837.70	300.000
838.00	222.222
838.30	219.048
838.60	290.476
838.90	211.538
839.19	290.000
839.49	350.000
839.79	275.000
840.09	240.000
840.39	290.476
840.69	252.174
840.99	266.667
841.29	580.000
841.59	375.000
841.88	325.000
842.18	189.655
842.48	271.429
842.78	180.000
843.08	230.435
843.38	178.125
843.68	733.333
843.97	203.846
844.27	206.897
844.57	276.190
844.87	375.000
845.17	229.630
845.47	1533.333
845.76	477.778
846.06	335.294
846.36	575.000
846.66	328.571
846.96	293.750
847.25	436.364
847.55	400.000
847.85	247.826
848.15	450.000
848.44	328.571
848.74	205.556
849.04	335.294
849.34	540.000
849.63	242.105
849.93	481.818
850.23	920.000
850.53	378.571
850.82	2550.000
851.12	-4100.000
851.42	4300.000
851.71	270.000
852.01	-1233.333
852.31	220.833
852.61	1500.000
852.90	214.286
853.20	196.000
853.50	305.882
853.79	247.619
854.09	195.833
854.39	368.750
854.68	175.676
854.98	167.742
855.28	146.667
855.57	189.655
855.87	188.889
856.17	300.000
856.46	260.000
856.76	300.000
857.05	172.414
857.35	200.000
857.65	393.333
857.94	247.826
858.24	215.385
858.53	225.000
858.83	281.818
859.13	373.333
859.42	0.000
859.72	566.667
860.01	454.545
860.31	213.636
860.60	236.842
860.90	252.174
861.20	577.778
861.49	400.000
861.79	-4400.000
862.08	550.000
862.38	304.762
862.67	346.154
862.97	352.941
863.26	688.889
863.56	311.111
863.85	366.667
864.15	525.000
864.44	406.667
864.74	900.000
865.03	725.000
865.33	347.368
865.62	500.000
865.92	438.462
866.21	375.000
866.51	0.000
866.80	381.818
867.10	1020.000
867.39	492.308
867.69	354.545
867.98	284.211
868.27	427.273
868.57	278.947
868.86	-3500.000
869.16	306.250
869.45	2250.000
869.75	-4300.000
870.04	391.667
870.33	628.571
870.63	1275.000
870.92	2600.000
871.22	557.143
871.51	317.647
871.80	214.286
872.10	400.000
>>>>>End Processed Spectral Data<<<<<
