SpectraSuite Data File
++++++++++++++++++++++++++++++++++++
Date: Wed May 13 19:58:33 PDT 2015
User: schluterlab
Dark Spectrum Present: Yes
Reference Spectrum Present: Yes
Number of Sampled Component Spectra: 1
Spectrometers: USB2E3373
Integration Time (usec): 3000 (USB2E3373)
Spectra Averaged: 3 (USB2E3373)
Boxcar Smoothing: 0 (USB2E3373)
Correct for Electrical Dark: No (USB2E3373)
Strobe/Lamp Enabled: No (USB2E3373)
Correct for Detector Non-linearity: No (USB2E3373)
Correct for Stray Light: No (USB2E3373)
Number of Pixels in Processed Spectrum: 2048
>>>>>Begin Processed Spectral Data<<<<<
178.53	0.000
178.91	-1375.000
179.29	-1300.000
179.67	-266.667
180.04	-1100.000
180.42	3000.000
180.80	1000.000
181.18	-1100.000
181.56	600.000
181.94	0.000
182.31	-657.143
182.69	1800.000
183.07	-562.500
183.45	-544.444
183.83	454.545
184.20	-430.000
184.58	2400.000
184.96	5300.000
185.34	-660.000
185.72	-725.000
186.09	-2400.000
186.47	2950.000
186.85	2500.000
187.23	4800.000
187.61	-1533.333
187.98	1150.000
188.36	581.818
188.74	445.455
189.12	-1020.000
189.49	560.000
189.87	-5600.000
190.25	-1200.000
190.63	414.286
191.00	438.462
191.38	816.667
191.76	-1450.000
192.14	1375.000
192.51	675.000
192.89	983.333
193.27	562.500
193.65	-1475.000
194.02	420.000
194.40	960.000
194.78	580.000
195.15	491.667
195.53	570.000
195.91	-2350.000
196.29	350.000
196.66	321.053
197.04	-430.000
197.42	0.000
197.79	660.000
198.17	-5000.000
198.55	757.143
198.92	662.500
199.30	860.000
199.68	0.000
200.05	288.889
200.43	728.571
200.81	4000.000
201.18	1900.000
201.56	-1766.667
201.94	500.000
202.31	600.000
202.69	416.667
203.07	510.000
203.44	0.000
203.82	1250.000
204.19	728.571
204.57	414.286
204.95	637.500
205.32	1766.667
205.70	545.455
206.08	371.429
206.45	2700.000
206.83	368.750
207.20	1016.667
207.58	780.000
207.96	305.556
208.33	750.000
208.71	-666.667
209.08	814.286
209.46	533.333
209.84	427.273
210.21	-1666.667
210.59	1150.000
210.96	-487.500
211.34	2500.000
211.71	570.000
212.09	866.667
212.46	0.000
212.84	1666.667
213.22	1425.000
213.59	-5100.000
213.97	800.000
214.34	885.714
214.72	663.636
215.09	980.000
215.47	-2350.000
215.84	-2600.000
216.22	1733.333
216.59	378.571
216.97	1250.000
217.34	545.455
217.72	-783.333
218.09	0.000
218.47	-4300.000
218.84	600.000
219.22	700.000
219.59	1600.000
219.97	-642.857
220.34	1060.000
220.72	-2066.667
221.09	428.571
221.47	1375.000
221.84	-933.333
222.22	0.000
222.59	1550.000
222.97	-2700.000
223.34	1200.000
223.72	438.462
224.09	800.000
224.46	2300.000
224.84	-4800.000
225.21	-1120.000
225.59	-5300.000
225.96	650.000
226.34	305.000
226.71	2300.000
227.08	650.000
227.46	500.000
227.83	-1250.000
228.21	-1950.000
228.58	622.222
228.95	-2400.000
229.33	-2350.000
229.70	1666.667
230.08	842.857
230.45	-1020.000
230.82	441.667
231.20	816.667
231.57	614.286
231.95	533.333
232.32	254.545
232.69	472.727
233.07	828.571
233.44	330.769
233.81	-1666.667
234.19	305.263
234.56	466.667
234.93	391.667
235.31	563.636
235.68	361.538
236.05	385.714
236.43	215.152
236.80	326.316
237.17	6100.000
237.55	280.952
237.92	228.571
238.29	333.333
238.67	177.419
239.04	237.931
239.41	200.000
239.79	141.304
240.16	173.810
240.53	159.091
240.91	119.608
241.28	134.000
241.65	148.000
242.02	124.638
242.40	124.194
242.77	141.667
243.14	102.151
243.51	104.494
243.89	111.765
244.26	103.333
244.63	104.301
245.00	97.872
245.38	95.050
245.75	100.935
246.12	77.982
246.49	89.781
246.87	83.200
247.24	86.923
247.61	85.714
247.98	79.085
248.36	83.108
248.73	80.255
249.10	82.166
249.47	74.576
249.84	78.075
250.22	66.310
250.59	76.331
250.96	74.242
251.33	71.090
251.70	73.762
252.08	68.571
252.45	66.816
252.82	66.957
253.19	64.681
253.56	69.020
253.94	67.635
254.31	61.328
254.68	65.769
255.05	65.683
255.42	63.008
255.79	65.074
256.16	63.899
256.54	68.198
256.91	64.769
257.28	60.791
257.65	61.716
258.02	59.627
258.39	58.360
258.76	58.194
259.14	60.417
259.51	62.310
259.88	60.248
260.25	62.236
260.62	57.803
260.99	59.938
261.36	64.565
261.73	61.318
262.10	58.430
262.47	66.197
262.85	57.382
263.22	61.254
263.59	60.114
263.96	61.538
264.33	59.530
264.70	58.158
265.07	55.499
265.44	57.828
265.81	54.745
266.18	61.307
266.55	55.854
266.92	58.477
267.29	58.565
267.66	57.110
268.03	54.318
268.40	53.972
268.77	55.370
269.14	51.577
269.51	55.756
269.88	55.478
270.25	53.273
270.62	55.506
270.99	56.344
271.36	55.794
271.73	55.140
272.10	53.913
272.47	53.548
272.84	56.926
273.21	53.878
273.58	50.437
273.95	52.411
274.32	54.339
274.69	53.105
275.06	50.394
275.43	54.468
275.80	53.106
276.17	51.731
276.54	52.391
276.91	53.162
277.28	49.609
277.65	52.031
278.02	53.209
278.39	52.344
278.76	50.000
279.13	54.717
279.50	51.397
279.87	51.195
280.23	51.497
280.60	50.870
280.97	52.495
281.34	52.035
281.71	52.545
282.08	52.975
282.45	50.727
282.82	49.556
283.19	50.624
283.56	51.579
283.92	54.146
284.29	47.795
284.66	49.002
285.03	51.537
285.40	49.824
285.77	47.643
286.14	49.050
286.51	51.000
286.87	48.889
287.24	49.349
287.61	48.636
287.98	46.591
288.35	46.434
288.72	46.885
289.08	46.479
289.45	44.975
289.82	47.154
290.19	43.799
290.56	46.095
290.93	43.051
291.29	45.706
291.66	44.395
292.03	43.750
292.40	45.374
292.77	43.491
293.13	41.642
293.50	43.003
293.87	41.778
294.24	41.630
294.60	39.301
294.97	41.860
295.34	42.736
295.71	40.341
296.08	40.741
296.44	40.853
296.81	38.970
297.18	42.005
297.55	38.391
297.91	40.106
298.28	43.106
298.65	41.514
299.02	39.921
299.38	38.114
299.75	36.927
300.12	37.165
300.48	37.875
300.85	37.855
301.22	37.707
301.59	36.995
301.95	37.657
302.32	39.024
302.69	37.395
303.05	35.879
303.42	35.556
303.79	37.033
304.15	34.266
304.52	35.921
304.89	34.611
305.25	34.571
305.62	34.881
305.99	36.009
306.35	35.682
306.72	36.547
307.09	36.182
307.45	35.698
307.82	34.710
308.19	35.651
308.55	36.354
308.92	35.231
309.29	34.319
309.65	36.267
310.02	35.307
310.38	34.946
310.75	35.903
311.12	34.084
311.48	35.632
311.85	35.430
312.22	34.443
312.58	35.655
312.95	34.424
313.31	33.981
313.68	35.759
314.05	35.996
314.41	35.075
314.78	34.642
315.14	34.260
315.51	34.604
315.87	35.644
316.24	35.253
316.61	35.283
316.97	34.442
317.34	35.225
317.70	35.946
318.07	35.419
318.43	36.693
318.80	36.082
319.16	36.064
319.53	35.460
319.89	37.238
320.26	38.600
320.62	38.095
320.99	37.576
321.35	39.091
321.72	39.733
322.08	39.191
322.45	40.796
322.81	41.376
323.18	41.233
323.54	40.909
323.91	40.849
324.27	41.969
324.64	41.473
325.00	41.389
325.37	44.677
325.73	43.357
326.10	43.425
326.46	43.280
326.83	45.211
327.19	45.090
327.56	46.777
327.92	46.719
328.29	46.406
328.65	48.343
329.01	48.917
329.38	49.214
329.74	48.846
330.11	50.895
330.47	50.872
330.84	52.022
331.20	50.273
331.56	49.541
331.93	50.463
332.29	50.044
332.66	50.708
333.02	51.554
333.38	51.852
333.75	53.654
334.11	52.224
334.48	51.553
334.84	54.136
335.20	53.364
335.57	54.306
335.93	51.250
336.29	53.755
336.66	52.390
337.02	52.941
337.38	53.796
337.75	51.872
338.11	53.536
338.47	52.762
338.84	53.346
339.20	53.394
339.56	54.106
339.93	52.182
340.29	52.355
340.65	53.654
341.02	55.148
341.38	55.249
341.74	53.246
342.11	54.410
342.47	55.595
342.83	53.339
343.20	54.113
343.56	53.580
343.92	55.789
344.28	54.677
344.65	54.686
345.01	53.451
345.37	54.202
345.73	55.415
346.10	53.964
346.46	54.831
346.82	53.707
347.19	54.302
347.55	52.627
347.91	55.097
348.27	54.807
348.63	55.268
349.00	53.883
349.36	56.404
349.72	54.370
350.08	53.647
350.45	55.899
350.81	54.996
351.17	53.971
351.53	55.364
351.89	53.218
352.26	54.380
352.62	55.573
352.98	55.916
353.34	56.697
353.70	55.074
354.07	55.161
354.43	54.048
354.79	54.948
355.15	54.828
355.51	56.435
355.87	56.327
356.24	56.596
356.60	55.573
356.96	56.718
357.32	57.400
357.68	58.110
358.04	55.978
358.40	57.403
358.77	56.886
359.13	55.564
359.49	56.392
359.85	56.905
360.21	57.656
360.57	56.576
360.93	58.077
361.29	57.521
361.66	57.508
362.02	57.313
362.38	57.110
362.74	57.664
363.10	57.883
363.46	58.254
363.82	57.294
364.18	57.489
364.54	59.287
364.90	58.428
365.26	58.162
365.62	59.021
365.98	58.072
366.35	56.662
366.71	58.641
367.07	59.505
367.43	59.869
367.79	59.529
368.15	59.842
368.51	59.593
368.87	60.671
369.23	60.205
369.59	61.984
369.95	60.368
370.31	60.256
370.67	58.841
371.03	61.348
371.39	62.245
371.75	61.029
372.11	61.166
372.47	63.930
372.83	63.833
373.19	61.127
373.55	63.341
373.91	64.801
374.27	62.337
374.63	63.709
374.99	63.347
375.35	64.201
375.71	62.097
376.07	64.198
376.42	63.755
376.78	63.817
377.14	65.739
377.50	64.570
377.86	65.426
378.22	65.297
378.58	63.409
378.94	64.865
379.30	66.221
379.66	66.053
380.02	65.663
380.38	65.817
380.74	66.206
381.09	66.381
381.45	68.470
381.81	67.445
382.17	67.834
382.53	68.805
382.89	68.519
383.25	68.856
383.61	71.004
383.97	69.919
384.32	68.621
384.68	70.446
385.04	70.744
385.40	70.836
385.76	71.560
386.12	72.150
386.48	71.680
386.83	73.380
387.19	72.418
387.55	71.367
387.91	73.156
388.27	72.655
388.62	72.895
388.98	71.069
389.34	74.155
389.70	74.494
390.06	75.412
390.42	75.551
390.77	74.873
391.13	76.069
391.49	75.825
391.85	75.684
392.20	74.890
392.56	77.399
392.92	77.340
393.28	75.089
393.64	77.518
393.99	76.481
394.35	77.978
394.71	76.161
395.07	77.695
395.42	78.863
395.78	78.690
396.14	78.585
396.50	81.516
396.85	79.911
397.21	78.422
397.57	79.789
397.92	80.469
398.28	79.260
398.64	79.510
399.00	80.078
399.35	80.711
399.71	81.481
400.07	81.076
400.42	83.190
400.78	82.811
401.14	83.293
401.49	82.806
401.85	84.090
402.21	82.754
402.57	84.207
402.92	85.309
403.28	85.634
403.63	85.272
403.99	85.860
404.35	84.667
404.70	84.772
405.06	84.624
405.42	87.399
405.77	85.371
406.13	85.892
406.49	86.103
406.84	85.942
407.20	87.411
407.55	88.322
407.91	89.267
408.27	88.258
408.62	87.839
408.98	88.297
409.34	88.192
409.69	90.452
410.05	88.290
410.40	88.624
410.76	90.920
411.11	87.937
411.47	88.818
411.83	89.921
412.18	88.930
412.54	91.968
412.89	89.639
413.25	90.732
413.60	91.662
413.96	90.650
414.31	91.555
414.67	91.318
415.03	92.185
415.38	92.268
415.74	93.376
416.09	95.689
416.45	92.236
416.80	94.911
417.16	94.035
417.51	96.350
417.87	92.550
418.22	94.763
418.58	95.287
418.93	95.332
419.29	94.717
419.64	95.970
420.00	95.915
420.35	93.855
420.71	95.876
421.06	93.556
421.42	94.620
421.77	94.843
422.12	97.473
422.48	96.222
422.83	97.030
423.19	95.138
423.54	98.143
423.90	97.333
424.25	95.757
424.61	95.833
424.96	99.417
425.31	96.456
425.67	96.854
426.02	96.229
426.38	98.840
426.73	97.894
427.09	99.027
427.44	98.275
427.79	97.412
428.15	98.452
428.50	97.659
428.85	99.046
429.21	98.288
429.56	98.963
429.92	96.880
430.27	97.915
430.62	97.849
430.98	98.080
431.33	97.938
431.68	100.471
432.04	97.817
432.39	101.314
432.74	100.598
433.10	100.736
433.45	100.933
433.80	100.166
434.16	98.771
434.51	99.421
434.86	100.912
435.22	101.556
435.57	101.763
435.92	100.351
436.28	103.737
436.63	101.159
436.98	101.946
437.34	101.968
437.69	102.275
438.04	103.541
438.39	101.791
438.75	102.324
439.10	102.067
439.45	102.834
439.81	103.505
440.16	102.710
440.51	104.277
440.86	103.532
441.22	102.892
441.57	102.176
441.92	102.866
442.27	103.068
442.63	101.580
442.98	102.930
443.33	102.772
443.68	103.459
444.03	103.465
444.39	102.240
444.74	104.058
445.09	101.833
445.44	101.804
445.79	103.068
446.15	101.482
446.50	103.446
446.85	102.826
447.20	101.989
447.55	105.137
447.91	102.758
448.26	102.504
448.61	103.957
448.96	103.267
449.31	104.724
449.66	103.095
450.02	103.120
450.37	103.231
450.72	104.174
451.07	102.559
451.42	102.128
451.77	103.876
452.12	101.617
452.47	102.861
452.83	104.720
453.18	102.812
453.53	105.999
453.88	103.957
454.23	102.630
454.58	104.058
454.93	104.704
455.28	103.928
455.63	103.641
455.98	105.357
456.34	104.083
456.69	104.383
457.04	104.520
457.39	103.039
457.74	102.496
458.09	102.243
458.44	103.307
458.79	101.844
459.14	103.442
459.49	101.868
459.84	103.102
460.19	101.591
460.54	101.852
460.89	102.359
461.24	104.554
461.59	103.486
461.94	101.850
462.29	105.045
462.64	102.106
462.99	102.017
463.34	103.533
463.69	104.128
464.04	101.565
464.39	101.797
464.74	101.307
465.09	101.387
465.44	101.385
465.79	101.790
466.14	100.657
466.49	100.000
466.84	101.751
467.19	102.173
467.54	101.938
467.89	101.621
468.24	101.571
468.59	102.259
468.94	100.550
469.29	101.607
469.64	103.815
469.99	102.030
470.34	103.897
470.68	103.951
471.03	100.952
471.38	104.795
471.73	102.332
472.08	102.171
472.43	101.508
472.78	101.843
473.13	102.246
473.48	101.248
473.83	100.671
474.17	100.871
474.52	102.047
474.87	101.693
475.22	100.987
475.57	99.624
475.92	100.319
476.27	100.225
476.61	100.827
476.96	100.495
477.31	99.529
477.66	101.805
478.01	99.582
478.36	101.586
478.70	101.506
479.05	100.958
479.40	100.921
479.75	98.831
480.10	100.199
480.45	99.524
480.79	100.048
481.14	100.000
481.49	99.098
481.84	99.314
482.19	99.682
482.53	98.394
482.88	99.488
483.23	100.794
483.58	99.773
483.92	99.391
484.27	96.645
484.62	99.009
484.97	98.069
485.31	97.363
485.66	92.748
486.01	90.125
486.36	88.414
486.70	89.641
487.05	91.994
487.40	93.718
487.75	95.701
488.09	98.059
488.44	98.165
488.79	99.494
489.13	99.924
489.48	99.225
489.83	97.842
490.17	99.036
490.52	96.634
490.87	98.779
491.22	97.226
491.56	97.130
491.91	98.604
492.26	97.014
492.60	97.972
492.95	98.036
493.30	97.336
493.64	97.947
493.99	96.704
494.34	96.947
494.68	97.711
495.03	97.462
495.37	96.370
495.72	98.928
496.07	98.886
496.41	95.177
496.76	96.306
497.11	96.938
497.45	97.345
497.80	96.209
498.14	98.599
498.49	98.634
498.84	97.267
499.18	98.381
499.53	97.293
499.87	96.831
500.22	96.232
500.56	99.466
500.91	97.019
501.26	96.871
501.60	99.383
501.95	96.379
502.29	96.954
502.64	97.253
502.98	97.055
503.33	94.790
503.67	96.473
504.02	97.240
504.36	95.648
504.71	98.192
505.06	97.349
505.40	98.153
505.75	97.203
506.09	97.668
506.44	99.260
506.78	98.003
507.13	98.183
507.47	97.424
507.82	98.936
508.16	98.531
508.51	100.863
508.85	97.219
509.19	100.051
509.54	97.347
509.88	98.145
510.23	99.897
510.57	99.587
510.92	97.980
511.26	96.917
511.61	99.170
511.95	97.808
512.30	98.834
512.64	98.818
512.98	98.607
513.33	99.679
513.67	97.172
514.02	99.784
514.36	101.092
514.70	100.055
515.05	101.617
515.39	100.168
515.74	100.676
516.08	99.721
516.42	100.555
516.77	101.839
517.11	99.334
517.46	100.339
517.80	101.858
518.14	102.664
518.49	101.867
518.83	100.284
519.17	101.155
519.52	99.943
519.86	100.057
520.20	101.387
520.55	103.651
520.89	102.798
521.23	102.232
521.58	102.281
521.92	103.491
522.26	100.793
522.61	103.240
522.95	102.701
523.29	102.130
523.64	103.049
523.98	103.635
524.32	101.267
524.66	101.744
525.01	102.022
525.35	101.983
525.69	99.323
526.04	103.364
526.38	102.807
526.72	100.613
527.06	103.453
527.41	100.495
527.75	104.695
528.09	106.358
528.43	101.912
528.78	102.520
529.12	101.697
529.46	102.143
529.80	102.166
530.15	103.427
530.49	101.046
530.83	101.772
531.17	104.961
531.51	105.123
531.86	103.032
532.20	102.608
532.54	103.267
532.88	102.632
533.22	100.937
533.57	102.901
533.91	100.482
534.25	100.000
534.59	102.441
534.93	99.048
535.27	99.698
535.62	99.451
535.96	102.134
536.30	102.543
536.64	101.867
536.98	104.313
537.32	101.053
537.66	104.400
538.01	102.502
538.35	103.297
538.69	103.382
539.03	100.845
539.37	101.022
539.71	100.065
540.05	101.895
540.39	103.588
540.73	99.288
541.07	102.596
541.42	103.196
541.76	102.194
542.10	101.552
542.44	101.656
542.78	101.845
543.12	99.552
543.46	100.787
543.80	101.627
544.14	100.513
544.48	100.825
544.82	101.090
545.16	100.781
545.50	101.157
545.84	102.621
546.18	103.165
546.52	103.579
546.86	103.986
547.20	101.349
547.54	99.599
547.88	99.936
548.22	100.062
548.56	99.182
548.90	99.488
549.24	103.300
549.58	101.023
549.92	102.060
550.26	105.185
550.60	102.628
550.94	103.662
551.28	103.146
551.62	103.235
551.96	101.474
552.30	100.956
552.64	101.217
552.98	101.085
553.32	100.539
553.66	101.840
554.00	101.098
554.34	100.621
554.68	102.718
555.02	102.680
555.36	101.183
555.69	99.120
556.03	100.000
556.37	101.364
556.71	100.068
557.05	101.751
557.39	102.379
557.73	101.200
558.07	104.133
558.41	102.533
558.75	103.747
559.08	103.132
559.42	104.535
559.76	101.618
560.10	101.213
560.44	99.860
560.78	98.802
561.12	98.417
561.45	99.544
561.79	98.088
562.13	101.744
562.47	101.298
562.81	102.022
563.15	100.201
563.48	100.332
563.82	100.326
564.16	100.392
564.50	99.870
564.84	97.282
565.17	100.193
565.51	99.489
565.85	98.350
566.19	98.497
566.52	100.190
566.86	97.709
567.20	98.113
567.54	98.174
567.88	97.447
568.21	97.090
568.55	95.046
568.89	96.595
569.23	91.221
569.56	91.660
569.90	91.698
570.24	90.133
570.57	89.595
570.91	86.652
571.25	87.492
571.59	87.216
571.92	87.212
572.26	87.782
572.60	88.589
572.93	87.106
573.27	88.376
573.61	87.158
573.95	87.028
574.28	86.106
574.62	85.301
574.96	85.615
575.29	85.451
575.63	86.052
575.97	86.097
576.30	86.006
576.64	86.555
576.98	85.732
577.31	85.397
577.65	84.712
577.98	84.339
578.32	83.261
578.66	84.235
578.99	85.140
579.33	84.967
579.67	84.286
580.00	84.057
580.34	85.097
580.67	85.134
581.01	84.349
581.35	84.005
581.68	82.593
582.02	81.529
582.35	82.586
582.69	83.286
583.02	84.557
583.36	85.589
583.70	86.089
584.03	87.017
584.37	86.957
584.70	87.330
585.04	85.103
585.37	83.830
585.71	84.445
586.04	84.417
586.38	86.912
586.72	86.716
587.05	84.434
587.39	84.828
587.72	84.849
588.06	85.939
588.39	86.283
588.73	86.301
589.06	88.127
589.40	87.744
589.73	87.328
590.07	87.544
590.40	87.797
590.73	89.891
591.07	90.476
591.40	89.878
591.74	90.087
592.07	89.703
592.41	88.342
592.74	85.618
593.08	84.877
593.41	84.435
593.75	84.385
594.08	84.076
594.41	85.719
594.75	86.691
595.08	85.863
595.42	86.340
595.75	85.470
596.09	87.383
596.42	88.291
596.75	89.025
597.09	88.615
597.42	85.582
597.75	87.883
598.09	86.913
598.42	87.285
598.76	86.178
599.09	85.253
599.42	85.044
599.76	85.359
600.09	85.865
600.42	84.551
600.76	83.750
601.09	84.262
601.42	86.225
601.76	86.034
602.09	86.206
602.42	85.868
602.76	87.384
603.09	85.681
603.42	85.904
603.76	86.052
604.09	85.847
604.42	86.099
604.76	86.377
605.09	86.938
605.42	86.191
605.75	84.975
606.09	84.953
606.42	85.942
606.75	85.193
607.09	83.926
607.42	85.665
607.75	84.979
608.08	84.585
608.42	85.612
608.75	85.437
609.08	85.153
609.41	86.768
609.75	87.851
610.08	86.192
610.41	87.011
610.74	87.606
611.07	88.389
611.41	86.899
611.74	86.978
612.07	89.855
612.40	89.664
612.73	87.895
613.07	88.470
613.40	88.099
613.73	86.838
614.06	88.118
614.39	86.366
614.72	85.737
615.06	86.450
615.39	87.580
615.72	85.123
616.05	84.530
616.38	86.937
616.71	89.905
617.05	89.223
617.38	90.439
617.71	90.450
618.04	89.603
618.37	87.463
618.70	88.363
619.03	90.197
619.36	90.292
619.69	90.704
620.03	90.659
620.36	89.171
620.69	90.753
621.02	91.445
621.35	92.404
621.68	91.121
622.01	92.337
622.34	89.939
622.67	91.103
623.00	92.003
623.33	87.920
623.66	90.064
623.99	91.090
624.32	89.800
624.65	88.418
624.99	89.660
625.32	88.704
625.65	90.909
625.98	91.776
626.31	91.602
626.64	91.592
626.97	93.849
627.30	93.101
627.63	91.879
627.96	90.917
628.29	94.051
628.62	93.962
628.95	94.717
629.28	94.343
629.61	92.942
629.94	95.905
630.26	95.138
630.59	94.566
630.92	94.444
631.25	96.841
631.58	94.294
631.91	95.436
632.24	94.620
632.57	97.692
632.90	95.724
633.23	96.868
633.56	97.740
633.89	98.867
634.22	97.730
634.55	101.775
634.88	98.204
635.20	100.000
635.53	97.711
635.86	100.124
636.19	99.059
636.52	94.348
636.85	96.564
637.18	94.700
637.51	96.099
637.83	93.588
638.16	100.128
638.49	98.489
638.82	98.736
639.15	99.250
639.48	99.127
639.81	102.547
640.13	99.349
640.46	97.584
640.79	99.472
641.12	97.662
641.45	99.022
641.77	103.535
642.10	102.632
642.43	101.802
642.76	102.322
643.09	104.141
643.41	101.517
643.74	104.012
644.07	101.372
644.40	102.301
644.73	102.835
645.05	104.279
645.38	100.632
645.71	103.382
646.04	104.817
646.36	105.843
646.69	102.508
647.02	102.721
647.35	102.749
647.67	105.487
648.00	99.512
648.33	101.320
648.66	96.818
648.98	95.652
649.31	95.217
649.64	95.516
649.96	95.380
650.29	99.684
650.62	100.162
650.94	102.107
651.27	99.493
651.60	101.830
651.92	96.486
652.25	97.720
652.58	96.417
652.90	101.738
653.23	97.381
653.56	98.110
653.88	97.781
654.21	101.106
654.54	101.650
654.86	95.950
655.19	94.189
655.52	66.228
655.84	59.291
656.17	75.367
656.49	99.856
656.82	100.000
657.15	86.372
657.47	62.619
657.80	48.825
658.13	51.908
658.45	78.419
658.78	80.167
659.10	82.955
659.43	86.658
659.75	89.504
660.08	94.747
660.41	98.976
660.73	102.160
661.06	102.548
661.38	103.455
661.71	102.500
662.03	101.183
662.36	98.608
662.68	102.410
663.01	103.232
663.33	105.945
663.66	101.471
663.98	106.048
664.31	101.891
664.63	99.798
664.96	99.396
665.28	100.820
665.61	96.296
665.93	98.994
666.26	103.245
666.58	100.837
666.91	100.846
667.23	104.719
667.56	101.512
667.88	102.350
668.21	97.655
668.53	104.121
668.86	104.329
669.18	100.853
669.50	102.609
669.83	104.793
670.15	104.000
670.48	101.089
670.80	99.784
671.13	100.849
671.45	99.787
671.77	100.000
672.10	91.312
672.42	89.929
672.75	89.718
673.07	96.831
673.39	96.203
673.72	97.070
674.04	98.431
674.37	94.951
674.69	100.000
675.01	100.837
675.34	97.947
675.66	98.105
675.98	95.316
676.31	96.429
676.63	96.603
676.95	96.017
677.28	100.701
677.60	99.121
677.92	100.422
678.25	96.099
678.57	95.418
678.89	96.794
679.22	95.088
679.54	94.656
679.86	90.826
680.18	91.055
680.51	89.716
680.83	91.637
681.15	93.774
681.48	93.195
681.80	91.489
682.12	92.912
682.44	93.810
682.77	95.723
683.09	96.352
683.41	100.222
683.73	97.572
684.06	94.215
684.38	88.258
684.70	90.891
685.02	93.809
685.34	89.377
685.67	87.762
685.99	84.708
686.31	86.689
686.63	87.633
686.96	91.071
687.28	87.726
687.60	86.413
687.92	90.859
688.24	89.163
688.56	93.173
688.89	95.021
689.21	96.943
689.53	91.858
689.85	93.348
690.17	90.683
690.49	89.172
690.82	96.729
691.14	92.411
691.46	89.030
691.78	86.948
692.10	91.529
692.42	86.627
692.74	88.174
693.06	90.426
693.39	91.992
693.71	91.921
694.03	89.895
694.35	90.476
694.67	89.245
694.99	94.634
695.31	88.480
695.63	90.191
695.95	94.377
696.27	92.386
696.59	96.891
696.91	93.005
697.23	87.089
697.56	85.714
697.88	80.164
698.20	86.250
698.52	87.312
698.84	89.532
699.16	89.401
699.48	90.974
699.80	90.821
700.12	94.805
700.44	93.899
700.76	91.989
701.08	96.839
701.40	92.458
701.72	96.793
702.04	98.011
702.36	92.068
702.68	93.768
703.00	90.028
703.32	87.234
703.64	91.689
703.96	92.758
704.28	95.640
704.60	91.496
704.91	96.439
705.23	94.721
705.55	101.661
705.87	101.993
706.19	100.707
706.51	91.589
706.83	96.364
707.15	90.756
707.47	90.152
707.79	88.206
708.11	85.616
708.43	84.524
708.74	87.245
709.06	91.688
709.38	88.451
709.70	94.186
710.02	92.582
710.34	93.333
710.66	88.955
710.98	87.500
711.29	85.756
711.61	90.855
711.93	91.987
712.25	96.141
712.57	99.265
712.89	96.194
713.20	87.538
713.52	91.776
713.84	90.190
714.16	87.500
714.48	86.207
714.80	96.353
715.11	87.896
715.43	85.460
715.75	84.928
716.07	94.888
716.39	93.103
716.70	94.684
717.02	95.324
717.34	87.633
717.66	97.015
717.97	100.398
718.29	91.481
718.61	91.971
718.93	93.015
719.24	90.657
719.56	89.153
719.88	87.458
720.20	87.500
720.51	89.895
720.83	93.309
721.15	89.552
721.46	87.943
721.78	91.039
722.10	91.698
722.42	97.368
722.73	87.266
723.05	97.951
723.37	90.688
723.68	89.575
724.00	92.276
724.32	92.742
724.63	93.089
724.95	92.050
725.27	93.522
725.58	94.531
725.90	88.686
726.22	93.585
726.53	90.278
726.85	85.324
727.16	87.189
727.48	82.624
727.80	89.773
728.11	87.681
728.43	93.846
728.74	88.530
729.06	86.861
729.38	86.397
729.69	90.747
730.01	82.594
730.32	87.153
730.64	83.278
730.96	80.528
731.27	84.768
731.59	83.180
731.90	81.924
732.22	87.267
732.53	75.851
732.85	78.846
733.16	79.743
733.48	85.714
733.80	83.117
734.11	82.166
734.43	80.178
734.74	78.000
735.06	76.504
735.37	84.971
735.69	81.210
736.00	85.948
736.32	78.505
736.63	81.150
736.95	86.581
737.26	80.952
737.58	83.871
737.89	81.940
738.21	84.983
738.52	87.857
738.83	87.925
739.15	85.000
739.46	87.226
739.78	78.125
740.09	78.769
740.41	84.839
740.72	83.624
741.04	87.037
741.35	88.333
741.66	95.111
741.98	87.736
742.29	98.086
742.61	87.069
742.92	94.118
743.23	87.607
743.55	89.600
743.86	89.035
744.18	96.460
744.49	94.737
744.80	91.080
745.12	95.455
745.43	82.819
745.74	95.946
746.06	91.743
746.37	85.650
746.68	90.045
747.00	92.130
747.31	97.619
747.62	88.053
747.94	87.225
748.25	85.106
748.56	84.581
748.88	94.554
749.19	93.500
749.50	91.628
749.82	78.049
750.13	88.571
750.44	82.117
750.75	80.702
751.07	79.421
751.38	79.094
751.69	77.978
752.01	85.338
752.32	83.755
752.63	83.333
752.94	88.934
753.26	86.800
753.57	77.642
753.88	89.453
754.19	77.500
754.51	82.986
754.82	76.895
755.13	80.755
755.44	81.579
755.75	79.197
756.07	75.177
756.38	71.168
756.69	76.510
757.00	70.659
757.31	74.481
757.63	73.392
757.94	72.922
758.25	69.363
758.56	70.123
758.87	69.624
759.18	74.545
759.50	71.160
759.81	74.455
760.12	71.875
760.43	73.639
760.74	71.196
761.05	73.729
761.36	70.053
761.67	72.727
761.99	74.845
762.30	82.292
762.61	78.626
762.92	79.297
763.23	76.891
763.54	80.800
763.85	76.562
764.16	79.231
764.47	82.890
764.78	75.618
765.10	68.671
765.41	71.091
765.72	75.449
766.03	71.473
766.34	71.000
766.65	82.979
766.96	80.769
767.27	93.401
767.58	88.542
767.89	87.895
768.20	95.402
768.51	86.802
768.82	81.193
769.13	70.732
769.44	76.923
769.75	84.549
770.06	79.817
770.37	85.068
770.68	82.407
770.99	75.556
771.30	73.361
771.61	84.753
771.92	76.230
772.23	82.353
772.54	88.718
772.85	87.958
773.16	84.043
773.47	83.696
773.78	86.802
774.09	89.286
774.39	95.322
774.70	89.506
775.01	97.826
775.32	90.850
775.63	96.711
775.94	87.770
776.25	114.173
776.56	98.507
776.87	102.459
777.18	93.750
777.48	90.840
777.79	93.182
778.10	96.296
778.41	107.143
778.72	85.401
779.03	84.564
779.34	88.591
779.65	89.189
779.95	79.141
780.26	94.771
780.57	98.621
780.88	109.375
781.19	95.489
781.50	97.973
781.80	95.597
782.11	81.921
782.42	82.278
782.73	90.798
783.04	95.270
783.34	95.775
783.65	101.370
783.96	100.000
784.27	84.615
784.57	86.331
784.88	98.148
785.19	92.063
785.50	104.717
785.81	85.821
786.11	99.180
786.42	96.124
786.73	108.850
787.04	107.547
787.34	97.321
787.65	117.000
787.96	105.405
788.26	95.041
788.57	108.475
788.88	106.612
789.19	86.806
789.49	100.000
789.80	91.603
790.11	111.429
790.41	112.871
790.72	113.253
791.03	106.522
791.33	125.581
791.64	112.371
791.95	103.960
792.25	120.000
792.56	112.987
792.87	141.026
793.17	131.646
793.48	126.437
793.79	113.793
794.09	118.182
794.40	92.437
794.70	88.971
795.01	82.963
795.32	82.014
795.62	91.339
795.93	84.483
796.23	101.770
796.54	121.176
796.85	116.216
797.15	140.845
797.46	118.182
797.76	133.735
798.07	115.190
798.37	126.154
798.68	133.333
798.99	105.634
799.29	116.883
799.60	105.682
799.90	152.055
800.21	128.358
800.51	131.034
800.82	171.930
801.12	139.344
801.43	139.394
801.73	118.919
802.04	160.317
802.34	112.346
802.65	125.000
802.95	132.203
803.26	129.688
803.56	122.857
803.87	106.154
804.17	114.706
804.48	161.111
804.78	137.931
805.09	111.765
805.39	163.462
805.70	167.857
806.00	144.262
806.30	115.152
806.61	114.634
806.91	121.519
807.22	113.158
807.52	123.881
807.83	115.493
808.13	143.750
808.43	148.333
808.74	107.895
809.04	134.783
809.35	119.403
809.65	115.789
809.95	153.226
810.26	142.373
810.56	114.286
810.86	204.545
811.17	180.952
811.47	151.667
811.77	137.037
812.08	145.455
812.38	156.000
812.69	236.111
812.99	184.091
813.29	155.102
813.59	152.381
813.90	161.224
814.20	138.182
814.50	124.615
814.81	130.882
815.11	144.898
815.41	131.148
815.72	202.381
816.02	134.545
816.32	173.810
816.62	152.500
816.93	163.415
817.23	180.952
817.53	134.091
817.84	209.091
818.14	182.609
818.44	166.667
818.74	211.765
819.04	167.500
819.35	208.571
819.65	188.235
819.95	228.571
820.25	225.000
820.56	171.795
820.86	193.182
821.16	209.302
821.46	171.795
821.76	174.000
822.07	188.571
822.37	162.500
822.67	239.394
822.97	143.137
823.27	250.000
823.57	156.757
823.88	187.500
824.18	193.333
824.48	183.333
824.78	256.000
825.08	258.333
825.38	170.270
825.69	151.220
825.99	266.667
826.29	224.138
826.59	171.053
826.89	189.474
827.19	194.118
827.49	200.000
827.79	190.909
828.09	165.909
828.39	163.830
828.70	161.224
829.00	225.926
829.30	200.000
829.60	177.500
829.90	413.333
830.20	225.000
830.50	204.348
830.80	269.565
831.10	236.667
831.40	193.333
831.70	213.043
832.00	273.077
832.30	237.037
832.60	362.500
832.90	246.667
833.20	514.286
833.50	206.452
833.80	196.552
834.10	221.875
834.40	288.462
834.70	305.556
835.00	366.667
835.30	182.857
835.60	376.923
835.90	224.138
836.20	428.571
836.50	200.000
836.80	260.000
837.10	188.889
837.40	309.524
837.70	258.824
838.00	200.000
838.30	238.095
838.60	314.286
838.90	238.462
839.19	280.000
839.49	442.857
839.79	310.000
840.09	235.000
840.39	333.333
840.69	282.609
840.99	288.889
841.29	590.000
841.59	391.667
841.88	350.000
842.18	193.103
842.48	285.714
842.78	220.000
843.08	239.130
843.38	203.125
843.68	850.000
843.97	230.769
844.27	231.034
844.57	338.095
844.87	412.500
845.17	225.926
845.47	1533.333
845.76	600.000
846.06	300.000
846.36	550.000
846.66	507.143
846.96	275.000
847.25	490.909
847.55	518.182
847.85	265.217
848.15	580.000
848.44	407.143
848.74	266.667
849.04	364.706
849.34	510.000
849.63	236.842
849.93	463.636
850.23	1060.000
850.53	378.571
850.82	2150.000
851.12	-5300.000
851.42	4900.000
851.71	285.000
852.01	-1400.000
852.31	295.833
852.61	1800.000
852.90	304.762
853.20	280.000
853.50	311.765
853.79	280.952
854.09	237.500
854.39	350.000
854.68	200.000
854.98	187.097
855.28	186.667
855.57	244.828
855.87	240.741
856.17	273.684
856.46	360.000
856.76	323.529
857.05	231.034
857.35	262.500
857.65	433.333
857.94	226.087
858.24	288.462
858.53	310.000
858.83	277.273
859.13	420.000
859.42	0.000
859.72	633.333
860.01	436.364
860.31	277.273
860.60	289.474
860.90	230.435
861.20	655.556
861.49	508.333
861.79	-5600.000
862.08	600.000
862.38	257.143
862.67	353.846
862.97	382.353
863.26	500.000
863.56	233.333
863.85	466.667
864.15	675.000
864.44	426.667
864.74	883.333
865.03	650.000
865.33	300.000
865.62	445.455
865.92	392.308
866.21	358.333
866.51	0.000
866.80	372.727
867.10	1280.000
867.39	523.077
867.69	409.091
867.98	294.737
868.27	509.091
868.57	294.737
868.86	-4700.000
869.16	418.750
869.45	2400.000
869.75	-3400.000
870.04	391.667
870.33	657.143
870.63	1125.000
870.92	2950.000
871.22	700.000
871.51	364.706
871.80	257.143
872.10	378.571
>>>>>End Processed Spectral Data<<<<<
