SpectraSuite Data File
++++++++++++++++++++++++++++++++++++
Date: Wed May 13 19:38:47 PDT 2015
User: schluterlab
Dark Spectrum Present: Yes
Reference Spectrum Present: Yes
Number of Sampled Component Spectra: 1
Spectrometers: USB2E3373
Integration Time (usec): 3000 (USB2E3373)
Spectra Averaged: 3 (USB2E3373)
Boxcar Smoothing: 0 (USB2E3373)
Correct for Electrical Dark: No (USB2E3373)
Strobe/Lamp Enabled: No (USB2E3373)
Correct for Detector Non-linearity: No (USB2E3373)
Correct for Stray Light: No (USB2E3373)
Number of Pixels in Processed Spectrum: 2048
>>>>>Begin Processed Spectral Data<<<<<
178.53	0.000
178.91	-1650.000
179.29	-1450.000
179.67	-316.667
180.04	-1275.000
180.42	2600.000
180.80	1200.000
181.18	-1200.000
181.56	671.429
181.94	0.000
182.31	-671.429
182.69	2066.667
183.07	-712.500
183.45	-644.444
183.83	536.364
184.20	-490.000
184.58	2350.000
184.96	6700.000
185.34	-800.000
185.72	-737.500
186.09	-2700.000
186.47	2550.000
186.85	3200.000
187.23	5500.000
187.61	-1633.333
187.98	1375.000
188.36	581.818
188.74	500.000
189.12	-800.000
189.49	610.000
189.87	-5900.000
190.25	-1525.000
190.63	392.857
191.00	392.308
191.38	916.667
191.76	-1325.000
192.14	1450.000
192.51	637.500
192.89	1133.333
193.27	512.500
193.65	-1175.000
194.02	480.000
194.40	940.000
194.78	580.000
195.15	500.000
195.53	620.000
195.91	-2650.000
196.29	400.000
196.66	321.053
197.04	-440.000
197.42	0.000
197.79	590.000
198.17	-5600.000
198.55	742.857
198.92	662.500
199.30	920.000
199.68	0.000
200.05	344.444
200.43	928.571
200.81	4800.000
201.18	1766.667
201.56	-1600.000
201.94	633.333
202.31	633.333
202.69	500.000
203.07	570.000
203.44	0.000
203.82	1325.000
204.19	742.857
204.57	428.571
204.95	562.500
205.32	1933.333
205.70	509.091
206.08	428.571
206.45	2900.000
206.83	387.500
207.20	933.333
207.58	1060.000
207.96	327.778
208.33	687.500
208.71	-900.000
209.08	828.571
209.46	600.000
209.84	581.818
210.21	-1700.000
210.59	1325.000
210.96	-662.500
211.34	2450.000
211.71	630.000
212.09	866.667
212.46	0.000
212.84	2133.333
213.22	1575.000
213.59	-6000.000
213.97	1000.000
214.34	757.143
214.72	654.545
215.09	1040.000
215.47	-2400.000
215.84	-2350.000
216.22	1633.333
216.59	428.571
216.97	1375.000
217.34	554.545
217.72	-900.000
218.09	0.000
218.47	-4700.000
218.84	700.000
219.22	828.571
219.59	1766.667
219.97	-571.429
220.34	1000.000
220.72	-1666.667
221.09	400.000
221.47	1525.000
221.84	-1066.667
222.22	0.000
222.59	1600.000
222.97	-2600.000
223.34	1440.000
223.72	507.692
224.09	1360.000
224.46	2500.000
224.84	-5300.000
225.21	-1180.000
225.59	-5300.000
225.96	650.000
226.34	285.000
226.71	3150.000
227.08	700.000
227.46	570.000
227.83	-950.000
228.21	-2100.000
228.58	555.556
228.95	-3000.000
229.33	-2150.000
229.70	1966.667
230.08	742.857
230.45	-840.000
230.82	491.667
231.20	850.000
231.57	757.143
231.95	450.000
232.32	245.455
232.69	409.091
233.07	714.286
233.44	376.923
233.81	-1800.000
234.19	289.474
234.56	408.333
234.93	425.000
235.31	445.455
235.68	338.462
236.05	392.857
236.43	172.727
236.80	236.842
237.17	4600.000
237.55	242.857
237.92	214.286
238.29	228.571
238.67	187.097
239.04	203.448
239.41	152.778
239.79	104.348
240.16	145.238
240.53	111.364
240.91	101.961
241.28	102.000
241.65	96.000
242.02	89.855
242.40	93.548
242.77	93.333
243.14	59.140
243.51	68.539
243.89	56.471
244.26	56.667
244.63	44.086
245.00	58.511
245.38	58.416
245.75	43.925
246.12	48.624
246.49	54.015
246.87	57.600
247.24	43.077
247.61	40.000
247.98	38.562
248.36	28.378
248.73	33.758
249.10	40.127
249.47	31.638
249.84	32.620
250.22	26.203
250.59	29.586
250.96	31.818
251.33	31.754
251.70	27.228
252.08	25.238
252.45	22.870
252.82	23.478
253.19	29.787
253.56	25.882
253.94	21.162
254.31	19.531
254.68	25.000
255.05	20.664
255.42	25.610
255.79	23.162
256.16	25.632
256.54	20.495
256.91	22.064
257.28	15.468
257.65	21.782
258.02	21.429
258.39	18.612
258.76	16.722
259.14	17.560
259.51	19.453
259.88	18.323
260.25	21.752
260.62	14.740
260.99	18.323
261.36	19.820
261.73	18.052
262.10	13.663
262.47	17.465
262.85	16.435
263.22	12.536
263.59	18.803
263.96	16.758
264.33	17.232
264.70	18.158
265.07	16.113
265.44	14.899
265.81	14.112
266.18	13.065
266.55	14.146
266.92	13.514
267.29	13.426
267.66	14.679
268.03	15.909
268.40	15.187
268.77	12.888
269.14	12.838
269.51	14.447
269.88	15.385
270.25	14.447
270.62	13.034
270.99	15.269
271.36	14.163
271.73	12.850
272.10	12.609
272.47	12.258
272.84	13.853
273.21	13.417
273.58	10.480
273.95	11.740
274.32	13.430
274.69	12.848
275.06	12.402
275.43	12.553
275.80	12.425
276.17	12.424
276.54	12.474
276.91	12.055
277.28	11.719
277.65	12.573
278.02	10.766
278.39	13.281
278.76	12.909
279.13	14.151
279.50	12.477
279.87	10.757
280.23	12.774
280.60	12.573
280.97	11.091
281.34	10.619
281.71	14.364
282.08	12.668
282.45	10.909
282.82	10.124
283.19	9.269
283.56	11.754
283.92	10.491
284.29	10.935
284.66	10.889
285.03	9.584
285.40	10.563
285.77	10.774
286.14	9.845
286.51	9.000
286.87	8.889
287.24	13.029
287.61	10.754
287.98	10.065
288.35	9.984
288.72	10.748
289.08	10.642
289.45	9.555
289.82	10.732
290.19	9.105
290.56	11.945
290.93	9.215
291.29	9.356
291.66	10.619
292.03	11.337
292.40	10.426
292.77	7.988
293.13	10.597
293.50	9.329
293.87	10.519
294.24	7.852
294.60	6.841
294.97	8.576
295.34	10.014
295.71	9.375
296.08	8.974
296.44	8.391
296.81	9.775
297.18	11.789
297.55	7.388
297.91	8.707
298.28	10.576
298.65	9.661
299.02	8.959
299.38	7.304
299.75	6.739
300.12	9.068
300.48	8.250
300.85	9.494
301.22	9.045
301.59	8.586
301.95	9.068
302.32	7.574
302.69	8.363
303.05	8.606
303.42	8.025
303.79	9.060
304.15	7.459
304.52	7.648
304.89	7.201
305.25	8.701
305.62	8.381
305.99	8.737
306.35	9.620
306.72	8.857
307.09	8.657
307.45	8.446
307.82	6.808
308.19	9.823
308.55	8.846
308.92	9.023
309.29	7.814
309.65	6.999
310.02	8.457
310.38	8.387
310.75	8.553
311.12	8.802
311.48	8.986
311.85	9.015
312.22	8.325
312.58	8.732
312.95	9.820
313.31	7.864
313.68	9.252
314.05	9.961
314.41	9.246
314.78	7.452
315.14	8.838
315.51	8.033
315.87	9.208
316.24	8.540
316.61	7.797
316.97	8.611
317.34	7.241
317.70	9.082
318.07	8.951
318.43	8.708
318.80	9.278
319.16	9.228
319.53	8.443
319.89	8.857
320.26	8.900
320.62	9.821
320.99	9.192
321.35	8.687
321.72	10.267
322.08	9.970
322.45	9.552
322.81	10.368
323.18	10.405
323.54	9.833
323.91	9.906
324.27	9.560
324.64	9.413
325.00	8.476
325.37	9.736
325.73	10.772
326.10	10.150
326.46	8.781
326.83	10.699
327.19	9.308
327.56	9.843
327.92	9.974
328.29	10.027
328.65	10.405
329.01	10.199
329.38	9.713
329.74	9.695
330.11	9.425
330.47	10.652
330.84	11.765
331.20	9.745
331.56	9.450
331.93	8.426
332.29	9.849
332.66	10.000
333.02	10.146
333.38	10.117
333.75	10.517
334.11	10.943
334.48	9.849
334.84	8.732
335.20	10.182
335.57	9.429
335.93	8.929
336.29	8.700
336.66	10.640
337.02	8.688
337.38	10.000
337.75	9.447
338.11	8.953
338.47	9.576
338.84	10.174
339.20	7.982
339.56	9.854
339.93	9.000
340.29	10.236
340.65	9.180
341.02	10.384
341.38	9.964
341.74	8.421
342.11	10.131
342.47	9.163
342.83	10.188
343.20	10.476
343.56	8.762
343.92	9.474
344.28	9.439
344.65	9.028
345.01	8.418
345.37	8.662
345.73	8.799
346.10	9.378
346.46	9.492
346.82	9.720
347.19	9.440
347.55	9.113
347.91	9.142
348.27	10.025
348.63	9.030
349.00	8.819
349.36	9.195
349.72	9.142
350.08	8.995
350.45	10.334
350.81	9.017
351.17	9.562
351.53	8.927
351.89	8.251
352.26	9.866
352.62	8.661
352.98	9.400
353.34	8.710
353.70	7.365
354.07	9.516
354.43	9.286
354.79	9.493
355.15	8.140
355.51	9.672
355.87	8.816
356.24	8.713
356.60	8.741
356.96	9.010
357.32	9.567
357.68	9.213
358.04	8.868
358.40	8.947
358.77	9.233
359.13	8.524
359.49	9.098
359.85	8.016
360.21	8.054
360.57	8.872
360.93	9.154
361.29	8.692
361.66	8.282
362.02	8.806
362.38	8.897
362.74	9.003
363.10	8.216
363.46	8.070
363.82	7.937
364.18	8.664
364.54	8.915
364.90	8.640
365.26	8.162
365.62	8.035
365.98	8.181
366.35	8.453
366.71	8.460
367.07	8.813
367.43	8.200
367.79	9.208
368.15	8.908
368.51	7.558
368.87	8.637
369.23	7.462
369.59	8.762
369.95	8.088
370.31	9.544
370.67	8.406
371.03	10.112
371.39	8.528
371.75	8.162
372.11	8.677
372.47	8.284
372.83	7.853
373.19	8.237
373.55	8.056
373.91	9.426
374.27	8.591
374.63	8.436
374.99	9.322
375.35	7.746
375.71	8.088
376.07	8.162
376.42	8.872
376.78	8.615
377.14	8.277
377.50	9.007
377.86	7.580
378.22	8.913
378.58	7.456
378.94	8.297
379.30	8.206
379.66	8.693
380.02	8.661
380.38	8.015
380.74	9.124
381.09	8.619
381.45	8.728
381.81	9.029
382.17	8.981
382.53	8.050
382.89	8.333
383.25	7.817
383.61	8.860
383.97	8.005
384.32	8.359
384.68	7.559
385.04	8.974
385.40	7.492
385.76	8.231
386.12	8.873
386.48	8.874
386.83	8.595
387.19	9.091
387.55	9.029
387.91	8.404
388.27	8.768
388.62	8.543
388.98	7.432
389.34	8.698
389.70	9.503
390.06	9.125
390.42	8.755
390.77	8.206
391.13	8.296
391.49	9.264
391.85	8.912
392.20	8.265
392.56	8.396
392.92	8.358
393.28	7.219
393.64	8.333
393.99	8.613
394.35	7.630
394.71	8.657
395.07	8.349
395.42	8.529
395.78	8.651
396.14	8.752
396.50	8.709
396.85	8.455
397.21	8.693
397.57	9.113
397.92	8.714
398.28	8.016
398.64	8.781
399.00	8.562
399.35	7.614
399.71	8.391
400.07	8.279
400.42	8.405
400.78	8.565
401.14	8.415
401.49	8.358
401.85	8.832
402.21	8.623
402.57	8.267
402.92	8.575
403.28	8.869
403.63	9.158
403.99	8.280
404.35	8.667
404.70	7.914
405.06	7.921
405.42	9.170
405.77	8.057
406.13	8.747
406.49	7.865
406.84	8.624
407.20	7.388
407.55	8.360
407.91	8.200
408.27	7.530
408.62	8.429
408.98	8.333
409.34	8.364
409.69	8.065
410.05	8.364
410.40	8.624
410.76	8.363
411.11	8.926
411.47	8.307
411.83	8.919
412.18	8.225
412.54	8.095
412.89	9.518
413.25	8.323
413.60	8.462
413.96	8.257
414.31	8.566
414.67	9.062
415.03	8.742
415.38	8.763
415.74	8.232
416.09	9.079
416.45	8.166
416.80	8.857
417.16	8.981
417.51	8.494
417.87	8.414
418.22	8.770
418.58	9.425
418.93	8.845
419.29	8.912
419.64	9.635
420.00	8.415
420.35	8.464
420.71	8.906
421.06	7.458
421.42	8.363
421.77	7.735
422.12	7.805
422.48	7.663
422.83	8.678
423.19	9.061
423.54	7.835
423.90	9.159
424.25	8.766
424.61	9.107
424.96	8.047
425.31	8.250
425.67	8.202
426.02	7.829
426.38	9.524
426.73	8.660
427.09	8.511
427.44	8.971
427.79	7.936
428.15	9.226
428.50	8.543
428.85	9.178
429.21	7.841
429.56	7.621
429.92	8.505
430.27	7.895
430.62	7.732
430.98	8.614
431.33	8.918
431.68	8.586
432.04	8.626
432.39	8.738
432.74	8.558
433.10	8.263
433.45	8.163
433.80	8.481
434.16	8.280
434.51	8.211
434.86	8.780
435.22	8.616
435.57	8.328
435.92	7.782
436.28	8.244
436.63	9.437
436.98	8.128
437.34	8.766
437.69	9.160
438.04	8.375
438.39	8.239
438.75	9.064
439.10	9.162
439.45	9.327
439.81	8.822
440.16	8.583
440.51	8.553
440.86	8.686
441.22	8.565
441.57	8.121
441.92	7.932
442.27	8.450
442.63	8.847
442.98	9.239
443.33	7.935
443.68	8.157
444.03	8.736
444.39	7.936
444.74	8.766
445.09	8.679
445.44	8.857
445.79	8.313
446.15	9.264
446.50	8.562
446.85	8.171
447.20	9.128
447.55	8.487
447.91	7.998
448.26	8.848
448.61	8.366
448.96	8.749
449.31	8.943
449.66	9.004
450.02	8.635
450.37	8.503
450.72	8.291
451.07	8.714
451.42	8.146
451.77	9.395
452.12	8.891
452.47	8.955
452.83	8.625
453.18	8.802
453.53	9.215
453.88	8.447
454.23	8.727
454.58	9.267
454.93	10.172
455.28	8.167
455.63	8.981
455.98	8.988
456.34	8.857
456.69	8.954
457.04	8.793
457.39	8.708
457.74	8.706
458.09	9.028
458.44	8.381
458.79	7.755
459.14	8.521
459.49	8.465
459.84	9.030
460.19	8.427
460.54	8.565
460.89	8.502
461.24	8.865
461.59	9.006
461.94	8.261
462.29	9.911
462.64	9.381
462.99	8.003
463.34	9.600
463.69	9.193
464.04	9.391
464.39	8.638
464.74	9.329
465.09	9.107
465.44	8.864
465.79	8.333
466.14	8.867
466.49	8.621
466.84	9.399
467.19	8.751
467.54	8.688
467.89	9.064
468.24	9.133
468.59	10.134
468.94	8.369
469.29	9.640
469.64	9.906
469.99	9.269
470.34	8.058
470.68	9.267
471.03	9.864
471.38	10.076
471.73	9.594
472.08	9.934
472.43	9.799
472.78	8.822
473.13	10.013
473.48	9.363
473.83	8.720
474.17	8.463
474.52	9.926
474.87	9.282
475.22	9.054
475.57	8.705
475.92	8.391
476.27	8.794
476.61	9.046
476.96	8.411
477.31	8.687
477.66	9.081
478.01	8.782
478.36	9.149
478.70	7.788
479.05	9.265
479.40	8.956
479.75	8.744
480.10	8.400
480.45	8.139
480.79	7.883
481.14	8.513
481.49	8.495
481.84	8.139
482.19	8.360
482.53	8.211
482.88	7.911
483.23	8.598
483.58	8.371
483.92	8.294
484.27	7.407
484.62	8.017
484.97	8.199
485.31	7.808
485.66	6.809
486.01	6.190
486.36	5.962
486.70	6.003
487.05	6.473
487.40	6.639
487.75	6.627
488.09	7.067
488.44	6.738
488.79	7.667
489.13	8.021
489.48	7.504
489.83	7.769
490.17	8.286
490.52	8.060
490.87	8.186
491.22	8.140
491.56	7.836
491.91	8.423
492.26	7.947
492.60	8.295
492.95	7.858
493.30	8.131
493.64	8.026
493.99	8.171
494.34	8.141
494.68	8.654
495.03	8.365
495.37	8.702
495.72	7.992
496.07	8.445
496.41	8.319
496.76	8.487
497.11	7.969
497.45	7.825
497.80	8.541
498.14	8.454
498.49	7.561
498.84	8.437
499.18	8.143
499.53	8.167
499.87	8.248
500.22	8.008
500.56	8.592
500.91	7.644
501.26	8.156
501.60	8.448
501.95	8.478
502.29	8.669
502.64	8.520
502.98	8.696
503.33	8.410
503.67	8.167
504.02	8.606
504.36	8.844
504.71	8.549
505.06	8.771
505.40	8.313
505.75	7.956
506.09	7.920
506.44	8.732
506.78	8.086
507.13	8.430
507.47	8.990
507.82	8.663
508.16	9.068
508.51	9.031
508.85	9.335
509.19	9.082
509.54	9.235
509.88	9.016
510.23	7.918
510.57	10.062
510.92	9.011
511.26	9.198
511.61	9.647
511.95	8.612
512.30	9.067
512.64	8.974
512.98	9.218
513.33	9.529
513.67	8.858
514.02	8.658
514.36	9.612
514.70	8.467
515.05	8.924
515.39	8.918
515.74	9.516
516.08	9.726
516.42	9.878
516.77	10.312
517.11	9.545
517.46	9.707
517.80	9.582
518.14	9.323
518.49	9.568
518.83	10.000
519.17	9.700
519.52	9.677
519.86	10.040
520.20	10.462
520.55	9.874
520.89	9.246
521.23	10.434
521.58	9.724
521.92	10.349
522.26	9.518
522.61	9.969
522.95	10.190
523.29	9.617
523.64	10.366
523.98	9.982
524.32	10.072
524.66	10.403
525.01	10.110
525.35	9.975
525.69	9.729
526.04	10.156
526.38	10.677
526.72	10.245
527.06	10.421
527.41	9.406
527.75	10.418
528.09	10.340
528.43	10.325
528.78	10.572
529.12	10.061
529.46	10.655
529.80	10.520
530.15	10.717
530.49	10.092
530.83	10.506
531.17	11.292
531.51	11.673
531.86	10.065
532.20	10.887
532.54	11.275
532.88	10.655
533.22	9.619
533.57	10.802
533.91	10.235
534.25	10.632
534.59	10.677
534.93	10.529
535.27	10.139
535.62	10.623
535.96	9.856
536.30	10.299
536.64	10.367
536.98	10.153
537.32	10.270
537.66	9.600
538.01	10.138
538.35	10.537
538.69	11.104
539.03	10.786
539.37	9.712
539.71	9.657
540.05	10.065
540.39	10.631
540.73	9.897
541.07	10.707
541.42	10.372
541.76	10.645
542.10	10.479
542.44	10.066
542.78	11.067
543.12	9.981
543.46	10.820
543.80	10.280
544.14	9.307
544.48	10.159
544.82	9.173
545.16	8.979
545.50	10.283
545.84	9.677
546.18	9.697
546.52	9.911
546.86	10.309
547.20	11.059
547.54	10.688
547.88	11.607
548.22	10.274
548.56	10.377
548.90	9.603
549.24	10.101
549.58	10.709
549.92	10.852
550.26	10.156
550.60	9.751
550.94	9.718
551.28	10.241
551.62	10.424
551.96	9.684
552.30	11.536
552.64	10.480
552.98	10.847
553.32	10.452
553.66	11.179
554.00	10.913
554.34	9.662
554.68	10.014
555.02	11.072
555.36	10.438
555.69	9.608
556.03	9.690
556.37	10.368
556.71	9.754
557.05	10.994
557.39	10.707
557.73	10.868
558.07	10.007
558.41	10.854
558.75	9.993
559.08	11.111
559.42	10.280
559.76	10.735
560.10	10.421
560.44	10.063
560.78	9.914
561.12	9.828
561.45	10.430
561.79	10.218
562.13	9.390
562.47	10.109
562.81	10.112
563.15	10.769
563.48	10.279
563.82	10.241
564.16	9.222
564.50	8.919
564.84	9.545
565.17	9.781
565.51	10.224
565.85	8.883
566.19	9.017
566.52	9.436
566.86	9.042
567.20	9.198
567.54	8.790
567.88	8.093
568.21	9.630
568.55	8.797
568.89	8.123
569.23	7.576
569.56	7.976
569.90	7.623
570.24	7.679
570.57	7.446
570.91	7.337
571.25	7.258
571.59	6.863
571.92	7.143
572.26	7.221
572.60	6.997
572.93	6.777
573.27	7.246
573.61	7.203
573.95	6.848
574.28	6.784
574.62	6.438
574.96	6.260
575.29	6.668
575.63	6.631
575.97	6.769
576.30	7.010
576.64	6.192
576.98	6.344
577.31	6.608
577.65	6.363
577.98	6.212
578.32	6.136
578.66	6.604
578.99	6.277
579.33	6.318
579.67	6.422
580.00	6.665
580.34	6.692
580.67	6.689
581.01	6.949
581.35	6.484
581.68	5.988
582.02	5.825
582.35	6.275
582.69	6.254
583.02	6.152
583.36	6.733
583.70	6.419
584.03	6.740
584.37	6.825
584.70	6.400
585.04	6.556
585.37	6.314
585.71	6.696
586.04	6.499
586.38	6.870
586.72	6.545
587.05	6.792
587.39	6.464
587.72	6.184
588.06	6.163
588.39	6.639
588.73	6.806
589.06	6.949
589.40	7.003
589.73	7.145
590.07	7.402
590.40	7.088
590.73	7.533
591.07	6.960
591.40	7.676
591.74	7.835
592.07	7.504
592.41	7.730
592.74	7.004
593.08	6.696
593.41	7.023
593.75	6.527
594.08	7.476
594.41	7.246
594.75	6.987
595.08	7.158
595.42	7.180
595.75	7.016
596.09	7.172
596.42	7.976
596.75	7.429
597.09	8.312
597.42	7.251
597.75	7.589
598.09	7.652
598.42	7.088
598.76	6.891
599.09	6.347
599.42	7.351
599.76	6.918
600.09	7.250
600.42	6.939
600.76	6.929
601.09	6.703
601.42	6.583
601.76	7.135
602.09	7.273
602.42	7.086
602.76	7.618
603.09	7.199
603.42	7.302
603.76	6.898
604.09	7.057
604.42	7.012
604.76	8.056
605.09	7.514
605.42	7.439
605.75	7.450
606.09	6.710
606.42	6.784
606.75	6.968
607.09	7.869
607.42	6.889
607.75	6.751
608.08	7.078
608.42	8.158
608.75	7.755
609.08	7.678
609.41	7.615
609.75	7.146
610.08	8.011
610.41	7.263
610.74	7.048
611.07	7.757
611.41	8.292
611.74	8.044
612.07	7.764
612.40	7.975
612.73	7.211
613.07	8.621
613.40	8.057
613.73	7.289
614.06	8.011
614.39	8.023
614.72	8.000
615.06	8.613
615.39	7.431
615.72	8.129
616.05	7.337
616.38	7.782
616.71	8.848
617.05	8.539
617.38	7.877
617.71	7.808
618.04	8.413
618.37	8.043
618.70	9.023
619.03	8.816
619.36	8.961
619.69	9.437
620.03	9.478
620.36	9.091
620.69	8.082
621.02	9.218
621.35	8.849
621.68	9.190
622.01	8.204
622.34	9.758
622.67	9.278
623.00	9.538
623.33	8.792
623.66	8.649
623.99	9.205
624.32	8.060
624.65	9.251
624.99	8.144
625.32	9.413
625.65	9.016
625.98	8.762
626.31	9.565
626.64	9.959
626.97	9.726
627.30	9.144
627.63	9.762
627.96	9.167
628.29	9.624
628.62	10.522
628.95	11.604
629.28	10.493
629.61	11.916
629.94	10.095
630.26	9.628
630.59	10.296
630.92	10.536
631.25	10.464
631.58	10.010
631.91	11.156
632.24	10.338
632.57	10.178
632.90	9.759
633.23	9.843
633.56	11.638
633.89	11.665
634.22	10.329
634.55	12.071
634.88	10.299
635.20	13.859
635.53	12.530
635.86	12.748
636.19	10.706
636.52	11.188
636.85	11.684
637.18	9.908
637.51	13.712
637.83	10.234
638.16	11.893
638.49	12.846
638.82	12.769
639.15	13.125
639.48	12.095
639.81	11.796
640.13	12.500
640.46	13.020
640.79	14.003
641.12	11.967
641.45	12.570
641.77	12.224
642.10	13.596
642.43	10.961
642.76	11.610
643.09	13.957
643.41	12.140
643.74	13.889
644.07	12.957
644.40	14.571
644.73	14.173
645.05	13.471
645.38	13.744
645.71	13.849
646.04	13.621
646.36	15.860
646.69	15.385
647.02	13.776
647.35	14.777
647.67	15.752
648.00	15.122
648.33	14.521
648.66	12.273
648.98	13.643
649.31	11.958
649.64	11.360
649.96	14.307
650.29	12.954
650.62	11.974
650.94	13.452
651.27	14.527
651.60	15.641
651.92	16.294
652.25	12.866
652.58	12.617
652.90	13.586
653.23	12.327
653.56	12.283
653.88	14.897
654.21	14.850
654.54	12.211
654.86	12.773
655.19	11.351
655.52	6.695
655.84	4.036
656.17	4.797
656.49	6.466
656.82	6.705
657.15	5.232
657.47	3.912
657.80	3.198
658.13	3.449
658.45	5.053
658.78	5.447
659.10	5.708
659.43	6.297
659.75	6.476
660.08	7.911
660.41	10.521
660.73	12.325
661.06	11.783
661.38	14.909
661.71	16.731
662.03	15.582
662.36	14.314
662.68	15.863
663.01	15.960
663.33	17.410
663.66	15.966
663.98	15.335
664.31	15.546
664.63	14.372
664.96	15.493
665.28	14.959
665.61	14.620
665.93	13.481
666.26	15.416
666.58	15.063
666.91	16.702
667.23	19.101
667.56	15.335
667.88	17.735
668.21	16.205
668.53	14.317
668.86	16.450
669.18	16.205
669.50	16.957
669.83	18.301
670.15	16.000
670.48	13.508
670.80	17.241
671.13	17.410
671.45	15.957
671.77	17.515
672.10	13.863
672.42	15.194
672.75	13.599
673.07	13.556
673.39	12.839
673.72	13.086
674.04	15.882
674.37	17.087
674.69	14.724
675.01	14.854
675.34	18.480
675.66	18.947
675.98	16.904
676.31	16.387
676.63	15.711
676.95	15.514
677.28	13.551
677.60	16.264
677.92	17.089
678.25	16.632
678.57	12.749
678.89	15.230
679.22	15.128
679.54	14.695
679.86	17.615
680.18	11.449
680.51	15.071
680.83	13.879
681.15	16.415
681.48	17.202
681.80	15.474
682.12	13.027
682.44	12.766
682.77	16.090
683.09	17.597
683.41	15.965
683.73	17.219
684.06	16.116
684.38	15.656
684.70	15.891
685.02	16.886
685.34	15.201
685.67	12.413
685.99	13.230
686.31	14.164
686.63	11.484
686.96	14.464
687.28	13.177
687.60	13.043
687.92	14.808
688.24	16.160
688.56	14.257
688.89	15.560
689.21	17.904
689.53	16.284
689.85	15.299
690.17	12.008
690.49	19.108
690.82	16.355
691.14	13.616
691.46	14.346
691.78	16.064
692.10	15.289
692.42	16.367
692.74	13.485
693.06	14.468
693.39	14.579
693.71	15.721
694.03	15.789
694.35	13.636
694.67	16.705
694.99	17.073
695.31	16.176
695.63	16.507
695.95	16.626
696.27	15.482
696.59	16.580
696.91	19.171
697.23	14.789
697.56	17.484
697.88	13.701
698.20	14.167
698.52	15.699
698.84	14.699
699.16	14.747
699.48	14.489
699.80	17.874
700.12	21.299
700.44	16.976
700.76	17.127
701.08	17.816
701.40	18.715
701.72	17.784
702.04	22.443
702.36	16.431
702.68	20.680
703.00	16.066
703.32	17.553
703.64	16.622
703.96	18.384
704.28	17.442
704.60	20.235
704.91	19.288
705.23	19.355
705.55	20.266
705.87	23.920
706.19	23.322
706.51	21.807
706.83	19.091
707.15	22.969
707.47	17.929
707.79	16.953
708.11	15.525
708.43	16.429
708.74	15.306
709.06	19.740
709.38	19.160
709.70	21.221
710.02	20.475
710.34	17.273
710.66	22.687
710.98	19.318
711.29	20.640
711.61	22.419
711.93	21.795
712.25	21.543
712.57	22.059
712.89	19.377
713.20	20.365
713.52	24.342
713.84	22.468
714.16	19.512
714.48	22.414
714.80	24.012
715.11	21.037
715.43	19.288
715.75	21.739
716.07	20.447
716.39	23.197
716.70	24.585
717.02	23.381
717.34	21.555
717.66	25.746
717.97	29.482
718.29	23.704
718.61	24.453
718.93	24.265
719.24	22.145
719.56	23.729
719.88	24.746
720.20	26.351
720.51	23.693
720.83	24.907
721.15	18.284
721.46	26.596
721.78	24.373
722.10	22.642
722.42	26.316
722.73	24.345
723.05	22.541
723.37	22.267
723.68	25.869
724.00	19.919
724.32	22.177
724.63	23.577
724.95	22.594
725.27	24.696
725.58	23.047
725.90	26.277
726.22	23.019
726.53	22.222
726.85	24.232
727.16	24.199
727.48	21.631
727.80	25.379
728.11	23.913
728.43	22.308
728.74	21.864
729.06	27.372
729.38	29.412
729.69	21.708
730.01	16.724
730.32	24.653
730.64	21.739
730.96	19.142
731.27	21.192
731.59	19.572
731.90	20.117
732.22	16.770
732.53	18.576
732.85	19.872
733.16	19.614
733.48	22.259
733.80	22.078
734.11	22.930
734.43	21.302
734.74	18.000
735.06	19.771
735.37	25.145
735.69	19.108
736.00	25.490
736.32	24.299
736.63	18.530
736.95	18.850
737.26	13.946
737.58	20.645
737.89	23.077
738.21	25.256
738.52	22.143
738.83	18.868
739.15	26.538
739.46	25.912
739.78	21.528
740.09	21.846
740.41	24.194
740.72	20.557
741.04	22.963
741.35	24.167
741.66	29.333
741.98	26.415
742.29	32.057
742.61	29.741
742.92	21.719
743.23	26.496
743.55	25.200
743.86	27.632
744.18	33.628
744.49	30.622
744.80	30.516
745.12	31.364
745.43	29.075
745.74	31.081
746.06	27.064
746.37	34.529
746.68	24.434
747.00	28.241
747.31	26.190
747.62	25.664
747.94	29.075
748.25	28.085
748.56	29.956
748.88	27.723
749.19	33.500
749.50	22.326
749.82	24.797
750.13	24.490
750.44	25.182
750.75	22.105
751.07	24.116
751.38	21.603
751.69	22.022
752.01	24.060
752.32	22.744
752.63	23.759
752.94	23.770
753.26	26.400
753.57	21.138
753.88	27.734
754.19	25.357
754.51	23.958
754.82	19.495
755.13	23.019
755.44	22.180
755.75	23.723
756.07	26.241
756.38	21.533
756.69	19.463
757.00	18.862
757.31	19.881
757.63	16.959
757.94	16.622
758.25	17.647
758.56	15.802
758.87	18.548
759.18	17.576
759.50	20.376
759.81	17.445
760.12	17.812
760.43	21.490
760.74	17.120
761.05	18.362
761.36	20.588
761.67	20.170
761.99	18.012
762.30	26.042
762.61	23.664
762.92	26.562
763.23	25.210
763.54	27.200
763.85	19.141
764.16	30.000
764.47	24.715
764.78	21.555
765.10	17.089
765.41	21.829
765.72	19.162
766.03	20.690
766.34	22.667
766.65	32.340
766.96	26.496
767.27	30.964
767.58	32.292
767.89	31.579
768.20	40.230
768.51	29.949
768.82	31.193
769.13	25.610
769.44	27.126
769.75	24.893
770.06	24.312
770.37	28.054
770.68	27.778
770.99	22.667
771.30	22.541
771.61	28.251
771.92	28.689
772.23	29.832
772.54	29.231
772.85	30.890
773.16	32.447
773.47	38.043
773.78	39.086
774.09	28.571
774.39	35.673
774.70	37.654
775.01	44.928
775.32	43.791
775.63	39.474
775.94	34.532
776.25	55.118
776.56	42.537
776.87	40.984
777.18	51.563
777.48	54.198
777.79	40.152
778.10	41.481
778.41	47.321
778.72	37.956
779.03	40.268
779.34	32.886
779.65	33.108
779.95	37.423
780.26	47.712
780.57	41.379
780.88	49.219
781.19	47.368
781.50	48.649
781.80	42.138
782.11	33.898
782.42	35.443
782.73	30.675
783.04	31.757
783.34	43.662
783.65	47.260
783.96	52.239
784.27	39.860
784.57	35.252
784.88	48.148
785.19	46.825
785.50	57.547
785.81	49.254
786.11	50.000
786.42	47.287
786.73	45.133
787.04	66.981
787.34	57.143
787.65	55.000
787.96	41.441
788.26	42.149
788.57	50.847
788.88	54.545
789.19	47.222
789.49	49.242
789.80	54.962
790.11	58.095
790.41	57.426
790.72	59.036
791.03	59.783
791.33	59.302
791.64	59.794
791.95	60.396
792.25	68.889
792.56	63.636
792.87	78.205
793.17	81.013
793.48	71.264
793.79	62.069
794.09	65.909
794.40	53.782
794.70	54.412
795.01	45.185
795.32	45.324
795.62	41.732
795.93	41.379
796.23	53.097
796.54	63.529
796.85	72.973
797.15	83.099
797.46	89.394
797.76	72.289
798.07	75.949
798.37	76.923
798.68	56.061
798.99	63.380
799.29	87.013
799.60	72.727
799.90	73.973
800.21	83.582
800.51	87.931
800.82	117.544
801.12	72.131
801.43	89.394
801.73	74.324
802.04	88.889
802.34	79.012
802.65	96.875
802.95	94.915
803.26	104.688
803.56	70.000
803.87	92.308
804.17	80.882
804.48	94.444
804.78	86.207
805.09	82.353
805.39	111.538
805.70	85.714
806.00	101.639
806.30	84.848
806.61	76.829
806.91	70.886
807.22	61.842
807.52	65.672
807.83	95.775
808.13	93.750
808.43	106.667
808.74	72.368
809.04	97.101
809.35	91.045
809.65	77.632
809.95	90.323
810.26	88.136
810.56	96.825
810.86	131.818
811.17	121.429
811.47	111.667
811.77	100.000
812.08	109.091
812.38	112.000
812.69	150.000
812.99	147.727
813.29	118.367
813.59	76.190
813.90	118.367
814.20	116.364
814.50	92.308
814.81	92.647
815.11	106.122
815.41	101.639
815.72	159.524
816.02	134.545
816.32	145.238
816.62	135.000
816.93	136.585
817.23	130.952
817.53	125.000
817.84	163.636
818.14	130.435
818.44	100.000
818.74	158.824
819.04	130.000
819.35	145.714
819.65	173.529
819.95	160.714
820.25	185.000
820.56	153.846
820.86	134.091
821.16	125.581
821.46	133.333
821.76	110.000
822.07	177.143
822.37	165.000
822.67	142.424
822.97	113.725
823.27	228.571
823.57	137.838
823.88	152.500
824.18	190.000
824.48	140.476
824.78	164.000
825.08	204.167
825.38	164.865
825.69	124.390
825.99	191.667
826.29	162.069
826.59	152.632
826.89	136.842
827.19	182.353
827.49	193.548
827.79	147.727
828.09	143.182
828.39	117.021
828.70	132.653
829.00	155.556
829.30	154.839
829.60	150.000
829.90	280.000
830.20	196.429
830.50	204.348
830.80	208.696
831.10	166.667
831.40	173.333
831.70	186.957
832.00	230.769
832.30	177.778
832.60	331.250
832.90	226.667
833.20	357.143
833.50	219.355
833.80	175.862
834.10	206.250
834.40	196.154
834.70	361.111
835.00	309.524
835.30	168.571
835.60	307.692
835.90	220.690
836.20	357.143
836.50	162.069
836.80	192.000
837.10	169.444
837.40	252.381
837.70	258.824
838.00	203.704
838.30	271.429
838.60	304.762
838.90	250.000
839.19	250.000
839.49	400.000
839.79	280.000
840.09	255.000
840.39	271.429
840.69	226.087
840.99	227.778
841.29	520.000
841.59	366.667
841.88	343.750
842.18	210.345
842.48	280.952
842.78	190.000
843.08	230.435
843.38	168.750
843.68	800.000
843.97	230.769
844.27	213.793
844.57	280.952
844.87	331.250
845.17	222.222
845.47	1466.667
845.76	555.556
846.06	300.000
846.36	475.000
846.66	371.429
846.96	306.250
847.25	427.273
847.55	472.727
847.85	282.609
848.15	430.000
848.44	421.429
848.74	333.333
849.04	305.882
849.34	560.000
849.63	247.368
849.93	436.364
850.23	1060.000
850.53	364.286
850.82	2100.000
851.12	-4600.000
851.42	3800.000
851.71	275.000
852.01	-1400.000
852.31	233.333
852.61	1800.000
852.90	223.810
853.20	244.000
853.50	364.706
853.79	247.619
854.09	233.333
854.39	381.250
854.68	159.459
854.98	183.871
855.28	166.667
855.57	172.414
855.87	177.778
856.17	215.789
856.46	273.333
856.76	294.118
857.05	189.655
857.35	204.167
857.65	373.333
857.94	217.391
858.24	242.308
858.53	285.000
858.83	286.364
859.13	326.667
859.42	0.000
859.72	666.667
860.01	454.545
860.31	277.273
860.60	373.684
860.90	239.130
861.20	477.778
861.49	516.667
861.79	-4800.000
862.08	562.500
862.38	266.667
862.67	369.231
862.97	347.059
863.26	522.222
863.56	266.667
863.85	408.333
864.15	712.500
864.44	400.000
864.74	916.667
865.03	625.000
865.33	331.579
865.62	463.636
865.92	476.923
866.21	375.000
866.51	0.000
866.80	445.455
867.10	1080.000
867.39	438.462
867.69	500.000
867.98	315.789
868.27	527.273
868.57	321.053
868.86	-4700.000
869.16	387.500
869.45	2200.000
869.75	-4800.000
870.04	458.333
870.33	600.000
870.63	1250.000
870.92	2800.000
871.22	828.571
871.51	352.941
871.80	204.762
872.10	400.000
>>>>>End Processed Spectral Data<<<<<
