SpectraSuite Data File
++++++++++++++++++++++++++++++++++++
Date: Wed May 13 19:26:29 PDT 2015
User: schluterlab
Dark Spectrum Present: Yes
Reference Spectrum Present: Yes
Number of Sampled Component Spectra: 1
Spectrometers: USB2E3373
Integration Time (usec): 3000 (USB2E3373)
Spectra Averaged: 3 (USB2E3373)
Boxcar Smoothing: 0 (USB2E3373)
Correct for Electrical Dark: No (USB2E3373)
Strobe/Lamp Enabled: No (USB2E3373)
Correct for Detector Non-linearity: No (USB2E3373)
Correct for Stray Light: No (USB2E3373)
Number of Pixels in Processed Spectrum: 2048
>>>>>Begin Processed Spectral Data<<<<<
178.53	0.000
178.91	-1400.000
179.29	-1325.000
179.67	-244.444
180.04	-1400.000
180.42	2800.000
180.80	1260.000
181.18	-1125.000
181.56	757.143
181.94	0.000
182.31	-700.000
182.69	1800.000
183.07	-625.000
183.45	-588.889
183.83	545.455
184.20	-420.000
184.58	2350.000
184.96	6700.000
185.34	-1140.000
185.72	-500.000
186.09	-2200.000
186.47	2950.000
186.85	2500.000
187.23	5700.000
187.61	-1633.333
187.98	1475.000
188.36	572.727
188.74	490.909
189.12	-960.000
189.49	590.000
189.87	-4800.000
190.25	-1175.000
190.63	457.143
191.00	430.769
191.38	800.000
191.76	-1225.000
192.14	1375.000
192.51	712.500
192.89	1016.667
193.27	612.500
193.65	-1250.000
194.02	520.000
194.40	1060.000
194.78	600.000
195.15	550.000
195.53	650.000
195.91	-2600.000
196.29	362.500
196.66	321.053
197.04	-380.000
197.42	0.000
197.79	660.000
198.17	-5500.000
198.55	757.143
198.92	725.000
199.30	1140.000
199.68	0.000
200.05	383.333
200.43	728.571
200.81	5500.000
201.18	1766.667
201.56	-1600.000
201.94	511.111
202.31	711.111
202.69	408.333
203.07	550.000
203.44	0.000
203.82	1375.000
204.19	785.714
204.57	500.000
204.95	662.500
205.32	1466.667
205.70	572.727
206.08	321.429
206.45	2600.000
206.83	400.000
207.20	1100.000
207.58	1040.000
207.96	350.000
208.33	787.500
208.71	-800.000
209.08	842.857
209.46	655.556
209.84	481.818
210.21	-1266.667
210.59	1600.000
210.96	-475.000
211.34	2650.000
211.71	680.000
212.09	900.000
212.46	0.000
212.84	1600.000
213.22	1300.000
213.59	-3900.000
213.97	1033.333
214.34	828.571
214.72	618.182
215.09	1120.000
215.47	-2400.000
215.84	-2750.000
216.22	1500.000
216.59	471.429
216.97	1300.000
217.34	463.636
217.72	-866.667
218.09	0.000
218.47	-5300.000
218.84	655.556
219.22	757.143
219.59	1500.000
219.97	-685.714
220.34	1080.000
220.72	-1500.000
221.09	378.571
221.47	1275.000
221.84	-1050.000
222.22	0.000
222.59	1450.000
222.97	-2350.000
223.34	1260.000
223.72	461.538
224.09	1120.000
224.46	2300.000
224.84	-5200.000
225.21	-1060.000
225.59	-5700.000
225.96	480.000
226.34	305.000
226.71	2750.000
227.08	700.000
227.46	590.000
227.83	-1200.000
228.21	-2300.000
228.58	655.556
228.95	-2450.000
229.33	-2950.000
229.70	1933.333
230.08	814.286
230.45	-900.000
230.82	466.667
231.20	883.333
231.57	728.571
231.95	525.000
232.32	254.545
232.69	445.455
233.07	685.714
233.44	315.385
233.81	-1800.000
234.19	310.526
234.56	416.667
234.93	425.000
235.31	390.909
235.68	376.923
236.05	435.714
236.43	209.091
236.80	263.158
237.17	5200.000
237.55	238.095
237.92	225.000
238.29	285.714
238.67	193.548
239.04	234.483
239.41	163.889
239.79	132.609
240.16	138.095
240.53	138.636
240.91	113.725
241.28	134.000
241.65	130.000
242.02	98.551
242.40	108.065
242.77	111.667
243.14	81.720
243.51	103.371
243.89	80.000
244.26	80.000
244.63	73.118
245.00	65.957
245.38	81.188
245.75	72.897
246.12	64.220
246.49	67.153
246.87	72.800
247.24	62.308
247.61	57.143
247.98	55.556
248.36	56.757
248.73	58.599
249.10	56.051
249.47	53.672
249.84	57.219
250.22	52.941
250.59	54.438
250.96	54.040
251.33	51.185
251.70	47.030
252.08	47.143
252.45	47.982
252.82	46.087
253.19	49.787
253.56	41.961
253.94	48.548
254.31	41.406
254.68	45.769
255.05	47.601
255.42	40.650
255.79	43.015
256.16	45.848
256.54	37.809
256.91	44.840
257.28	38.489
257.65	39.934
258.02	38.509
258.39	40.694
258.76	38.796
259.14	37.202
259.51	37.386
259.88	36.025
260.25	42.900
260.62	36.416
260.99	37.267
261.36	38.138
261.73	35.817
262.10	40.116
262.47	39.718
262.85	33.426
263.22	33.618
263.59	40.171
263.96	35.165
264.33	36.815
264.70	35.263
265.07	36.317
265.44	34.343
265.81	35.523
266.18	33.417
266.55	33.902
266.92	34.398
267.29	34.491
267.66	34.174
268.03	35.227
268.40	33.645
268.77	31.981
269.14	34.459
269.51	35.214
269.88	34.965
270.25	32.957
270.62	34.382
270.99	33.978
271.36	33.476
271.73	35.280
272.10	31.957
272.47	32.473
272.84	30.303
273.21	32.914
273.58	31.223
273.95	31.447
274.32	30.992
274.69	33.405
275.06	31.693
275.43	34.255
275.80	29.259
276.17	32.994
276.54	33.680
276.91	32.411
277.28	30.469
277.65	29.981
278.02	30.849
278.39	32.227
278.76	29.455
279.13	30.943
279.50	30.726
279.87	32.072
280.23	30.539
280.60	31.721
280.97	30.684
281.34	30.088
281.71	29.455
282.08	32.246
282.45	29.091
282.82	29.840
283.19	29.768
283.56	28.421
283.92	30.118
284.29	29.101
284.66	29.220
285.03	28.933
285.40	28.169
285.77	28.283
286.14	27.979
286.51	28.667
286.87	29.915
287.24	28.339
287.61	29.695
287.98	30.195
288.35	27.100
288.72	26.947
289.08	28.795
289.45	26.194
289.82	28.130
290.19	24.019
290.56	26.953
290.93	25.529
291.29	26.994
291.66	26.696
292.03	26.890
292.40	25.844
292.77	25.296
293.13	24.925
293.50	26.093
293.87	25.481
294.24	23.259
294.60	23.144
294.97	25.291
295.34	24.965
295.71	25.000
296.08	24.644
296.44	23.934
296.81	23.382
297.18	24.390
297.55	22.823
297.91	23.087
298.28	24.632
298.65	22.715
299.02	23.979
299.38	24.701
299.75	20.485
300.12	20.817
300.48	22.750
300.85	22.072
301.22	23.185
301.59	21.338
301.95	23.804
302.32	22.465
302.69	22.581
303.05	20.848
303.42	20.864
303.79	22.650
304.15	21.795
304.52	20.278
304.89	21.603
305.25	20.418
305.62	21.404
305.99	21.724
306.35	20.917
306.72	21.749
307.09	21.532
307.45	22.860
307.82	20.871
308.19	22.075
308.55	21.143
308.92	20.945
309.29	21.119
309.65	20.467
310.02	20.719
310.38	22.043
310.75	22.070
311.12	22.416
311.48	21.630
311.85	23.166
312.22	21.020
312.58	21.622
312.95	21.436
313.31	20.874
313.68	22.141
314.05	24.162
314.41	23.216
314.78	21.752
315.14	21.748
315.51	22.451
315.87	23.267
316.24	23.833
316.61	22.807
316.97	23.483
317.34	22.701
317.70	24.187
318.07	23.965
318.43	24.951
318.80	24.367
319.16	25.424
319.53	25.141
319.89	26.190
320.26	27.300
320.62	27.083
320.99	27.273
321.35	26.263
321.72	28.234
322.08	28.430
322.45	29.652
322.81	27.907
323.18	30.250
323.54	28.386
323.91	27.925
324.27	29.828
324.64	30.196
325.00	30.027
325.37	30.573
325.73	31.059
326.10	30.803
326.46	31.541
326.83	32.873
327.19	32.365
327.56	32.317
327.92	33.246
328.29	34.339
328.65	33.702
329.01	33.484
329.38	33.580
329.74	32.502
330.11	35.627
330.47	34.619
330.84	34.651
331.20	33.607
331.56	34.404
331.93	35.463
332.29	35.138
332.66	34.159
333.02	35.740
333.38	35.682
333.75	35.472
334.11	35.587
334.48	34.605
334.84	36.489
335.20	35.909
335.57	34.723
335.93	34.732
336.29	36.355
336.66	35.347
337.02	34.118
337.38	36.111
337.75	34.492
338.11	35.721
338.47	37.109
338.84	34.555
339.20	34.862
339.56	36.223
339.93	34.545
340.29	35.417
340.65	35.294
341.02	36.213
341.38	35.320
341.74	35.526
342.11	37.642
342.47	36.211
342.83	34.247
343.20	35.238
343.56	35.299
343.92	35.965
344.28	34.609
344.65	36.113
345.01	34.091
345.37	35.592
345.73	35.787
346.10	35.891
346.46	36.695
346.82	36.079
347.19	35.923
347.55	34.729
347.91	35.437
348.27	35.168
348.63	36.371
349.00	36.489
349.36	36.043
349.72	35.525
350.08	35.494
350.45	36.046
350.81	34.200
351.17	33.549
351.53	35.299
351.89	33.993
352.26	34.412
352.62	35.766
352.98	35.981
353.34	36.483
353.70	35.597
354.07	35.887
354.43	35.238
354.79	34.031
355.15	34.078
355.51	35.651
355.87	35.673
356.24	36.238
356.60	34.162
356.96	36.685
357.32	35.078
357.68	34.331
358.04	35.709
358.40	36.025
358.77	35.055
359.13	35.359
359.49	35.216
359.85	35.556
360.21	35.247
360.57	36.498
360.93	36.231
361.29	34.996
361.66	34.365
362.02	35.075
362.38	35.437
362.74	35.193
363.10	35.085
363.46	35.437
363.82	35.147
364.18	34.435
364.54	35.364
364.90	36.402
365.26	35.588
365.62	35.135
365.98	34.332
366.35	34.527
366.71	35.719
367.07	35.615
367.43	36.647
367.79	36.260
368.15	37.141
368.51	35.828
368.87	35.974
369.23	35.113
369.59	36.640
369.95	35.221
370.31	35.185
370.67	35.362
371.03	37.004
371.39	35.714
371.75	36.691
372.11	35.562
372.47	36.950
372.83	37.032
373.19	36.127
373.55	37.472
373.91	37.482
374.27	34.914
374.63	35.636
374.99	36.723
375.35	36.148
375.71	36.052
376.07	36.694
376.42	35.970
376.78	36.779
377.14	35.210
377.50	36.556
377.86	37.367
378.22	36.599
378.58	35.652
378.94	36.455
379.30	36.450
379.66	37.373
380.02	36.486
380.38	36.369
380.74	37.035
381.09	37.164
381.45	37.308
381.81	37.162
382.17	38.471
382.53	37.610
382.89	37.593
383.25	37.086
383.61	38.848
383.97	37.336
384.32	37.742
384.68	36.803
385.04	37.369
385.40	36.718
385.76	37.224
386.12	38.083
386.48	38.326
386.83	38.422
387.19	39.270
387.55	37.724
387.91	38.271
388.27	38.381
388.62	39.213
388.98	37.162
389.34	39.925
389.70	38.013
390.06	39.797
390.42	38.975
390.77	38.422
391.13	38.481
391.49	39.277
391.85	39.083
392.20	39.054
392.56	39.078
392.92	39.082
393.28	38.225
393.64	37.950
393.99	39.829
394.35	39.330
394.71	39.084
395.07	40.062
395.42	39.431
395.78	40.585
396.14	39.541
396.50	40.539
396.85	40.051
397.21	39.149
397.57	40.236
397.92	39.123
398.28	38.285
398.64	39.904
399.00	39.675
399.35	39.199
399.71	39.120
400.07	39.976
400.42	39.816
400.78	40.531
401.14	40.427
401.49	41.731
401.85	39.746
402.21	39.102
402.57	39.852
402.92	40.794
403.28	40.912
403.63	40.347
403.99	40.446
404.35	41.091
404.70	40.348
405.06	40.070
405.42	41.360
405.77	39.486
406.13	39.729
406.49	40.982
406.84	41.110
407.20	40.721
407.55	40.396
407.91	42.400
408.27	42.055
408.62	40.879
408.98	41.422
409.34	41.267
409.69	41.419
410.05	40.954
410.40	42.141
410.76	40.980
411.11	41.315
411.47	42.109
411.83	41.967
412.18	41.682
412.54	42.279
412.89	41.747
413.25	41.027
413.60	42.187
413.96	41.226
414.31	41.920
414.67	42.269
415.03	42.715
415.38	41.881
415.74	42.701
416.09	43.305
416.45	42.303
416.80	43.291
417.16	44.102
417.51	42.203
417.87	41.297
418.22	43.091
418.58	43.577
418.93	44.103
419.29	42.966
419.64	43.577
420.00	42.561
420.35	43.536
420.71	44.053
421.06	42.721
421.42	43.275
421.77	43.442
422.12	42.953
422.48	42.310
422.83	43.448
423.19	43.260
423.54	44.051
423.90	44.464
424.25	43.439
424.61	44.107
424.96	44.257
425.31	43.355
425.67	43.371
426.02	43.714
426.38	45.604
426.73	44.412
427.09	44.742
427.44	44.968
427.79	43.531
428.15	44.583
428.50	45.348
428.85	44.934
429.21	44.837
429.56	44.116
429.92	44.187
430.27	44.687
430.62	44.137
430.98	44.058
431.33	45.155
431.68	45.288
432.04	43.823
432.39	46.088
432.74	44.165
433.10	45.501
433.45	46.297
433.80	44.512
434.16	45.192
434.51	44.632
434.86	45.325
435.22	45.414
435.57	45.167
435.92	45.056
436.28	46.797
436.63	45.806
436.98	45.507
437.34	45.796
437.69	47.083
438.04	46.768
438.39	46.627
438.75	45.962
439.10	46.425
439.45	46.163
439.81	46.586
440.16	45.963
440.51	46.573
440.86	45.397
441.22	45.328
441.57	46.497
441.92	46.622
442.27	46.233
442.63	45.919
442.98	47.099
443.33	47.228
443.68	46.154
444.03	46.413
444.39	45.667
444.74	46.861
445.09	47.601
445.44	45.927
445.79	47.848
446.15	46.638
446.50	46.311
446.85	46.968
447.20	46.558
447.55	46.287
447.91	46.884
448.26	47.190
448.61	47.541
448.96	47.508
449.31	47.132
449.66	46.314
450.02	47.019
450.37	47.449
450.72	46.813
451.07	46.923
451.42	46.687
451.77	47.915
452.12	46.305
452.47	46.766
452.83	47.786
453.18	47.066
453.53	47.866
453.88	46.958
454.23	47.699
454.58	48.395
454.93	49.078
455.28	47.631
455.63	48.422
455.98	48.512
456.34	47.802
456.69	47.339
457.04	48.545
457.39	48.451
457.74	47.359
458.09	46.751
458.44	47.491
458.79	45.662
459.14	48.025
459.49	47.577
459.84	46.427
460.19	48.615
460.54	45.949
460.89	46.956
461.24	48.330
461.59	48.925
461.94	47.781
462.29	48.427
462.64	46.777
462.99	46.714
463.34	48.733
463.69	48.468
464.04	48.290
464.39	47.130
464.74	48.782
465.09	47.226
465.44	47.147
465.79	47.260
466.14	47.400
466.49	47.664
466.84	47.694
467.19	47.435
467.54	47.312
467.89	47.479
468.24	47.993
468.59	47.314
468.94	47.037
469.29	48.715
469.64	48.661
469.99	48.782
470.34	48.811
470.68	47.989
471.03	49.524
471.38	48.853
471.73	47.435
472.08	49.605
472.43	48.807
472.78	48.914
473.13	48.652
473.48	48.939
473.83	47.683
474.17	47.355
474.52	49.069
474.87	47.869
475.22	48.520
475.57	48.039
475.92	48.168
476.27	47.182
476.61	48.483
476.96	48.763
477.31	47.096
477.66	48.195
478.01	48.458
478.36	47.647
478.70	47.196
479.05	47.870
479.40	48.158
479.75	46.975
480.10	48.161
480.45	46.787
480.79	46.727
481.14	47.260
481.49	46.891
481.84	46.731
482.19	47.615
482.53	46.514
482.88	47.371
483.23	46.963
483.58	47.179
483.92	47.095
484.27	46.231
484.62	47.198
484.97	46.275
485.31	46.575
485.66	45.231
486.01	44.049
486.36	42.459
486.70	41.911
487.05	42.129
487.40	43.616
487.75	44.085
488.09	45.496
488.44	44.963
488.79	46.221
489.13	46.562
489.48	45.677
489.83	46.353
490.17	47.304
490.52	46.236
490.87	47.852
491.22	46.612
491.56	46.606
491.91	46.533
492.26	47.083
492.60	46.221
492.95	46.913
493.30	46.963
493.64	46.757
493.99	46.518
494.34	46.947
494.68	47.802
495.03	47.650
495.37	46.394
495.72	48.002
496.07	46.868
496.41	45.575
496.76	47.054
497.11	46.330
497.45	46.577
497.80	47.409
498.14	47.391
498.49	47.756
498.84	47.891
499.18	47.381
499.53	46.724
499.87	46.412
500.22	46.255
500.56	47.039
500.91	46.442
501.26	46.183
501.60	48.173
501.95	46.884
502.29	46.954
502.64	46.043
502.98	47.452
503.33	46.389
503.67	45.615
504.02	46.492
504.36	46.280
504.71	47.338
505.06	47.518
505.40	47.302
505.75	46.914
506.09	46.793
506.44	47.953
506.78	46.907
507.13	47.400
507.47	47.071
507.82	48.734
508.16	47.264
508.51	47.894
508.85	46.723
509.19	48.214
509.54	47.296
509.88	47.038
510.23	47.558
510.57	48.710
510.92	47.229
511.26	46.711
511.61	47.407
511.95	46.816
512.30	46.341
512.64	47.179
512.98	48.232
513.33	47.966
513.67	46.265
514.02	47.511
514.36	48.170
514.70	47.980
515.05	47.630
515.39	47.953
515.74	48.480
516.08	48.966
516.42	49.279
516.77	49.498
517.11	48.058
517.46	48.420
517.80	48.780
518.14	47.771
518.49	49.008
518.83	48.182
519.17	48.037
519.52	48.331
519.86	48.260
520.20	48.266
520.55	50.209
520.89	49.635
521.23	49.156
521.58	48.499
521.92	48.683
522.26	47.468
522.61	49.657
522.95	48.435
523.29	49.665
523.64	49.512
523.98	49.168
524.32	48.311
524.66	48.046
525.01	48.284
525.35	48.327
525.69	47.845
526.04	48.224
526.38	47.529
526.72	48.221
527.06	48.964
527.41	47.525
527.75	49.196
528.09	49.133
528.43	48.948
528.78	50.092
529.12	47.515
529.46	47.826
529.80	48.267
530.15	48.100
530.49	47.938
530.83	48.481
531.17	49.543
531.51	49.741
531.86	48.000
532.20	49.283
532.54	48.495
532.88	47.946
533.22	46.658
533.57	47.654
533.91	47.803
534.25	47.752
534.59	46.858
534.93	47.353
535.27	47.073
535.62	47.436
535.96	48.148
536.30	47.680
536.64	47.972
536.98	48.772
537.32	47.729
537.66	48.000
538.01	47.795
538.35	48.093
538.69	48.500
539.03	46.589
539.37	46.901
539.71	45.301
540.05	46.797
540.39	46.844
540.73	46.701
541.07	47.891
541.42	47.423
541.76	48.000
542.10	46.895
542.44	47.815
542.78	48.617
543.12	44.914
543.46	47.279
543.80	47.951
544.14	46.021
544.48	47.556
544.82	46.953
545.16	47.885
545.50	46.465
545.84	46.237
546.18	47.475
546.52	47.626
546.86	46.529
547.20	47.067
547.54	46.226
547.88	46.620
548.22	46.139
548.56	45.660
548.90	45.967
549.24	45.791
549.58	45.362
549.92	46.635
550.26	47.443
550.60	45.574
550.94	47.042
551.28	46.452
551.62	47.520
551.96	46.035
552.30	46.962
552.64	46.518
552.98	45.492
553.32	46.730
553.66	47.376
554.00	47.220
554.34	46.170
554.68	47.282
555.02	46.756
555.36	46.416
555.69	44.384
556.03	46.299
556.37	46.930
556.71	46.112
557.05	45.028
557.39	47.726
557.73	45.801
558.07	47.353
558.41	45.948
558.75	46.363
559.08	47.054
559.42	47.166
559.76	46.471
560.10	45.967
560.44	46.191
560.78	44.511
561.12	44.987
561.45	45.437
561.79	44.825
562.13	46.479
562.47	45.492
562.81	45.328
563.15	45.151
563.48	44.761
563.82	44.814
564.16	44.212
564.50	44.336
564.84	44.817
565.17	44.530
565.51	44.537
565.85	44.036
566.19	43.582
566.52	44.775
566.86	43.520
567.20	43.868
567.54	43.208
567.88	42.586
568.21	42.698
568.55	42.720
568.89	42.656
569.23	40.731
569.56	40.688
569.90	40.943
570.24	39.792
570.57	39.034
570.91	38.752
571.25	38.450
571.59	38.616
571.92	37.903
572.26	37.955
572.60	38.288
572.93	37.481
573.27	38.184
573.61	38.414
573.95	38.372
574.28	37.965
574.62	37.998
574.96	37.204
575.29	36.857
575.63	37.297
575.97	37.256
576.30	37.387
576.64	37.250
576.98	36.874
577.31	36.969
577.65	36.830
577.98	37.294
578.32	35.902
578.66	36.771
578.99	37.046
579.33	36.383
579.67	36.317
580.00	36.178
580.34	37.209
580.67	36.823
581.01	36.631
581.35	36.776
581.68	36.117
582.02	35.596
582.35	35.678
582.69	36.157
583.02	35.698
583.36	36.638
583.70	36.938
584.03	36.860
584.37	36.680
584.70	37.226
585.04	36.375
585.37	35.904
585.71	36.725
586.04	37.062
586.38	37.069
586.72	37.531
587.05	36.104
587.39	36.596
587.72	36.460
588.06	36.553
588.39	36.818
588.73	36.726
589.06	37.800
589.40	37.744
589.73	38.402
590.07	37.473
590.40	38.254
590.73	38.876
591.07	38.584
591.40	38.127
591.74	38.788
592.07	38.482
592.41	37.991
592.74	37.678
593.08	37.442
593.41	37.045
593.75	36.821
594.08	36.406
594.41	37.080
594.75	38.115
595.08	36.829
595.42	37.618
595.75	36.930
596.09	37.777
596.42	37.721
596.75	37.949
597.09	38.961
597.42	37.395
597.75	37.991
598.09	37.826
598.42	37.371
598.76	36.927
599.09	37.248
599.42	36.863
599.76	37.152
600.09	36.466
600.42	36.085
600.76	36.321
601.09	37.013
601.42	36.834
601.76	36.471
602.09	36.285
602.42	37.261
602.76	37.686
603.09	37.018
603.42	36.783
603.76	36.852
604.09	36.371
604.42	36.975
604.76	37.284
605.09	36.391
605.42	36.597
605.75	36.755
606.09	36.885
606.42	37.393
606.75	36.956
607.09	36.835
607.42	36.628
607.75	36.287
608.08	36.604
608.42	37.158
608.75	36.114
609.08	36.586
609.41	37.030
609.75	38.161
610.08	37.465
610.41	37.803
610.74	37.417
611.07	38.587
611.41	36.506
611.74	38.713
612.07	38.716
612.40	38.667
612.73	37.632
613.07	37.823
613.40	37.651
613.73	36.654
614.06	38.065
614.39	36.969
614.72	38.105
615.06	36.922
615.39	37.049
615.72	36.452
616.05	37.002
616.38	37.688
616.71	38.836
617.05	37.927
617.38	37.763
617.71	38.979
618.04	38.522
618.37	37.788
618.70	38.457
619.03	39.737
619.36	39.308
619.69	39.225
620.03	39.011
620.36	39.104
620.69	40.342
621.02	39.823
621.35	39.781
621.68	39.019
622.01	39.474
622.34	39.486
622.67	39.924
623.00	38.298
623.33	39.171
623.66	38.813
623.99	39.102
624.32	38.516
624.65	38.771
624.99	37.110
625.32	39.754
625.65	38.693
625.98	40.738
626.31	40.202
626.64	40.653
626.97	41.064
627.30	39.734
627.63	39.705
627.96	41.295
628.29	40.332
628.62	41.446
628.95	42.170
629.28	41.332
629.61	41.522
629.94	41.143
630.26	41.373
630.59	40.610
630.92	40.230
631.25	41.165
631.58	41.141
631.91	41.582
632.24	42.932
632.57	42.078
632.90	42.654
633.23	44.519
633.56	43.277
633.89	43.715
634.22	43.814
634.55	44.734
634.88	43.353
635.20	44.086
635.53	42.771
635.86	44.183
636.19	43.176
636.52	44.060
636.85	41.924
637.18	41.705
637.51	42.671
637.83	42.417
638.16	45.524
638.49	45.466
638.82	45.765
639.15	44.250
639.48	42.643
639.81	45.174
640.13	44.792
640.46	44.161
640.79	44.650
641.12	44.292
641.45	42.598
641.77	46.392
642.10	46.053
642.43	45.646
642.76	46.904
643.09	46.166
643.41	46.131
643.74	45.679
644.07	45.122
644.40	45.092
644.73	45.512
645.05	46.910
645.38	46.445
645.71	44.767
646.04	46.346
646.36	49.082
646.69	45.485
647.02	48.980
647.35	46.735
647.67	47.257
648.00	47.805
648.33	44.224
648.66	43.939
648.98	45.427
649.31	41.854
649.64	44.544
649.96	43.219
650.29	46.445
650.62	44.498
650.94	45.867
651.27	44.257
651.60	45.923
651.92	45.527
652.25	43.485
652.58	42.991
652.90	45.024
653.23	44.068
653.56	45.512
653.88	41.680
654.21	44.550
654.54	45.875
654.86	43.302
655.19	39.730
655.52	28.990
655.84	25.828
656.17	33.565
656.49	45.244
656.82	45.408
657.15	34.244
657.47	25.246
657.80	19.077
658.13	20.144
658.45	29.616
658.78	29.739
659.10	30.523
659.43	31.722
659.75	33.184
660.08	36.646
660.41	39.292
660.73	44.091
661.06	44.904
661.38	46.909
661.71	46.731
662.03	46.943
662.36	45.726
662.68	48.193
663.01	48.283
663.33	46.709
663.66	48.109
663.98	48.380
664.31	46.639
664.63	46.356
664.96	43.863
665.28	47.336
665.61	46.199
665.93	46.076
666.26	45.639
666.58	44.979
666.91	48.414
667.23	46.966
667.56	46.652
667.88	47.436
668.21	46.908
668.53	49.675
668.86	42.857
669.18	48.614
669.50	48.478
669.83	47.930
670.15	46.667
670.48	44.227
670.80	45.905
671.13	49.894
671.45	46.809
671.77	45.621
672.10	43.253
672.42	43.640
672.75	41.128
673.07	43.486
673.39	40.687
673.72	45.508
674.04	43.333
674.37	41.748
674.69	42.127
675.01	45.607
675.34	45.585
675.66	48.632
675.98	44.196
676.31	45.588
676.63	44.586
676.95	46.122
677.28	46.963
677.60	48.791
677.92	47.890
678.25	45.996
678.57	45.618
678.89	43.888
679.22	44.401
679.54	45.038
679.86	44.954
680.18	42.755
680.51	44.504
680.83	40.747
681.15	42.642
681.48	43.856
681.80	42.747
682.12	45.402
682.44	40.426
682.77	42.566
683.09	44.850
683.41	46.563
683.73	45.033
684.06	45.041
684.38	42.466
684.70	42.636
685.02	43.902
685.34	41.392
685.67	39.336
685.99	40.722
686.31	39.590
686.63	40.283
686.96	40.536
687.28	39.350
687.60	41.486
687.92	44.424
688.24	41.255
688.56	46.586
688.89	45.643
689.21	46.943
689.53	43.215
689.85	45.011
690.17	41.408
690.49	43.737
690.82	46.495
691.14	43.973
691.46	42.616
691.78	40.361
692.10	44.835
692.42	43.114
692.74	42.946
693.06	44.043
693.39	42.094
693.71	43.450
694.03	44.211
694.35	41.558
694.67	42.792
694.99	44.878
695.31	43.627
695.63	46.651
695.95	45.966
696.27	43.655
696.59	43.782
696.91	49.482
697.23	40.376
697.56	42.217
697.88	41.104
698.20	42.500
698.52	41.075
698.84	41.871
699.16	41.705
699.48	46.793
699.80	42.754
700.12	50.909
700.44	47.745
700.76	48.619
701.08	47.414
701.40	48.045
701.72	48.980
702.04	51.136
702.36	46.742
702.68	48.159
703.00	48.476
703.32	44.149
703.64	45.845
703.96	47.075
704.28	47.384
704.60	49.560
704.91	47.478
705.23	48.387
705.55	53.156
705.87	52.159
706.19	53.004
706.51	48.598
706.83	49.091
707.15	46.218
707.47	43.182
707.79	44.717
708.11	40.868
708.43	45.238
708.74	40.816
709.06	47.792
709.38	42.782
709.70	47.965
710.02	46.588
710.34	46.061
710.66	45.373
710.98	46.023
711.29	44.186
711.61	49.853
711.93	48.077
712.25	51.768
712.57	50.000
712.89	51.903
713.20	47.112
713.52	51.645
713.84	45.886
714.16	47.256
714.48	46.839
714.80	48.936
715.11	46.686
715.43	44.214
715.75	46.087
716.07	50.799
716.39	47.022
716.70	54.153
717.02	47.122
717.34	51.237
717.66	56.343
717.97	55.777
718.29	52.222
718.61	51.095
718.93	50.735
719.24	47.751
719.56	49.153
719.88	49.153
720.20	45.608
720.51	53.310
720.83	51.301
721.15	47.015
721.46	52.482
721.78	43.369
722.10	51.321
722.42	51.504
722.73	53.184
723.05	49.180
723.37	51.822
723.68	53.668
724.00	47.561
724.32	55.242
724.63	51.626
724.95	52.301
725.27	53.441
725.58	51.172
725.90	53.285
726.22	49.811
726.53	48.958
726.85	51.536
727.16	48.754
727.48	50.355
727.80	48.485
728.11	46.377
728.43	48.077
728.74	48.387
729.06	51.460
729.38	48.897
729.69	51.957
730.01	46.758
730.32	47.917
730.64	49.833
730.96	43.234
731.27	46.689
731.59	45.260
731.90	48.397
732.22	43.789
732.53	42.415
732.85	41.667
733.16	44.051
733.48	48.505
733.80	47.078
734.11	47.452
734.43	46.154
734.74	40.571
735.06	40.401
735.37	44.220
735.69	42.675
736.00	46.078
736.32	46.106
736.63	42.173
736.95	46.645
737.26	42.517
737.58	41.613
737.89	44.816
738.21	47.782
738.52	45.000
738.83	46.038
739.15	46.538
739.46	44.891
739.78	48.611
740.09	41.846
740.41	43.871
740.72	44.251
741.04	44.444
741.35	50.833
741.66	59.556
741.98	51.887
742.29	58.852
742.61	54.741
742.92	52.036
743.23	52.991
743.55	49.600
743.86	50.000
744.18	54.867
744.49	56.938
744.80	56.338
745.12	58.182
745.43	51.982
745.74	52.252
746.06	59.633
746.37	51.121
746.68	54.299
747.00	54.630
747.31	54.286
747.62	46.903
747.94	54.626
748.25	47.660
748.56	54.185
748.88	54.950
749.19	59.500
749.50	55.349
749.82	50.813
750.13	42.449
750.44	46.715
750.75	50.526
751.07	45.338
751.38	50.871
751.69	50.903
752.01	43.609
752.32	49.097
752.63	50.000
752.94	49.180
753.26	53.200
753.57	49.187
753.88	47.656
754.19	49.643
754.51	47.569
754.82	44.043
755.13	46.792
755.44	46.992
755.75	45.985
756.07	41.844
756.38	46.350
756.69	47.315
757.00	41.018
757.31	41.246
757.63	37.719
757.94	37.802
758.25	38.235
758.56	37.531
758.87	37.634
759.18	44.242
759.50	36.050
759.81	39.875
760.12	39.062
760.43	41.834
760.74	39.674
761.05	39.266
761.36	36.096
761.67	40.909
761.99	44.410
762.30	41.319
762.61	50.763
762.92	46.875
763.23	47.059
763.54	46.000
763.85	46.484
764.16	50.000
764.47	39.163
764.78	38.869
765.10	39.241
765.41	43.363
765.72	40.719
766.03	42.006
766.34	42.333
766.65	46.809
766.96	49.145
767.27	54.822
767.58	54.167
767.89	57.895
768.20	63.793
768.51	50.761
768.82	55.046
769.13	43.089
769.44	42.915
769.75	49.785
770.06	50.917
770.37	49.774
770.68	50.926
770.99	51.111
771.30	43.443
771.61	49.327
771.92	45.492
772.23	52.941
772.54	52.821
772.85	58.639
773.16	57.979
773.47	58.696
773.78	57.360
774.09	58.929
774.39	65.497
774.70	59.259
775.01	65.217
775.32	67.974
775.63	62.500
775.94	59.712
776.25	70.866
776.56	72.388
776.87	68.033
777.18	70.313
777.48	67.939
777.79	66.667
778.10	62.963
778.41	71.429
778.72	61.314
779.03	61.074
779.34	58.389
779.65	65.541
779.95	57.055
780.26	59.477
780.57	64.828
780.88	70.312
781.19	63.158
781.50	66.892
781.80	56.604
782.11	52.542
782.42	53.797
782.73	49.693
783.04	59.459
783.34	66.901
783.65	69.863
783.96	70.149
784.27	58.042
784.57	60.432
784.88	66.667
785.19	66.667
785.50	72.642
785.81	74.627
786.11	68.033
786.42	68.217
786.73	68.142
787.04	79.245
787.34	70.536
787.65	71.000
787.96	72.072
788.26	61.157
788.57	77.119
788.88	68.595
789.19	63.889
789.49	78.030
789.80	63.359
790.11	84.762
790.41	82.178
790.72	92.771
791.03	84.783
791.33	76.744
791.64	71.134
791.95	75.248
792.25	84.444
792.56	97.403
792.87	112.821
793.17	103.797
793.48	96.552
793.79	74.713
794.09	87.500
794.40	65.546
794.70	69.853
795.01	52.593
795.32	62.590
795.62	67.717
795.93	76.724
796.23	67.257
796.54	88.235
796.85	93.243
797.15	111.268
797.46	100.000
797.76	108.434
798.07	83.544
798.37	101.538
798.68	103.030
798.99	78.873
799.29	90.909
799.60	79.545
799.90	102.740
800.21	101.493
800.51	118.966
800.82	126.316
801.12	113.115
801.43	106.061
801.73	85.135
802.04	112.698
802.34	88.889
802.65	107.812
802.95	110.169
803.26	129.688
803.56	92.857
803.87	92.308
804.17	108.824
804.48	118.519
804.78	115.517
805.09	110.294
805.39	121.154
805.70	121.429
806.00	109.836
806.30	101.515
806.61	96.341
806.91	87.342
807.22	98.684
807.52	91.045
807.83	94.366
808.13	101.563
808.43	121.667
808.74	88.158
809.04	98.551
809.35	108.955
809.65	89.474
809.95	132.258
810.26	111.864
810.56	109.524
810.86	145.455
811.17	152.381
811.47	118.333
811.77	131.481
812.08	116.364
812.38	136.000
812.69	172.222
812.99	150.000
813.29	128.571
813.59	102.381
813.90	132.653
814.20	120.000
814.50	84.615
814.81	104.412
815.11	126.531
815.41	104.918
815.72	171.429
816.02	127.273
816.32	152.381
816.62	167.500
816.93	163.415
817.23	169.048
817.53	140.909
817.84	203.030
818.14	154.348
818.44	140.000
818.74	179.412
819.04	165.000
819.35	188.571
819.65	205.882
819.95	210.714
820.25	245.000
820.56	171.795
820.86	134.091
821.16	169.767
821.46	151.282
821.76	150.000
822.07	214.286
822.37	167.500
822.67	151.515
822.97	137.255
823.27	239.286
823.57	162.162
823.88	170.000
824.18	210.000
824.48	169.048
824.78	212.000
825.08	204.167
825.38	175.676
825.69	173.171
825.99	216.667
826.29	217.241
826.59	184.211
826.89	165.789
827.19	188.235
827.49	174.194
827.79	159.091
828.09	143.182
828.39	138.298
828.70	134.694
829.00	214.815
829.30	161.290
829.60	175.000
829.90	346.667
830.20	207.143
830.50	200.000
830.80	221.739
831.10	216.667
831.40	210.000
831.70	234.783
832.00	226.923
832.30	185.185
832.60	331.250
832.90	193.333
833.20	464.286
833.50	174.194
833.80	213.793
834.10	206.250
834.40	261.538
834.70	288.889
835.00	304.762
835.30	188.571
835.60	423.077
835.90	193.103
836.20	328.571
836.50	196.552
836.80	220.000
837.10	183.333
837.40	276.190
837.70	347.059
838.00	203.704
838.30	257.143
838.60	285.714
838.90	253.846
839.19	310.000
839.49	371.429
839.79	325.000
840.09	275.000
840.39	233.333
840.69	252.174
840.99	322.222
841.29	620.000
841.59	441.667
841.88	331.250
842.18	193.103
842.48	276.190
842.78	193.333
843.08	217.391
843.38	184.375
843.68	1050.000
843.97	250.000
844.27	172.414
844.57	295.238
844.87	362.500
845.17	244.444
845.47	1800.000
845.76	566.667
846.06	335.294
846.36	487.500
846.66	414.286
846.96	306.250
847.25	436.364
847.55	490.909
847.85	300.000
848.15	490.000
848.44	428.571
848.74	288.889
849.04	311.765
849.34	550.000
849.63	242.105
849.93	545.455
850.23	1180.000
850.53	450.000
850.82	2600.000
851.12	-4900.000
851.42	4900.000
851.71	310.000
852.01	-1666.667
852.31	229.167
852.61	1766.667
852.90	257.143
853.20	256.000
853.50	364.706
853.79	304.762
854.09	237.500
854.39	300.000
854.68	181.081
854.98	193.548
855.28	213.333
855.57	203.448
855.87	237.037
856.17	268.421
856.46	300.000
856.76	252.941
857.05	224.138
857.35	237.500
857.65	353.333
857.94	234.783
858.24	219.231
858.53	320.000
858.83	259.091
859.13	313.333
859.42	0.000
859.72	544.444
860.01	463.636
860.31	254.545
860.60	310.526
860.90	195.652
861.20	522.222
861.49	541.667
861.79	-4300.000
862.08	712.500
862.38	290.476
862.67	361.538
862.97	347.059
863.26	677.778
863.56	305.556
863.85	458.333
864.15	675.000
864.44	420.000
864.74	750.000
865.03	837.500
865.33	368.421
865.62	463.636
865.92	438.462
866.21	475.000
866.51	0.000
866.80	454.545
867.10	1140.000
867.39	400.000
867.69	454.545
867.98	305.263
868.27	509.091
868.57	289.474
868.86	-5200.000
869.16	425.000
869.45	2050.000
869.75	-5000.000
870.04	475.000
870.33	700.000
870.63	1175.000
870.92	2800.000
871.22	885.714
871.51	347.059
871.80	252.381
872.10	385.714
>>>>>End Processed Spectral Data<<<<<
