SpectraSuite Data File
++++++++++++++++++++++++++++++++++++
Date: Wed May 13 19:37:18 PDT 2015
User: schluterlab
Dark Spectrum Present: Yes
Reference Spectrum Present: Yes
Number of Sampled Component Spectra: 1
Spectrometers: USB2E3373
Integration Time (usec): 3000 (USB2E3373)
Spectra Averaged: 3 (USB2E3373)
Boxcar Smoothing: 0 (USB2E3373)
Correct for Electrical Dark: No (USB2E3373)
Strobe/Lamp Enabled: No (USB2E3373)
Correct for Detector Non-linearity: No (USB2E3373)
Correct for Stray Light: No (USB2E3373)
Number of Pixels in Processed Spectrum: 2048
>>>>>Begin Processed Spectral Data<<<<<
178.53	0.000
178.91	-1525.000
179.29	-1325.000
179.67	-261.111
180.04	-1300.000
180.42	2900.000
180.80	1100.000
181.18	-1225.000
181.56	657.143
181.94	0.000
182.31	-757.143
182.69	2133.333
183.07	-575.000
183.45	-444.444
183.83	590.909
184.20	-510.000
184.58	2300.000
184.96	6000.000
185.34	-1140.000
185.72	-675.000
186.09	-2500.000
186.47	2750.000
186.85	2750.000
187.23	6000.000
187.61	-1900.000
187.98	1625.000
188.36	536.364
188.74	581.818
189.12	-1040.000
189.49	670.000
189.87	-5700.000
190.25	-1200.000
190.63	464.286
191.00	446.154
191.38	950.000
191.76	-1225.000
192.14	1375.000
192.51	637.500
192.89	1000.000
193.27	612.500
193.65	-1125.000
194.02	570.000
194.40	980.000
194.78	570.000
195.15	583.333
195.53	570.000
195.91	-2450.000
196.29	375.000
196.66	373.684
197.04	-410.000
197.42	0.000
197.79	750.000
198.17	-5100.000
198.55	885.714
198.92	687.500
199.30	960.000
199.68	0.000
200.05	366.667
200.43	800.000
200.81	5900.000
201.18	1733.333
201.56	-1633.333
201.94	655.556
202.31	644.444
202.69	558.333
203.07	560.000
203.44	0.000
203.82	1325.000
204.19	885.714
204.57	514.286
204.95	612.500
205.32	2100.000
205.70	490.909
206.08	371.429
206.45	2400.000
206.83	393.750
207.20	950.000
207.58	820.000
207.96	394.444
208.33	825.000
208.71	-1100.000
209.08	828.571
209.46	711.111
209.84	572.727
210.21	-1466.667
210.59	1575.000
210.96	-575.000
211.34	2700.000
211.71	630.000
212.09	800.000
212.46	0.000
212.84	1733.333
213.22	1400.000
213.59	-4400.000
213.97	783.333
214.34	971.429
214.72	609.091
215.09	1160.000
215.47	-2450.000
215.84	-2750.000
216.22	2000.000
216.59	428.571
216.97	1425.000
217.34	518.182
217.72	-750.000
218.09	0.000
218.47	-4200.000
218.84	733.333
219.22	871.429
219.59	2033.333
219.97	-628.571
220.34	940.000
220.72	-1800.000
221.09	435.714
221.47	1400.000
221.84	-1050.000
222.22	0.000
222.59	1525.000
222.97	-2850.000
223.34	1080.000
223.72	438.462
224.09	1120.000
224.46	2250.000
224.84	-5400.000
225.21	-1000.000
225.59	-5000.000
225.96	670.000
226.34	335.000
226.71	3200.000
227.08	762.500
227.46	730.000
227.83	-1200.000
228.21	-2150.000
228.58	688.889
228.95	-2800.000
229.33	-2500.000
229.70	1933.333
230.08	914.286
230.45	-940.000
230.82	450.000
231.20	950.000
231.57	642.857
231.95	483.333
232.32	245.455
232.69	354.545
233.07	857.143
233.44	430.769
233.81	-1633.333
234.19	336.842
234.56	508.333
234.93	391.667
235.31	563.636
235.68	353.846
236.05	385.714
236.43	206.061
236.80	247.368
237.17	5400.000
237.55	276.190
237.92	232.143
238.29	219.048
238.67	164.516
239.04	193.103
239.41	141.667
239.79	119.565
240.16	126.190
240.53	138.636
240.91	86.275
241.28	100.000
241.65	104.000
242.02	86.957
242.40	74.194
242.77	78.333
243.14	56.989
243.51	67.416
243.89	55.294
244.26	64.444
244.63	70.968
245.00	54.255
245.38	52.475
245.75	50.467
246.12	54.128
246.49	53.285
246.87	52.800
247.24	42.308
247.61	43.571
247.98	41.830
248.36	32.432
248.73	40.127
249.10	40.127
249.47	34.463
249.84	36.364
250.22	26.203
250.59	33.136
250.96	32.828
251.33	32.227
251.70	33.663
252.08	25.714
252.45	26.457
252.82	23.478
253.19	31.064
253.56	26.667
253.94	26.556
254.31	30.859
254.68	25.385
255.05	27.675
255.42	22.764
255.79	22.059
256.16	25.271
256.54	21.555
256.91	22.064
257.28	19.065
257.65	23.432
258.02	21.429
258.39	20.820
258.76	17.391
259.14	19.940
259.51	20.973
259.88	18.323
260.25	19.940
260.62	21.676
260.99	18.323
261.36	21.021
261.73	16.905
262.10	16.570
262.47	17.183
262.85	20.056
263.22	13.105
263.59	20.228
263.96	19.231
264.33	20.888
264.70	17.105
265.07	15.857
265.44	13.636
265.81	15.815
266.18	16.332
266.55	14.146
266.92	14.251
267.29	16.898
267.66	15.596
268.03	17.273
268.40	16.355
268.77	16.706
269.14	17.117
269.51	16.930
269.88	16.550
270.25	15.801
270.62	16.180
270.99	16.989
271.36	15.236
271.73	14.486
272.10	16.087
272.47	16.129
272.84	17.532
273.21	13.417
273.58	13.100
273.95	12.788
274.32	13.223
274.69	13.062
275.06	12.598
275.43	13.617
275.80	13.828
276.17	14.053
276.54	12.474
276.91	14.229
277.28	14.844
277.65	14.700
278.02	12.629
278.39	14.453
278.76	13.455
279.13	12.830
279.50	13.780
279.87	11.155
280.23	11.976
280.60	10.251
280.97	11.275
281.34	13.805
281.71	15.273
282.08	12.476
282.45	12.909
282.82	12.078
283.19	11.408
283.56	11.579
283.92	13.706
284.29	12.169
284.66	11.252
285.03	12.297
285.40	12.324
285.77	12.458
286.14	9.672
286.51	11.500
286.87	11.795
287.24	13.192
287.61	12.520
287.98	11.201
288.35	11.569
288.72	10.748
289.08	12.989
289.45	10.214
289.82	11.220
290.19	8.791
290.56	11.332
290.93	9.819
291.29	10.123
291.66	11.209
292.03	11.628
292.40	12.482
292.77	10.651
293.13	10.299
293.50	12.099
293.87	9.926
294.24	9.926
294.60	8.443
294.97	10.465
295.34	10.719
295.71	12.074
296.08	9.829
296.44	9.904
296.81	9.115
297.18	10.298
297.55	6.860
297.91	9.631
298.28	11.379
298.65	11.749
299.02	11.199
299.38	9.562
299.75	7.817
300.12	9.068
300.48	9.625
300.85	9.864
301.22	9.682
301.59	9.722
301.95	9.950
302.32	8.986
302.69	8.722
303.05	7.879
303.42	9.136
303.79	10.419
304.15	8.042
304.52	9.154
304.89	7.898
305.25	8.585
305.62	8.267
305.99	9.681
306.35	9.396
306.72	10.202
307.09	8.213
307.45	10.023
307.82	8.259
308.19	8.940
308.55	9.493
308.92	8.378
309.29	8.765
309.65	7.847
310.02	8.562
310.38	8.065
310.75	8.342
311.12	7.677
311.48	8.986
311.85	8.386
312.22	8.221
312.58	8.316
312.95	8.765
313.31	8.544
313.68	9.044
314.05	9.566
314.41	8.945
314.78	9.466
315.14	8.441
315.51	8.548
315.87	9.703
316.24	10.129
316.61	8.382
316.97	9.100
317.34	8.708
317.70	10.229
318.07	10.010
318.43	9.785
318.80	11.246
319.16	8.945
319.53	8.912
319.89	10.476
320.26	10.400
320.62	10.218
320.99	9.596
321.35	10.404
321.72	9.651
322.08	11.056
322.45	11.642
322.81	10.174
323.18	10.790
323.54	10.482
323.91	10.566
324.27	10.899
324.64	10.811
325.00	9.468
325.37	11.374
325.73	11.311
326.10	11.386
326.46	10.753
326.83	10.699
327.19	11.699
327.56	11.760
327.92	10.061
328.29	11.979
328.65	11.234
329.01	11.372
329.38	11.193
329.74	11.542
330.11	10.462
330.47	12.213
330.84	12.960
331.20	11.658
331.56	10.917
331.93	11.296
332.29	11.801
332.66	11.681
333.02	11.060
333.38	11.472
333.75	12.478
334.11	12.278
334.48	10.914
334.84	11.213
335.20	11.545
335.57	12.149
335.93	10.893
336.29	11.264
336.66	10.280
337.02	11.131
337.38	12.037
337.75	10.963
338.11	11.728
338.47	10.958
338.84	12.741
339.20	11.651
339.56	12.409
339.93	10.909
340.29	11.594
340.65	11.586
341.02	11.606
341.38	12.011
341.74	9.561
342.11	12.314
342.47	11.454
342.83	11.901
343.20	12.381
343.56	10.952
343.92	10.351
344.28	11.224
344.65	11.522
345.01	10.101
345.37	10.549
345.73	10.237
346.10	10.912
346.46	11.949
346.82	11.450
347.19	10.526
347.55	11.002
347.91	11.731
348.27	11.093
348.63	11.455
349.00	11.408
349.36	10.509
349.72	11.147
350.08	10.049
350.45	11.554
350.81	11.373
351.17	11.588
351.53	10.729
351.89	10.396
352.26	12.628
352.62	11.147
352.98	11.426
353.34	11.011
353.70	10.229
354.07	12.258
354.43	11.270
354.79	11.504
355.15	11.652
355.51	11.591
355.87	11.429
356.24	10.912
356.60	10.906
356.96	9.976
357.32	11.120
357.68	12.362
358.04	11.164
358.40	12.352
358.77	11.737
359.13	10.024
359.49	11.843
359.85	10.238
360.21	10.845
360.57	10.973
360.93	11.154
361.29	11.565
361.66	10.449
362.02	11.567
362.38	11.103
362.74	11.905
363.10	10.363
363.46	11.445
363.82	10.204
364.18	11.307
364.54	12.110
364.90	12.181
365.26	10.074
365.62	11.322
365.98	10.957
366.35	10.745
366.71	11.424
367.07	11.143
367.43	11.756
367.79	11.349
368.15	12.644
368.51	10.974
368.87	11.849
369.23	12.070
369.59	12.600
369.95	11.618
370.31	11.681
370.67	11.087
371.03	11.760
371.39	11.808
371.75	11.985
372.11	11.166
372.47	11.657
372.83	12.464
373.19	11.488
373.55	11.899
373.91	12.666
374.27	10.928
374.63	11.636
374.99	12.429
375.35	10.886
375.71	11.926
376.07	12.003
376.42	11.486
376.78	12.989
377.14	11.805
377.50	11.788
377.86	11.835
378.22	12.579
378.58	11.216
378.94	11.439
379.30	11.450
379.66	11.675
380.02	11.671
380.38	11.961
380.74	11.405
381.09	11.919
381.45	11.801
381.81	12.469
382.17	12.229
382.53	11.950
382.89	12.037
383.25	10.882
383.61	12.144
383.97	12.508
384.32	11.915
384.68	11.772
385.04	12.231
385.40	12.074
385.76	11.732
386.12	11.334
386.48	13.027
386.83	13.406
387.19	13.667
387.55	12.987
387.91	12.455
388.27	11.956
388.62	13.215
388.98	12.162
389.34	13.705
389.70	12.324
390.06	12.801
390.42	13.230
390.77	13.359
391.13	13.019
391.49	12.754
391.85	12.794
392.20	12.177
392.56	12.626
392.92	12.831
393.28	11.538
393.64	13.129
393.99	13.012
394.35	11.911
394.71	12.798
395.07	13.084
395.42	12.670
395.78	13.295
396.14	13.346
396.50	13.346
396.85	13.414
397.21	12.269
397.57	13.267
397.92	13.281
398.28	12.556
398.64	12.784
399.00	12.591
399.35	12.296
399.71	12.500
400.07	12.123
400.42	13.190
400.78	13.329
401.14	13.110
401.49	13.313
401.85	12.462
402.21	12.754
402.57	12.400
402.92	12.863
403.28	13.117
403.63	12.438
403.99	12.803
404.35	12.182
404.70	13.309
405.06	12.580
405.42	12.976
405.77	12.457
406.13	12.867
406.49	13.365
406.84	12.758
407.20	12.293
407.55	12.380
407.91	12.667
408.27	12.763
408.62	12.462
408.98	13.480
409.34	12.608
409.69	13.548
410.05	13.135
410.40	13.761
410.76	12.605
411.11	13.269
411.47	12.268
411.83	12.951
412.18	12.492
412.54	13.263
412.89	13.072
413.25	13.400
413.60	13.218
413.96	12.993
414.31	12.940
414.67	13.371
415.03	13.113
415.38	13.273
415.74	13.762
416.09	13.325
416.45	12.985
416.80	13.087
417.16	14.812
417.51	13.935
417.87	13.423
418.22	13.943
418.58	14.074
418.93	12.961
419.29	14.386
419.64	14.358
420.00	13.537
420.35	13.565
420.71	14.106
421.06	14.081
421.42	12.865
421.77	13.677
422.12	12.521
422.48	13.060
422.83	13.920
423.19	13.481
423.54	12.768
423.90	13.507
424.25	14.238
424.61	14.226
424.96	13.994
425.31	13.787
425.67	13.371
426.02	13.086
426.38	14.042
426.73	13.049
427.09	13.313
427.44	13.916
427.79	13.226
428.15	14.048
428.50	13.341
428.85	14.541
429.21	13.694
429.56	13.738
429.92	13.689
430.27	12.910
430.62	12.494
430.98	13.700
431.33	14.124
431.68	13.613
432.04	13.685
432.39	13.878
432.74	14.602
433.10	13.865
433.45	14.810
433.80	13.525
434.16	13.942
434.51	14.000
434.86	14.424
435.22	13.174
435.57	14.225
435.92	12.932
436.28	14.353
436.63	15.011
436.98	13.509
437.34	14.550
437.69	15.111
438.04	14.896
438.39	13.731
438.75	14.933
439.10	14.358
439.45	14.227
439.81	14.320
440.16	14.568
440.51	14.880
440.86	14.823
441.22	13.960
441.57	14.437
441.92	14.278
442.27	14.370
442.63	14.060
442.98	14.085
443.33	14.783
443.68	14.404
444.03	14.788
444.39	13.632
444.74	14.665
445.09	14.987
445.44	14.379
445.79	14.250
446.15	14.505
446.50	13.840
446.85	14.337
447.20	14.635
447.55	14.015
447.91	14.672
448.26	14.802
448.61	15.206
448.96	15.006
449.31	15.017
449.66	15.025
450.02	14.039
450.37	14.002
450.72	14.439
451.07	13.711
451.42	15.198
451.77	15.619
452.12	14.434
452.47	14.179
452.83	13.986
453.18	15.281
453.53	15.213
453.88	15.003
454.23	14.345
454.58	15.627
454.93	15.957
455.28	14.713
455.63	14.988
455.98	14.881
456.34	14.698
456.69	15.654
457.04	14.923
457.39	14.728
457.74	14.568
458.09	15.124
458.44	14.652
458.79	13.612
459.14	14.108
459.49	14.653
459.84	14.571
460.19	14.260
460.54	13.947
460.89	14.482
461.24	15.179
461.59	15.224
461.94	14.180
462.29	15.786
462.64	14.678
462.99	14.314
463.34	15.467
463.69	15.009
464.04	14.841
464.39	14.899
464.74	14.141
465.09	14.596
465.44	13.684
465.79	13.758
466.14	14.559
466.49	14.516
466.84	14.945
467.19	14.967
467.54	14.938
467.89	14.406
468.24	14.485
468.59	15.140
468.94	14.111
469.29	15.424
469.64	15.663
469.99	14.614
470.34	14.465
470.68	14.727
471.03	14.898
471.38	15.705
471.73	14.390
472.08	15.263
472.43	14.761
472.78	14.812
473.13	14.442
473.48	14.732
473.83	13.598
474.17	14.375
474.52	15.509
474.87	14.594
475.22	14.393
475.57	13.541
475.92	14.126
476.27	14.431
476.61	14.341
476.96	14.074
477.31	13.553
477.66	14.223
478.01	14.009
478.36	14.172
478.70	13.603
479.05	14.856
479.40	13.767
479.75	14.235
480.10	13.718
480.45	13.279
480.79	13.139
481.14	13.650
481.49	13.384
481.84	13.443
482.19	13.130
482.53	13.257
482.88	13.448
483.23	13.364
483.58	13.558
483.92	13.449
484.27	12.113
484.62	12.888
484.97	12.929
485.31	12.432
485.66	11.382
486.01	10.667
486.36	10.538
486.70	10.597
487.05	11.367
487.40	11.313
487.75	11.802
488.09	12.254
488.44	12.442
488.79	12.694
489.13	13.369
489.48	12.928
489.83	12.732
490.17	13.415
490.52	12.888
490.87	13.930
491.22	12.597
491.56	12.483
491.91	12.936
492.26	12.724
492.60	12.627
492.95	12.348
493.30	12.710
493.64	13.066
493.99	11.838
494.34	13.182
494.68	13.187
495.03	12.782
495.37	12.657
495.72	12.622
496.07	12.761
496.41	11.593
496.76	12.313
497.11	12.292
497.45	12.576
497.80	12.668
498.14	12.222
498.49	12.732
498.84	12.752
499.18	12.762
499.53	12.915
499.87	12.022
500.22	12.388
500.56	12.621
500.91	12.067
501.26	12.328
501.60	12.530
501.95	12.557
502.29	12.887
502.64	12.756
502.98	12.062
503.33	11.654
503.67	12.575
504.02	12.535
504.36	12.541
504.71	12.213
505.06	12.530
505.40	12.348
505.75	11.668
506.09	12.196
506.44	12.136
506.78	12.226
507.13	11.863
507.47	12.879
507.82	12.867
508.16	12.563
508.51	12.887
508.85	11.817
509.19	12.602
509.54	12.092
509.88	12.725
510.23	11.877
510.57	13.777
510.92	12.584
511.26	12.487
511.61	12.967
511.95	12.474
512.30	12.195
512.64	13.111
512.98	13.344
513.33	12.901
513.67	12.220
514.02	12.338
514.36	12.780
514.70	13.060
515.05	11.545
515.39	12.675
515.74	12.162
516.08	13.695
516.42	12.986
516.77	13.322
517.11	12.653
517.46	13.657
517.80	12.892
518.14	12.565
518.49	12.602
518.83	13.352
519.17	12.471
519.52	12.168
519.86	12.721
520.20	13.410
520.55	13.704
520.89	13.443
521.23	13.088
521.58	13.145
521.92	12.860
522.26	13.545
522.61	13.333
522.95	12.400
523.29	13.147
523.64	13.232
523.98	14.233
524.32	12.364
524.66	12.868
525.01	13.909
525.35	12.577
525.69	12.438
526.04	12.773
526.38	12.630
526.72	13.129
527.06	13.245
527.41	12.376
527.75	12.605
528.09	13.809
528.43	13.321
528.78	13.645
529.12	12.848
529.46	13.227
529.80	12.933
530.15	12.648
530.49	12.923
530.83	13.608
531.17	13.381
531.51	13.424
531.86	12.903
532.20	13.299
532.54	13.645
532.88	13.415
533.22	11.868
533.57	12.901
533.91	13.185
534.25	12.697
534.59	12.874
534.93	12.612
535.27	12.372
535.62	12.332
535.96	13.308
536.30	12.842
536.64	13.007
536.98	13.271
537.32	12.640
537.66	13.333
538.01	12.640
538.35	14.415
538.69	13.976
539.03	12.281
539.37	12.268
539.71	11.406
540.05	12.418
540.39	12.625
540.73	12.549
541.07	12.784
541.42	12.851
541.76	12.774
542.10	12.613
542.44	12.384
542.78	12.912
543.12	12.732
543.46	12.984
543.80	14.053
544.14	11.617
544.48	13.206
544.82	12.572
545.16	12.947
545.50	12.725
545.84	12.164
546.18	13.401
546.52	12.801
546.86	12.234
547.20	12.744
547.54	12.959
547.88	13.265
548.22	12.142
548.56	12.453
548.90	11.844
549.24	12.121
549.58	13.097
549.92	12.637
550.26	13.068
550.60	12.656
550.94	12.324
551.28	11.851
551.62	13.012
551.96	11.649
552.30	12.423
552.64	12.508
552.98	13.356
553.32	13.216
553.66	12.065
554.00	12.491
554.34	11.870
554.68	12.661
555.02	12.906
555.36	12.457
555.69	11.773
556.03	11.306
556.37	12.483
556.71	11.664
557.05	12.535
557.39	13.016
557.73	11.856
558.07	12.763
558.41	12.446
558.75	13.005
559.08	11.782
559.42	12.245
559.76	12.426
560.10	12.491
560.44	12.020
560.78	12.043
561.12	12.203
561.45	11.995
561.79	11.668
562.13	12.072
562.47	12.705
562.81	12.483
563.15	11.572
563.48	12.069
563.82	12.524
564.16	12.034
564.50	11.328
564.84	11.315
565.17	11.326
565.51	11.246
565.85	11.929
566.19	11.083
566.52	11.273
566.86	10.910
567.20	11.085
567.54	11.073
567.88	10.755
568.21	11.058
568.55	10.566
568.89	9.874
569.23	10.071
569.56	9.717
569.90	9.396
570.24	9.293
570.57	9.215
570.91	9.017
571.25	8.647
571.59	9.308
571.92	8.583
572.26	8.839
572.60	9.399
572.93	9.235
573.27	9.228
573.61	9.101
573.95	8.863
574.28	8.794
574.62	8.746
574.96	8.339
575.29	8.463
575.63	8.562
575.97	8.331
576.30	8.842
576.64	8.365
576.98	8.289
577.31	8.549
577.65	8.013
577.98	8.042
578.32	7.983
578.66	8.197
578.99	8.446
579.33	8.424
579.67	8.149
580.00	8.367
580.34	8.590
580.67	8.769
581.01	8.523
581.35	7.936
581.68	7.904
582.02	7.626
582.35	7.975
582.69	8.186
583.02	7.868
583.36	8.739
583.70	8.741
584.03	8.934
584.37	9.012
584.70	8.647
585.04	8.488
585.37	8.201
585.71	8.365
586.04	8.263
586.38	8.516
586.72	8.754
587.05	8.394
587.39	8.575
587.72	8.761
588.06	8.324
588.39	8.477
588.73	8.712
589.06	9.442
589.40	8.721
589.73	8.765
590.07	9.217
590.40	9.024
590.73	8.938
591.07	9.931
591.40	9.701
591.74	9.481
592.07	9.729
592.41	9.715
592.74	9.176
593.08	9.094
593.41	8.637
593.75	8.495
594.08	8.716
594.41	9.191
594.75	8.614
595.08	9.306
595.42	9.072
595.75	8.654
596.09	9.012
596.42	9.862
596.75	9.582
597.09	9.913
597.42	8.853
597.75	9.444
598.09	10.174
598.42	9.278
598.76	8.958
599.09	8.704
599.42	9.279
599.76	8.968
600.09	8.452
600.42	8.546
600.76	8.679
601.09	8.525
601.42	9.018
601.76	9.222
602.09	8.854
602.42	8.877
602.76	9.512
603.09	8.812
603.42	8.942
603.76	9.261
604.09	8.763
604.42	9.213
604.76	9.827
605.09	9.087
605.42	8.850
605.75	9.810
606.09	8.377
606.42	8.459
606.75	9.000
607.09	9.460
607.42	9.029
607.75	8.270
608.08	9.509
608.42	9.906
608.75	9.062
609.08	9.436
609.41	9.281
609.75	9.481
610.08	9.237
610.41	9.171
610.74	9.603
611.07	9.733
611.41	9.421
611.74	10.508
612.07	9.886
612.40	9.916
612.73	9.789
613.07	9.914
613.40	10.005
613.73	9.282
614.06	9.731
614.39	9.544
614.72	10.000
615.06	9.611
615.39	10.032
615.72	9.509
616.05	9.516
616.38	9.950
616.71	10.570
617.05	10.012
617.38	10.523
617.71	9.610
618.04	9.976
618.37	10.526
618.70	10.268
619.03	11.184
619.36	10.387
619.69	11.479
620.03	10.577
620.36	11.497
620.69	11.027
621.02	11.209
621.35	11.590
621.68	10.826
622.01	10.991
622.34	10.363
622.67	10.646
623.00	10.345
623.33	10.579
623.66	11.151
623.99	10.309
624.32	10.485
624.65	10.805
624.99	10.057
625.32	10.789
625.65	10.293
625.98	11.760
626.31	11.431
626.64	12.000
626.97	11.721
627.30	11.305
627.63	11.731
627.96	11.775
628.29	12.161
628.62	12.717
628.95	13.396
629.28	11.953
629.61	12.649
629.94	12.857
630.26	12.202
630.59	12.583
630.92	11.877
631.25	11.352
631.58	12.913
631.91	11.460
632.24	13.186
632.57	13.221
632.90	12.500
633.23	12.416
633.56	13.672
633.89	13.817
634.22	12.145
634.55	14.556
634.88	13.174
635.20	14.456
635.53	14.217
635.86	12.995
636.19	14.235
636.52	13.033
636.85	12.829
637.18	13.134
637.51	14.657
637.83	12.700
638.16	12.788
638.49	13.854
638.82	14.665
639.15	14.125
639.48	14.214
639.81	14.343
640.13	13.151
640.46	14.631
640.79	14.135
641.12	12.517
641.45	13.128
641.77	14.728
642.10	14.035
642.43	12.462
642.76	14.706
643.09	15.644
643.41	13.354
643.74	14.969
644.07	12.043
644.40	17.485
644.73	15.591
645.05	17.750
645.38	17.220
645.71	14.976
646.04	15.282
646.36	15.526
646.69	18.060
647.02	15.136
647.35	17.526
647.67	14.867
648.00	17.236
648.33	15.182
648.66	14.848
648.98	15.442
649.31	13.901
649.64	13.752
649.96	14.754
650.29	15.956
650.62	13.916
650.94	16.694
651.27	16.385
651.60	14.476
651.92	16.134
652.25	13.029
652.58	16.199
652.90	16.746
653.23	14.176
653.56	14.488
653.88	15.055
654.21	16.114
654.54	14.026
654.86	15.888
655.19	13.243
655.52	7.711
655.84	5.106
656.17	6.266
656.49	8.502
656.82	8.937
657.15	6.979
657.47	5.406
657.80	4.385
658.13	4.581
658.45	6.839
658.78	7.050
659.10	8.140
659.43	8.952
659.75	9.290
660.08	9.620
660.41	12.197
660.73	15.248
661.06	15.127
661.38	17.091
661.71	17.308
662.03	16.371
662.36	17.694
662.68	17.470
663.01	17.374
663.33	18.684
663.66	18.067
663.98	17.495
664.31	15.126
664.63	16.802
664.96	15.694
665.28	20.082
665.61	14.620
665.93	17.706
666.26	15.010
666.58	18.201
666.91	19.239
667.23	20.000
667.56	15.551
667.88	18.803
668.21	16.418
668.53	15.401
668.86	18.182
669.18	18.763
669.50	18.043
669.83	20.697
670.15	19.111
670.48	18.083
670.80	17.672
671.13	18.471
671.45	16.809
671.77	16.293
672.10	16.451
672.42	15.018
672.75	14.428
673.07	16.725
673.39	15.190
673.72	16.406
674.04	17.451
674.37	14.757
674.69	14.928
675.01	16.946
675.34	18.275
675.66	20.421
675.98	17.719
676.31	17.857
676.63	18.259
676.95	17.610
677.28	16.589
677.60	16.923
677.92	18.354
678.25	18.891
678.57	16.335
678.89	17.234
679.22	18.075
679.54	15.076
679.86	16.881
680.18	15.742
680.51	16.489
680.83	15.480
681.15	16.981
681.48	17.202
681.80	15.280
682.12	16.858
682.44	14.894
682.77	17.108
683.09	19.957
683.41	19.512
683.73	19.426
684.06	18.802
684.38	17.025
684.70	17.442
685.02	18.574
685.34	15.568
685.67	14.685
685.99	14.948
686.31	14.676
686.63	13.428
686.96	14.643
687.28	14.801
687.60	17.935
687.92	16.453
688.24	16.350
688.56	18.072
688.89	18.672
689.21	18.777
689.53	17.954
689.85	17.960
690.17	15.735
690.49	18.047
690.82	17.290
691.14	17.187
691.46	16.034
691.78	17.269
692.10	17.975
692.42	17.764
692.74	16.598
693.06	17.660
693.39	17.864
693.71	15.502
694.03	18.526
694.35	17.532
694.67	16.476
694.99	20.488
695.31	22.059
695.63	18.182
695.95	22.494
696.27	16.244
696.59	18.394
696.91	18.653
697.23	17.606
697.56	16.844
697.88	14.519
698.20	16.875
698.52	15.914
698.84	19.822
699.16	18.203
699.48	16.627
699.80	18.116
700.12	18.442
700.44	20.690
700.76	17.956
701.08	20.402
701.40	20.670
701.72	23.032
702.04	24.148
702.36	17.280
702.68	22.096
703.00	21.053
703.32	20.479
703.64	22.788
703.96	18.663
704.28	22.093
704.60	20.235
704.91	24.332
705.23	21.408
705.55	24.585
705.87	26.246
706.19	22.615
706.51	22.741
706.83	22.424
707.15	21.569
707.47	18.687
707.79	17.445
708.11	18.265
708.43	15.952
708.74	20.408
709.06	20.000
709.38	20.735
709.70	18.895
710.02	23.442
710.34	22.121
710.66	19.403
710.98	24.148
711.29	23.256
711.61	23.894
711.93	18.910
712.25	25.080
712.57	25.000
712.89	21.453
713.20	23.708
713.52	22.368
713.84	17.722
714.16	23.476
714.48	19.828
714.80	25.228
715.11	19.597
715.43	18.101
715.75	21.449
716.07	19.169
716.39	18.809
716.70	23.920
717.02	26.259
717.34	24.382
717.66	26.866
717.97	25.498
718.29	26.667
718.61	25.547
718.93	28.309
719.24	26.990
719.56	22.373
719.88	24.407
720.20	26.689
720.51	25.087
720.83	27.138
721.15	23.507
721.46	22.695
721.78	24.373
722.10	24.528
722.42	27.820
722.73	23.970
723.05	26.639
723.37	26.721
723.68	28.571
724.00	30.488
724.32	25.403
724.63	22.764
724.95	24.268
725.27	27.126
725.58	26.562
725.90	25.912
726.22	27.170
726.53	29.861
726.85	24.232
727.16	26.690
727.48	22.695
727.80	23.106
728.11	25.362
728.43	23.077
728.74	23.297
729.06	27.007
729.38	25.000
729.69	23.132
730.01	21.502
730.32	21.181
730.64	26.087
730.96	23.102
731.27	22.185
731.59	21.101
731.90	24.490
732.22	21.118
732.53	20.433
732.85	19.231
733.16	23.151
733.48	22.924
733.80	23.052
734.11	22.293
734.43	20.414
734.74	21.429
735.06	19.198
735.37	24.566
735.69	20.382
736.00	25.163
736.32	25.857
736.63	19.169
736.95	24.281
737.26	21.429
737.58	22.258
737.89	24.749
738.21	24.573
738.52	25.714
738.83	24.151
739.15	22.308
739.46	24.088
739.78	21.528
740.09	23.385
740.41	23.548
740.72	20.209
741.04	29.630
741.35	23.750
741.66	24.889
741.98	25.000
742.29	30.622
742.61	32.759
742.92	25.792
743.23	29.060
743.55	28.000
743.86	27.632
744.18	36.726
744.49	32.536
744.80	30.047
745.12	32.727
745.43	29.075
745.74	32.432
746.06	31.651
746.37	31.390
746.68	31.674
747.00	27.778
747.31	35.238
747.62	22.566
747.94	28.194
748.25	25.106
748.56	30.396
748.88	26.733
749.19	33.000
749.50	28.837
749.82	26.423
750.13	24.898
750.44	20.803
750.75	21.754
751.07	27.653
751.38	25.087
751.69	23.466
752.01	25.940
752.32	22.744
752.63	24.823
752.94	25.410
753.26	33.600
753.57	21.545
753.88	29.297
754.19	27.857
754.51	29.167
754.82	22.744
755.13	25.660
755.44	22.932
755.75	25.547
756.07	24.113
756.38	21.168
756.69	23.490
757.00	21.257
757.31	20.475
757.63	20.468
757.94	18.767
758.25	19.608
758.56	19.753
758.87	19.892
759.18	24.545
759.50	21.630
759.81	24.299
760.12	16.562
760.43	20.630
760.74	16.848
761.05	20.621
761.36	18.182
761.67	20.455
761.99	21.739
762.30	23.958
762.61	23.282
762.92	27.734
763.23	29.832
763.54	28.000
763.85	25.000
764.16	29.231
764.47	27.376
764.78	21.908
765.10	24.051
765.41	23.599
765.72	21.557
766.03	21.630
766.34	22.333
766.65	29.362
766.96	29.915
767.27	29.949
767.58	33.854
767.89	42.105
768.20	41.379
768.51	31.980
768.82	28.440
769.13	24.797
769.44	24.291
769.75	28.755
770.06	28.440
770.37	31.222
770.68	36.111
770.99	30.222
771.30	24.180
771.61	30.045
771.92	27.459
772.23	33.613
772.54	31.795
772.85	37.696
773.16	32.447
773.47	34.239
773.78	36.548
774.09	34.524
774.39	41.520
774.70	39.506
775.01	46.377
775.32	46.405
775.63	44.079
775.94	41.007
776.25	53.543
776.56	50.746
776.87	50.000
777.18	50.781
777.48	48.855
777.79	46.212
778.10	45.926
778.41	54.464
778.72	40.146
779.03	40.268
779.34	44.966
779.65	40.541
779.95	37.423
780.26	41.830
780.57	44.828
780.88	55.469
781.19	47.368
781.50	47.297
781.80	44.025
782.11	36.723
782.42	35.443
782.73	38.037
783.04	40.541
783.34	44.366
783.65	50.000
783.96	47.015
784.27	48.252
784.57	36.691
784.88	36.111
785.19	54.762
785.50	52.830
785.81	46.269
786.11	50.820
786.42	51.163
786.73	52.212
787.04	50.943
787.34	50.000
787.65	53.000
787.96	46.847
788.26	50.413
788.57	63.559
788.88	52.066
789.19	50.000
789.49	55.303
789.80	46.565
790.11	62.857
790.41	65.347
790.72	61.446
791.03	63.043
791.33	65.116
791.64	68.041
791.95	65.347
792.25	73.333
792.56	66.234
792.87	80.769
793.17	74.684
793.48	74.713
793.79	67.816
794.09	60.227
794.40	53.782
794.70	53.676
795.01	42.222
795.32	46.043
795.62	49.606
795.93	51.724
796.23	56.637
796.54	62.353
796.85	63.514
797.15	78.873
797.46	77.273
797.76	65.060
798.07	73.418
798.37	73.846
798.68	87.879
798.99	77.465
799.29	85.714
799.60	77.273
799.90	82.192
800.21	79.104
800.51	91.379
800.82	103.509
801.12	95.082
801.43	81.818
801.73	64.865
802.04	88.889
802.34	67.901
802.65	89.062
802.95	103.390
803.26	101.563
803.56	74.286
803.87	83.077
804.17	88.235
804.48	131.481
804.78	98.276
805.09	73.529
805.39	90.385
805.70	85.714
806.00	83.607
806.30	90.909
806.61	82.927
806.91	67.089
807.22	75.000
807.52	80.597
807.83	80.282
808.13	101.563
808.43	86.667
808.74	75.000
809.04	95.652
809.35	91.045
809.65	93.421
809.95	101.613
810.26	89.831
810.56	82.540
810.86	134.091
811.17	133.333
811.47	100.000
811.77	100.000
812.08	101.818
812.38	130.000
812.69	144.444
812.99	154.545
813.29	136.735
813.59	119.048
813.90	114.286
814.20	94.545
814.50	92.308
814.81	94.118
815.11	102.041
815.41	101.639
815.72	145.238
816.02	112.727
816.32	126.190
816.62	142.500
816.93	134.146
817.23	107.143
817.53	118.182
817.84	187.879
818.14	136.957
818.44	126.667
818.74	161.765
819.04	135.000
819.35	177.143
819.65	182.353
819.95	210.714
820.25	190.000
820.56	158.974
820.86	136.364
821.16	130.233
821.46	125.641
821.76	126.000
822.07	142.857
822.37	147.500
822.67	163.636
822.97	103.922
823.27	214.286
823.57	135.135
823.88	147.500
824.18	200.000
824.48	150.000
824.78	164.000
825.08	191.667
825.38	151.351
825.69	134.146
825.99	158.333
826.29	155.172
826.59	150.000
826.89	134.211
827.19	164.706
827.49	151.613
827.79	131.818
828.09	127.273
828.39	117.021
828.70	136.735
829.00	181.481
829.30	161.290
829.60	147.500
829.90	280.000
830.20	221.429
830.50	256.522
830.80	204.348
831.10	233.333
831.40	153.333
831.70	191.304
832.00	253.846
832.30	214.815
832.60	318.750
832.90	180.000
833.20	414.286
833.50	190.323
833.80	196.552
834.10	200.000
834.40	219.231
834.70	344.444
835.00	309.524
835.30	160.000
835.60	369.231
835.90	182.759
836.20	371.429
836.50	196.552
836.80	200.000
837.10	180.556
837.40	271.429
837.70	329.412
838.00	207.407
838.30	271.429
838.60	314.286
838.90	265.385
839.19	260.000
839.49	471.429
839.79	295.000
840.09	275.000
840.39	280.952
840.69	265.217
840.99	277.778
841.29	550.000
841.59	350.000
841.88	381.250
842.18	162.069
842.48	271.429
842.78	200.000
843.08	234.783
843.38	178.125
843.68	866.667
843.97	265.385
844.27	210.345
844.57	280.952
844.87	381.250
845.17	200.000
845.47	1700.000
845.76	422.222
846.06	323.529
846.36	600.000
846.66	428.571
846.96	231.250
847.25	445.455
847.55	400.000
847.85	260.870
848.15	560.000
848.44	357.143
848.74	272.222
849.04	370.588
849.34	500.000
849.63	205.263
849.93	481.818
850.23	920.000
850.53	421.429
850.82	2250.000
851.12	-4900.000
851.42	5800.000
851.71	260.000
852.01	-1266.667
852.31	216.667
852.61	1733.333
852.90	304.762
853.20	248.000
853.50	352.941
853.79	257.143
854.09	237.500
854.39	275.000
854.68	175.676
854.98	180.645
855.28	180.000
855.57	227.586
855.87	218.519
856.17	236.842
856.46	293.333
856.76	288.235
857.05	237.931
857.35	220.833
857.65	320.000
857.94	282.609
858.24	242.308
858.53	270.000
858.83	245.455
859.13	293.333
859.42	0.000
859.72	655.556
860.01	454.545
860.31	268.182
860.60	247.368
860.90	234.783
861.20	666.667
861.49	500.000
861.79	-4800.000
862.08	762.500
862.38	295.238
862.67	446.154
862.97	323.529
863.26	577.778
863.56	300.000
863.85	425.000
864.15	725.000
864.44	440.000
864.74	766.667
865.03	575.000
865.33	305.263
865.62	445.455
865.92	453.846
866.21	508.333
866.51	0.000
866.80	472.727
867.10	1240.000
867.39	469.231
867.69	418.182
867.98	300.000
868.27	527.273
868.57	289.474
868.86	-5300.000
869.16	400.000
869.45	2250.000
869.75	-5200.000
870.04	475.000
870.33	700.000
870.63	1250.000
870.92	2750.000
871.22	828.571
871.51	352.941
871.80	242.857
872.10	385.714
>>>>>End Processed Spectral Data<<<<<
