SpectraSuite Data File
++++++++++++++++++++++++++++++++++++
Date: Thu May 14 16:16:00 PDT 2015
User: schluterlab
Dark Spectrum Present: Yes
Reference Spectrum Present: Yes
Number of Sampled Component Spectra: 1
Spectrometers: USB2E3373
Integration Time (usec): 3000 (USB2E3373)
Spectra Averaged: 3 (USB2E3373)
Boxcar Smoothing: 0 (USB2E3373)
Correct for Electrical Dark: No (USB2E3373)
Strobe/Lamp Enabled: No (USB2E3373)
Correct for Detector Non-linearity: No (USB2E3373)
Correct for Stray Light: No (USB2E3373)
Number of Pixels in Processed Spectrum: 2048
>>>>>Begin Processed Spectral Data<<<<<
178.53	0.000
178.91	157.143
179.29	-1100.000
179.67	-700.000
180.04	100.000
180.42	-60.000
180.80	-100.000
181.18	-1100.000
181.56	-200.000
181.94	225.000
182.31	100.000
182.69	300.000
183.07	0.000
183.45	225.000
183.83	83.333
184.20	0.000
184.58	400.000
184.96	-125.000
185.34	-33.333
185.72	80.000
186.09	77.778
186.47	400.000
186.85	140.000
187.23	-122.222
187.61	-900.000
187.98	40.000
188.36	100.000
188.74	125.000
189.12	-33.333
189.49	43.750
189.87	-112.500
190.25	-11.111
190.63	140.000
191.00	-100.000
191.38	0.000
191.76	-150.000
192.14	0.000
192.51	200.000
192.89	-33.333
193.27	0.000
193.65	-42.857
194.02	-200.000
194.40	-57.143
194.78	-14.286
195.15	0.000
195.53	-45.455
195.91	0.000
196.29	-25.000
196.66	-38.462
197.04	-1100.000
197.42	57.143
197.79	-200.000
198.17	125.000
198.55	-57.143
198.92	-55.556
199.30	-150.000
199.68	81.818
200.05	50.000
200.43	-450.000
200.81	100.000
201.18	0.000
201.56	111.111
201.94	0.000
202.31	566.667
202.69	-166.667
203.07	400.000
203.44	-77.778
203.82	-125.000
204.19	-83.333
204.57	-166.667
204.95	-62.500
205.32	-300.000
205.70	200.000
206.08	-16.667
206.45	-33.333
206.83	260.000
207.20	-33.333
207.58	-100.000
207.96	0.000
208.33	33.333
208.71	83.333
209.08	0.000
209.46	0.000
209.84	100.000
210.21	-200.000
210.59	-100.000
210.96	300.000
211.34	100.000
211.71	-62.500
212.09	-400.000
212.46	0.000
212.84	550.000
213.22	-20.000
213.59	-75.000
213.97	-70.000
214.34	100.000
214.72	166.667
215.09	-325.000
215.47	0.000
215.84	71.429
216.22	600.000
216.59	0.000
216.97	-220.000
217.34	25.000
217.72	12.500
218.09	-375.000
218.47	-400.000
218.84	0.000
219.22	60.000
219.59	0.000
219.97	15.000
220.34	-100.000
220.72	-155.556
221.09	-15.385
221.47	-100.000
221.84	-110.000
222.22	-14.286
222.59	0.000
222.97	-12.500
223.34	-80.000
223.72	-100.000
224.09	-150.000
224.46	-100.000
224.84	0.000
225.21	-57.143
225.59	-50.000
225.96	-50.000
226.34	30.769
226.71	183.333
227.08	-400.000
227.46	-26.667
227.83	-200.000
228.21	15.789
228.58	200.000
228.95	300.000
229.33	50.000
229.70	-110.000
230.08	57.895
230.45	100.000
230.82	233.333
231.20	0.000
231.57	41.667
231.95	45.455
232.32	18.182
232.69	50.000
233.07	-100.000
233.44	5.882
233.81	-70.000
234.19	38.889
234.56	31.818
234.93	48.276
235.31	-10.526
235.68	-44.444
236.05	-50.000
236.43	11.538
236.80	40.000
237.17	37.037
237.55	21.212
237.92	-70.000
238.29	41.935
238.67	25.000
239.04	44.444
239.41	19.048
239.79	26.087
240.16	16.667
240.53	10.870
240.91	9.804
241.28	19.672
241.65	34.328
242.02	13.514
242.40	24.615
242.77	22.667
243.14	20.732
243.51	17.105
243.89	29.487
244.26	18.812
244.63	26.471
245.00	28.037
245.38	21.053
245.75	15.929
246.12	29.365
246.49	26.357
246.87	20.000
247.24	25.828
247.61	21.711
247.98	22.819
248.36	25.309
248.73	22.699
249.10	22.951
249.47	29.851
249.84	28.272
250.22	20.207
250.59	27.222
250.96	29.545
251.33	27.041
251.70	25.214
252.08	25.833
252.45	26.639
252.82	21.488
253.19	25.391
253.56	28.897
253.94	26.538
254.31	32.955
254.68	30.769
255.05	27.036
255.42	23.469
255.79	27.832
256.16	26.821
256.54	24.834
256.91	27.541
257.28	23.607
257.65	24.204
258.02	25.959
258.39	31.054
258.76	30.581
259.14	30.460
259.51	28.242
259.88	24.079
260.25	28.889
260.62	28.493
260.99	28.415
261.36	30.027
261.73	25.995
262.10	32.418
262.47	28.954
262.85	29.798
263.22	25.455
263.59	26.579
263.96	28.645
264.33	28.133
264.70	28.889
265.07	26.969
265.44	30.612
265.81	28.704
266.18	30.385
266.55	28.125
266.92	26.424
267.29	28.665
267.66	26.829
268.03	26.419
268.40	26.722
268.77	26.879
269.14	26.211
269.51	27.193
269.88	26.639
270.25	25.755
270.62	30.591
270.99	28.485
271.36	27.327
271.73	26.130
272.10	27.856
272.47	25.852
272.84	26.506
273.21	27.255
273.58	29.234
273.95	23.077
274.32	24.715
274.69	26.499
275.06	26.374
275.43	28.096
275.80	27.337
276.17	24.815
276.54	25.373
276.91	27.013
277.28	26.040
277.65	26.391
278.02	28.125
278.39	26.268
278.76	27.944
279.13	26.064
279.50	26.804
279.87	27.549
280.23	24.120
280.60	27.288
280.97	27.138
281.34	26.655
281.71	25.550
282.08	24.917
282.45	24.877
282.82	24.961
283.19	24.071
283.56	25.410
283.92	26.577
284.29	26.540
284.66	26.108
285.03	23.397
285.40	26.430
285.77	26.006
286.14	25.344
286.51	27.549
286.87	24.171
287.24	27.108
287.61	25.859
287.98	24.622
288.35	24.852
288.72	23.669
289.08	25.769
289.45	23.964
289.82	23.494
290.19	23.994
290.56	23.239
290.93	25.250
291.29	24.105
291.66	23.278
292.03	20.353
292.40	24.898
292.77	22.102
293.13	21.786
293.50	20.499
293.87	21.477
294.24	23.467
294.60	22.250
294.97	20.940
295.34	22.791
295.71	19.294
296.08	22.610
296.44	21.936
296.81	20.950
297.18	22.167
297.55	21.462
297.91	21.234
298.28	18.009
298.65	20.927
299.02	20.307
299.38	20.252
299.75	20.210
300.12	20.718
300.48	19.700
300.85	20.472
301.22	21.253
301.59	19.977
301.95	20.565
302.32	21.111
302.69	19.934
303.05	20.783
303.42	20.177
303.79	20.000
304.15	21.030
304.52	20.719
304.89	20.628
305.25	19.772
305.62	20.063
305.99	20.000
306.35	20.766
306.72	21.303
307.09	18.680
307.45	20.290
307.82	20.989
308.19	18.769
308.55	20.058
308.92	19.377
309.29	19.349
309.65	19.298
310.02	19.802
310.38	19.685
310.75	20.000
311.12	20.038
311.48	18.182
311.85	19.943
312.22	19.450
312.58	19.718
312.95	19.025
313.31	20.235
313.68	19.780
314.05	20.145
314.41	20.219
314.78	19.709
315.14	18.058
315.51	20.960
315.87	20.432
316.24	19.543
316.61	19.449
316.97	18.824
317.34	19.577
317.70	20.699
318.07	20.018
318.43	19.048
318.80	20.987
319.16	19.227
319.53	18.766
319.89	18.668
320.26	18.950
320.62	19.947
320.99	20.037
321.35	19.131
321.72	20.837
322.08	17.854
322.45	18.609
322.81	19.946
323.18	19.646
323.54	18.879
323.91	18.772
324.27	18.761
324.64	19.395
325.00	17.993
325.37	19.328
325.73	19.339
326.10	19.546
326.46	20.033
326.83	19.215
327.19	19.291
327.56	20.079
327.92	18.647
328.29	18.629
328.65	18.760
329.01	19.374
329.38	19.545
329.74	19.863
330.11	18.750
330.47	18.281
330.84	18.777
331.20	18.083
331.56	18.631
331.93	18.828
332.29	18.390
332.66	19.186
333.02	18.593
333.38	18.205
333.75	18.013
334.11	18.349
334.48	18.234
334.84	19.286
335.20	18.220
335.57	18.212
335.93	18.678
336.29	17.970
336.66	18.082
337.02	18.060
337.38	18.793
337.75	18.264
338.11	18.503
338.47	18.941
338.84	18.359
339.20	17.018
339.56	17.133
339.93	17.898
340.29	17.794
340.65	17.924
341.02	18.276
341.38	17.704
341.74	16.707
342.11	17.377
342.47	17.236
342.83	18.035
343.20	19.133
343.56	17.642
343.92	18.335
344.28	17.969
344.65	17.597
345.01	18.097
345.37	17.496
345.73	15.822
346.10	17.941
346.46	17.009
346.82	18.277
347.19	18.335
347.55	18.741
347.91	16.865
348.27	16.768
348.63	17.746
349.00	16.779
349.36	18.216
349.72	16.667
350.08	17.756
350.45	16.882
350.81	17.421
351.17	17.444
351.53	16.755
351.89	17.388
352.26	16.940
352.62	17.388
352.98	17.939
353.34	16.654
353.70	17.026
354.07	17.511
354.43	16.553
354.79	16.156
355.15	16.924
355.51	17.982
355.87	16.455
356.24	17.871
356.60	16.778
356.96	16.753
357.32	17.100
357.68	16.911
358.04	16.392
358.40	15.970
358.77	17.909
359.13	16.396
359.49	15.465
359.85	15.809
360.21	16.858
360.57	15.865
360.93	15.515
361.29	17.544
361.66	15.713
362.02	16.632
362.38	15.952
362.74	15.992
363.10	16.369
363.46	16.136
363.82	14.844
364.18	16.538
364.54	15.906
364.90	16.856
365.26	14.621
365.62	17.000
365.98	16.678
366.35	15.906
366.71	15.578
367.07	15.291
367.43	16.809
367.79	16.390
368.15	16.789
368.51	16.103
368.87	15.807
369.23	16.733
369.59	15.574
369.95	15.822
370.31	16.205
370.67	15.750
371.03	16.136
371.39	15.514
371.75	16.506
372.11	15.108
372.47	16.588
372.83	16.819
373.19	15.544
373.55	15.921
373.91	15.610
374.27	15.330
374.63	14.885
374.99	15.385
375.35	15.779
375.71	16.065
376.07	15.688
376.42	16.499
376.78	16.221
377.14	15.533
377.50	15.370
377.86	16.010
378.22	15.509
378.58	15.636
378.94	15.493
379.30	15.759
379.66	16.755
380.02	15.638
380.38	15.899
380.74	15.268
381.09	15.738
381.45	15.852
381.81	15.515
382.17	15.796
382.53	15.439
382.89	14.842
383.25	15.651
383.61	15.104
383.97	15.665
384.32	15.610
384.68	15.197
385.04	15.963
385.40	15.675
385.76	15.416
386.12	15.619
386.48	16.471
386.83	15.554
387.19	15.933
387.55	14.730
387.91	15.411
388.27	15.473
388.62	16.380
388.98	14.890
389.34	15.557
389.70	15.224
390.06	15.690
390.42	15.361
390.77	15.834
391.13	15.200
391.49	15.700
391.85	15.333
392.20	15.480
392.56	16.361
392.92	15.976
393.28	15.699
393.64	15.251
393.99	15.398
394.35	16.121
394.71	14.671
395.07	15.269
395.42	14.620
395.78	16.210
396.14	15.449
396.50	15.380
396.85	15.325
397.21	15.858
397.57	15.665
397.92	15.808
398.28	15.209
398.64	14.245
399.00	14.764
399.35	15.340
399.71	15.217
400.07	14.879
400.42	14.785
400.78	15.509
401.14	15.083
401.49	15.293
401.85	14.593
402.21	15.817
402.57	15.258
402.92	15.012
403.28	15.222
403.63	14.976
403.99	14.964
404.35	14.838
404.70	15.411
405.06	15.109
405.42	15.222
405.77	15.976
406.13	15.397
406.49	15.372
406.84	15.291
407.20	15.372
407.55	15.142
407.91	15.211
408.27	14.900
408.62	14.369
408.98	15.032
409.34	14.428
409.69	15.142
410.05	15.299
410.40	15.313
410.76	15.031
411.11	15.020
411.47	15.848
411.83	14.815
412.18	15.181
412.54	15.056
412.89	15.483
413.25	14.898
413.60	15.623
413.96	15.385
414.31	14.674
414.67	15.385
415.03	15.385
415.38	15.637
415.74	15.577
416.09	16.101
416.45	15.279
416.80	14.994
417.16	15.645
417.51	15.255
417.87	14.960
418.22	14.970
418.58	15.551
418.93	15.425
419.29	14.242
419.64	13.926
420.00	14.718
420.35	15.216
420.71	14.819
421.06	14.146
421.42	15.310
421.77	13.947
422.12	14.693
422.48	14.644
422.83	15.663
423.19	14.642
423.54	14.712
423.90	14.964
424.25	14.507
424.61	14.294
424.96	15.157
425.31	15.552
425.67	14.224
426.02	14.333
426.38	14.237
426.73	14.230
427.09	15.456
427.44	15.074
427.79	14.594
428.15	14.498
428.50	15.562
428.85	14.122
429.21	15.053
429.56	14.956
429.92	15.037
430.27	15.084
430.62	14.314
430.98	15.199
431.33	15.103
431.68	14.990
432.04	14.931
432.39	15.212
432.74	14.098
433.10	15.251
433.45	14.660
433.80	14.109
434.16	14.618
434.51	14.286
434.86	14.929
435.22	15.143
435.57	14.092
435.92	15.192
436.28	15.358
436.63	14.746
436.98	14.224
437.34	14.769
437.69	14.805
438.04	14.543
438.39	14.474
438.75	13.669
439.10	14.799
439.45	14.645
439.81	14.576
440.16	15.228
440.51	15.162
440.86	14.675
441.22	14.845
441.57	15.199
441.92	14.791
442.27	15.505
442.63	15.102
442.98	14.194
443.33	14.834
443.68	14.767
444.03	15.334
444.39	14.979
444.74	15.263
445.09	14.952
445.44	15.174
445.79	15.086
446.15	15.057
446.50	14.987
446.85	14.932
447.20	14.700
447.55	15.010
447.91	14.503
448.26	14.482
448.61	14.718
448.96	15.343
449.31	14.475
449.66	14.488
450.02	14.504
450.37	15.557
450.72	13.994
451.07	14.806
451.42	14.962
451.77	14.675
452.12	15.181
452.47	15.152
452.83	14.640
453.18	15.120
453.53	14.015
453.88	14.964
454.23	15.311
454.58	15.206
454.93	14.078
455.28	16.075
455.63	15.065
455.98	14.804
456.34	15.548
456.69	14.051
457.04	14.480
457.39	13.636
457.74	15.268
458.09	14.992
458.44	15.140
458.79	14.905
459.14	14.106
459.49	14.884
459.84	15.425
460.19	14.547
460.54	15.389
460.89	14.664
461.24	14.483
461.59	15.163
461.94	14.147
462.29	14.110
462.64	14.846
462.99	15.129
463.34	14.666
463.69	14.654
464.04	15.286
464.39	15.527
464.74	14.766
465.09	14.591
465.44	14.968
465.79	14.754
466.14	14.799
466.49	15.105
466.84	14.490
467.19	15.260
467.54	13.984
467.89	13.966
468.24	14.958
468.59	13.955
468.94	14.103
469.29	13.677
469.64	14.940
469.99	13.321
470.34	14.418
470.68	14.764
471.03	14.997
471.38	13.996
471.73	14.434
472.08	14.467
472.43	14.449
472.78	15.365
473.13	14.728
473.48	13.837
473.83	14.626
474.17	14.713
474.52	14.432
474.87	14.673
475.22	15.211
475.57	13.499
475.92	13.987
476.27	14.430
476.61	15.005
476.96	14.181
477.31	14.950
477.66	15.215
478.01	15.048
478.36	14.457
478.70	14.828
479.05	15.031
479.40	14.906
479.75	14.025
480.10	14.401
480.45	14.813
480.79	14.603
481.14	14.660
481.49	13.994
481.84	15.013
482.19	14.796
482.53	14.998
482.88	14.267
483.23	14.051
483.58	14.061
483.92	14.007
484.27	14.437
484.62	14.645
484.97	15.086
485.31	14.396
485.66	14.313
486.01	15.143
486.36	15.292
486.70	15.832
487.05	15.313
487.40	15.208
487.75	15.013
488.09	14.708
488.44	14.273
488.79	14.233
489.13	14.337
489.48	14.291
489.83	14.085
490.17	13.973
490.52	13.957
490.87	14.636
491.22	14.428
491.56	14.206
491.91	14.784
492.26	14.539
492.60	14.429
492.95	14.173
493.30	13.985
493.64	14.455
493.99	14.430
494.34	14.373
494.68	14.176
495.03	14.185
495.37	14.203
495.72	14.240
496.07	14.899
496.41	14.071
496.76	14.679
497.11	14.055
497.45	14.286
497.80	14.705
498.14	13.243
498.49	14.660
498.84	15.128
499.18	14.350
499.53	14.574
499.87	14.637
500.22	13.357
500.56	13.810
500.91	14.279
501.26	14.273
501.60	13.654
501.95	14.590
502.29	14.919
502.64	14.080
502.98	14.495
503.33	14.039
503.67	13.999
504.02	14.054
504.36	14.835
504.71	14.515
505.06	14.461
505.40	14.168
505.75	14.617
506.09	14.088
506.44	14.485
506.78	14.633
507.13	14.799
507.47	14.448
507.82	14.678
508.16	14.149
508.51	14.158
508.85	14.313
509.19	14.164
509.54	14.121
509.88	14.133
510.23	14.376
510.57	14.790
510.92	14.175
511.26	14.238
511.61	13.665
511.95	14.007
512.30	14.722
512.64	14.293
512.98	14.857
513.33	14.567
513.67	14.584
514.02	14.154
514.36	14.015
514.70	14.427
515.05	14.234
515.39	14.226
515.74	15.005
516.08	14.474
516.42	14.233
516.77	14.248
517.11	14.131
517.46	14.422
517.80	14.965
518.14	14.853
518.49	14.913
518.83	15.434
519.17	14.109
519.52	14.675
519.86	14.044
520.20	15.122
520.55	14.348
520.89	14.471
521.23	13.959
521.58	14.746
521.92	14.561
522.26	14.204
522.61	14.178
522.95	14.591
523.29	13.736
523.64	14.294
523.98	14.604
524.32	15.415
524.66	14.855
525.01	14.496
525.35	13.211
525.69	14.617
526.04	14.524
526.38	13.678
526.72	14.533
527.06	14.076
527.41	14.402
527.75	13.955
528.09	14.699
528.43	13.795
528.78	14.046
529.12	13.991
529.46	14.840
529.80	14.703
530.15	14.667
530.49	13.820
530.83	14.463
531.17	14.516
531.51	14.200
531.86	15.084
532.20	14.024
532.54	14.961
532.88	14.606
533.22	14.025
533.57	14.772
533.91	14.310
534.25	14.811
534.59	14.828
534.93	15.167
535.27	14.648
535.62	15.065
535.96	14.933
536.30	14.571
536.64	14.715
536.98	15.252
537.32	14.877
537.66	15.284
538.01	13.776
538.35	14.373
538.69	14.724
539.03	14.592
539.37	15.018
539.71	14.715
540.05	15.348
540.39	13.570
540.73	13.783
541.07	15.083
541.42	14.471
541.76	14.413
542.10	14.475
542.44	14.068
542.78	15.024
543.12	14.482
543.46	14.652
543.80	14.029
544.14	13.645
544.48	15.071
544.82	14.841
545.16	14.908
545.50	15.039
545.84	14.452
546.18	15.741
546.52	14.331
546.86	13.459
547.20	14.504
547.54	14.544
547.88	14.105
548.22	14.094
548.56	14.921
548.90	14.149
549.24	15.015
549.58	14.132
549.92	13.776
550.26	15.210
550.60	14.805
550.94	14.618
551.28	14.323
551.62	13.814
551.96	14.757
552.30	15.934
552.64	14.997
552.98	15.471
553.32	14.277
553.66	14.727
554.00	15.006
554.34	14.543
554.68	14.138
555.02	14.520
555.36	14.990
555.69	14.606
556.03	14.124
556.37	15.332
556.71	14.838
557.05	14.058
557.39	15.063
557.73	15.059
558.07	13.576
558.41	14.153
558.75	13.793
559.08	14.823
559.42	13.443
559.76	15.604
560.10	14.334
560.44	14.710
560.78	14.438
561.12	15.209
561.45	15.633
561.79	15.018
562.13	15.465
562.47	14.118
562.81	13.987
563.15	14.331
563.48	15.227
563.82	14.148
564.16	13.992
564.50	14.779
564.84	14.926
565.17	15.176
565.51	14.154
565.85	14.667
566.19	14.343
566.52	14.394
566.86	14.714
567.20	14.573
567.54	14.817
567.88	14.577
568.21	15.514
568.55	15.012
568.89	15.343
569.23	15.125
569.56	14.889
569.90	15.574
570.24	15.312
570.57	15.106
570.91	15.493
571.25	15.505
571.59	15.586
571.92	15.272
572.26	15.114
572.60	15.752
572.93	15.586
573.27	15.566
573.61	15.061
573.95	15.392
574.28	15.697
574.62	15.575
574.96	15.285
575.29	15.334
575.63	15.246
575.97	15.257
576.30	15.125
576.64	15.820
576.98	15.308
577.31	15.834
577.65	15.766
577.98	15.625
578.32	15.720
578.66	15.643
578.99	15.400
579.33	15.718
579.67	15.322
580.00	15.262
580.34	15.183
580.67	15.093
581.01	15.491
581.35	15.585
581.68	15.652
582.02	15.749
582.35	16.047
582.69	15.737
583.02	15.530
583.36	15.527
583.70	15.065
584.03	15.239
584.37	15.255
584.70	15.086
585.04	15.020
585.37	15.378
585.71	15.405
586.04	15.236
586.38	15.367
586.72	14.540
587.05	15.145
587.39	15.183
587.72	15.478
588.06	15.837
588.39	15.161
588.73	15.026
589.06	15.237
589.40	15.581
589.73	15.328
590.07	15.650
590.40	15.551
590.73	15.306
591.07	15.525
591.40	14.541
591.74	14.905
592.07	15.307
592.41	14.945
592.74	15.051
593.08	15.701
593.41	15.894
593.75	15.029
594.08	15.632
594.41	15.577
594.75	15.576
595.08	15.410
595.42	15.162
595.75	15.499
596.09	16.096
596.42	14.511
596.75	15.361
597.09	15.434
597.42	15.137
597.75	15.053
598.09	15.476
598.42	15.440
598.76	15.132
599.09	15.237
599.42	15.421
599.76	15.286
600.09	15.415
600.42	15.349
600.76	14.960
601.09	14.968
601.42	15.036
601.76	15.034
602.09	14.546
602.42	14.686
602.76	15.092
603.09	15.125
603.42	15.896
603.76	15.328
604.09	16.004
604.42	15.413
604.76	14.612
605.09	15.477
605.42	14.992
605.75	15.615
606.09	15.080
606.42	14.885
606.75	15.142
607.09	15.092
607.42	15.491
607.75	15.006
608.08	14.522
608.42	15.034
608.75	14.801
609.08	14.983
609.41	15.483
609.75	15.268
610.08	15.303
610.41	15.336
610.74	14.958
611.07	14.742
611.41	15.740
611.74	15.242
612.07	15.615
612.40	14.354
612.73	14.817
613.07	14.963
613.40	15.014
613.73	14.685
614.06	14.377
614.39	14.772
614.72	14.799
615.06	15.014
615.39	15.031
615.72	15.118
616.05	14.716
616.38	15.742
616.71	15.778
617.05	14.430
617.38	14.821
617.71	15.389
618.04	15.219
618.37	14.973
618.70	15.102
619.03	14.934
619.36	14.920
619.69	14.542
620.03	14.878
620.36	14.172
620.69	14.991
621.02	15.289
621.35	14.296
621.68	14.823
622.01	14.947
622.34	14.505
622.67	14.639
623.00	14.575
623.33	15.395
623.66	15.305
623.99	15.273
624.32	15.335
624.65	14.607
624.99	15.280
625.32	15.023
625.65	14.767
625.98	13.492
626.31	14.458
626.64	15.311
626.97	14.179
627.30	13.591
627.63	14.104
627.96	14.865
628.29	15.019
628.62	13.686
628.95	14.110
629.28	14.019
629.61	14.141
629.94	13.975
630.26	13.136
630.59	14.335
630.92	13.333
631.25	15.742
631.58	14.878
631.91	14.433
632.24	14.217
632.57	15.275
632.90	14.042
633.23	14.898
633.56	15.306
633.89	13.636
634.22	14.241
634.55	15.136
634.88	14.177
635.20	16.254
635.53	15.480
635.86	14.301
636.19	15.058
636.52	14.979
636.85	14.300
637.18	14.345
637.51	13.548
637.83	14.950
638.16	13.825
638.49	15.141
638.82	13.303
639.15	15.006
639.48	15.012
639.81	14.550
640.13	14.605
640.46	12.848
640.79	12.377
641.12	15.404
641.45	14.429
641.77	15.533
642.10	12.336
642.43	14.761
642.76	15.176
643.09	12.877
643.41	13.025
643.74	13.931
644.07	14.483
644.40	12.447
644.73	12.772
645.05	14.978
645.38	15.971
645.71	14.516
646.04	15.638
646.36	12.409
646.69	12.883
647.02	15.291
647.35	14.351
647.67	14.332
648.00	13.694
648.33	14.565
648.66	13.980
648.98	14.558
649.31	14.885
649.64	15.139
649.96	14.589
650.29	12.517
650.62	13.437
650.94	13.814
651.27	12.874
651.60	13.158
651.92	13.222
652.25	15.340
652.58	14.443
652.90	13.372
653.23	14.366
653.56	13.552
653.88	15.309
654.21	14.930
654.54	14.162
654.86	12.890
655.19	13.551
655.52	16.760
655.84	16.908
656.17	20.935
656.49	29.115
656.82	31.424
657.15	23.689
657.47	17.259
657.80	12.443
658.13	9.473
658.45	12.459
658.78	14.495
659.10	14.075
659.43	14.093
659.75	13.822
660.08	12.381
660.41	12.324
660.73	11.973
661.06	11.894
661.38	12.440
661.71	13.276
662.03	13.933
662.36	14.132
662.68	13.884
663.01	14.867
663.33	14.556
663.66	14.469
663.98	14.231
664.31	14.447
664.63	14.066
664.96	15.608
665.28	13.067
665.61	15.559
665.93	12.500
666.26	16.129
666.58	13.100
666.91	14.579
667.23	15.619
667.56	14.398
667.88	13.400
668.21	13.477
668.53	11.390
668.86	12.574
669.18	11.202
669.50	13.519
669.83	13.400
670.15	13.583
670.48	13.690
670.80	12.620
671.13	13.800
671.45	11.220
671.77	13.748
672.10	15.167
672.42	11.974
672.75	14.132
673.07	14.179
673.39	13.405
673.72	15.101
674.04	13.966
674.37	15.921
674.69	13.228
675.01	12.000
675.34	12.786
675.66	13.109
675.98	14.739
676.31	12.695
676.63	15.779
676.95	14.368
677.28	13.710
677.60	12.205
677.92	13.244
678.25	14.808
678.57	14.591
678.89	16.041
679.22	11.498
679.54	13.162
679.86	12.542
680.18	13.765
680.51	15.094
680.83	14.566
681.15	13.966
681.48	13.126
681.80	16.580
682.12	12.587
682.44	14.858
682.77	16.312
683.09	14.205
683.41	13.953
683.73	13.472
684.06	13.284
684.38	12.701
684.70	15.260
685.02	14.458
685.34	10.982
685.67	13.880
685.99	13.957
686.31	13.808
686.63	13.428
686.96	12.145
687.28	14.821
687.60	13.973
687.92	13.666
688.24	13.022
688.56	13.621
688.89	15.608
689.21	16.047
689.53	12.941
689.85	14.596
690.17	12.963
690.49	12.948
690.82	14.257
691.14	12.955
691.46	13.958
691.78	16.759
692.10	11.376
692.42	12.143
692.74	15.789
693.06	11.296
693.39	15.180
693.71	11.842
694.03	15.985
694.35	14.476
694.67	13.347
694.99	12.553
695.31	12.362
695.63	15.368
695.95	15.114
696.27	12.527
696.59	14.602
696.91	13.964
697.23	16.044
697.56	10.794
697.88	13.636
698.20	13.559
698.52	17.614
698.84	12.682
699.16	15.306
699.48	14.226
699.80	14.255
700.12	14.847
700.44	12.212
700.76	14.252
701.08	14.528
701.40	14.508
701.72	13.433
702.04	11.497
702.36	12.565
702.68	12.225
703.00	12.225
703.32	13.300
703.64	14.181
703.96	13.604
704.28	13.514
704.60	16.709
704.91	13.010
705.23	15.616
705.55	12.256
705.87	12.121
706.19	13.190
706.51	9.940
706.83	10.663
707.15	10.582
707.47	14.019
707.79	13.100
708.11	12.288
708.43	12.473
708.74	10.938
709.06	12.297
709.38	17.840
709.70	16.625
710.02	14.470
710.34	11.170
710.66	12.291
710.98	14.208
711.29	10.714
711.61	14.124
711.93	13.675
712.25	15.405
712.57	14.749
712.89	14.412
713.20	12.722
713.52	13.295
713.84	14.763
714.16	14.737
714.48	11.856
714.80	16.883
715.11	13.386
715.43	14.324
715.75	14.474
716.07	13.536
716.39	15.847
716.70	12.651
717.02	12.459
717.34	11.498
717.66	15.772
717.97	10.959
718.29	12.371
718.61	11.513
718.93	14.563
719.24	15.217
719.56	14.110
719.88	15.315
720.20	11.935
720.51	13.043
720.83	13.125
721.15	14.145
721.46	10.959
721.78	11.000
722.10	10.680
722.42	14.094
722.73	9.677
723.05	16.491
723.37	14.583
723.68	15.771
724.00	16.606
724.32	13.028
724.63	13.986
724.95	15.248
725.27	13.240
725.58	15.194
725.90	16.207
726.22	11.912
726.53	17.208
726.85	14.780
727.16	15.710
727.48	16.208
727.80	12.252
728.11	12.367
728.43	13.131
728.74	12.040
729.06	9.272
729.38	13.636
729.69	14.765
730.01	15.476
730.32	8.788
730.64	12.579
730.96	12.422
731.27	16.480
731.59	14.286
731.90	12.987
732.22	12.760
732.53	10.497
732.85	11.714
733.16	15.249
733.48	11.585
733.80	13.370
734.11	14.815
734.43	18.108
734.74	17.722
735.06	12.814
735.37	12.703
735.69	13.784
736.00	16.949
736.32	15.903
736.63	14.444
736.95	13.793
737.26	16.061
737.58	12.121
737.89	15.294
738.21	14.985
738.52	9.180
738.83	21.502
739.15	12.057
739.46	13.605
739.78	14.110
740.09	12.894
740.41	18.950
740.72	14.667
741.04	14.239
741.35	13.684
741.66	16.863
741.98	17.623
742.29	15.063
742.61	13.158
742.92	16.154
743.23	18.051
743.55	10.853
743.86	14.800
744.18	10.331
744.49	14.768
744.80	12.346
745.12	15.190
745.43	13.415
745.74	12.931
746.06	15.254
746.37	14.768
746.68	17.886
747.00	14.583
747.31	12.017
747.62	17.692
747.94	13.360
748.25	10.843
748.56	13.061
748.88	13.248
749.19	13.793
749.50	13.853
749.82	17.671
750.13	17.082
750.44	13.667
750.75	12.923
751.07	15.692
751.38	18.297
751.69	14.377
752.01	10.680
752.32	16.013
752.63	14.966
752.94	15.571
753.26	11.896
753.57	17.037
753.88	14.981
754.19	16.720
754.51	15.113
754.82	15.434
755.13	17.377
755.44	19.113
755.75	16.118
756.07	18.209
756.38	16.038
756.69	18.675
757.00	16.620
757.31	13.661
757.63	14.066
757.94	15.962
758.25	14.673
758.56	16.776
758.87	16.591
759.18	13.333
759.50	18.130
759.81	16.527
760.12	16.981
760.43	15.365
760.74	15.271
761.05	16.500
761.36	14.699
761.67	14.975
761.99	14.865
762.30	15.549
762.61	10.891
762.92	13.806
763.23	13.858
763.54	14.748
763.85	9.278
764.16	13.131
764.47	16.197
764.78	12.780
765.10	16.422
765.41	18.462
765.72	17.989
766.03	16.667
766.34	11.599
766.65	10.801
766.96	15.139
767.27	13.825
767.58	11.940
767.89	13.462
768.20	12.676
768.51	12.500
768.82	17.269
769.13	15.152
769.44	13.462
769.75	17.329
770.06	12.692
770.37	22.441
770.68	14.043
770.99	13.765
771.30	18.148
771.61	16.350
771.92	13.333
772.23	15.789
772.54	13.426
772.85	21.659
773.16	18.571
773.47	14.286
773.78	9.189
774.09	21.591
774.39	16.000
774.70	20.219
775.01	9.756
775.32	14.118
775.63	20.859
775.94	3.185
776.25	14.839
776.56	16.667
776.87	17.007
777.18	14.483
777.48	16.783
777.79	8.784
778.10	16.912
778.41	13.889
778.72	20.690
779.03	18.519
779.34	18.182
779.65	13.472
779.95	19.444
780.26	18.750
780.57	14.839
780.88	25.362
781.19	16.129
781.50	20.588
781.80	20.968
782.11	14.815
782.42	10.101
782.73	14.371
783.04	7.821
783.34	10.909
783.65	15.033
783.96	8.696
784.27	12.500
784.57	8.609
784.88	23.571
785.19	14.173
785.50	14.961
785.81	13.534
786.11	18.462
786.42	10.072
786.73	12.230
787.04	17.293
787.34	17.213
787.65	14.400
787.96	10.448
788.26	25.874
788.57	20.280
788.88	13.816
789.19	21.569
789.49	18.493
789.80	17.021
790.11	14.173
790.41	12.500
790.72	14.407
791.03	0.000
791.33	6.957
791.64	19.298
791.95	7.143
792.25	26.667
792.56	18.750
792.87	5.208
793.17	10.714
793.48	3.125
793.79	3.614
794.09	12.844
794.40	18.349
794.70	12.245
795.01	11.688
795.32	16.438
795.62	14.085
795.93	17.424
796.23	15.574
796.54	14.286
796.85	13.830
797.15	14.130
797.46	6.849
797.76	11.250
798.07	10.870
798.37	1.031
798.68	7.792
798.99	3.448
799.29	8.989
799.60	22.340
799.90	9.639
800.21	13.846
800.51	0.000
800.82	4.412
801.12	2.740
801.43	4.412
801.73	11.864
802.04	19.697
802.34	10.000
802.65	20.339
802.95	16.418
803.26	16.949
803.56	5.479
803.87	11.429
804.17	15.068
804.48	-7.018
804.78	13.889
805.09	0.000
805.39	4.054
805.70	12.676
806.00	12.195
806.30	0.000
806.61	0.000
806.91	12.500
807.22	13.333
807.52	1.149
807.83	6.944
808.13	8.434
808.43	7.865
808.74	-1.250
809.04	5.882
809.35	17.333
809.65	11.429
809.95	17.808
810.26	7.018
810.56	17.241
810.86	26.471
811.17	0.000
811.47	18.033
811.77	-6.667
812.08	5.085
812.38	13.333
812.69	5.172
812.99	3.774
813.29	2.564
813.59	20.000
813.90	12.281
814.20	-5.455
814.50	23.944
814.81	19.231
815.11	13.115
815.41	11.940
815.72	24.138
816.02	14.286
816.32	13.333
816.62	11.364
816.93	8.889
817.23	16.667
817.53	27.660
817.84	11.905
818.14	20.588
818.44	16.327
818.74	22.222
819.04	0.000
819.35	-14.286
819.65	-11.538
819.95	15.094
820.25	11.111
820.56	14.286
820.86	-3.125
821.16	-12.821
821.46	6.977
821.76	-4.000
822.07	10.714
822.37	0.000
822.67	10.638
822.97	-13.514
823.27	0.000
823.57	6.122
823.88	40.000
824.18	35.000
824.48	56.667
824.78	-36.000
825.08	-18.182
825.38	37.778
825.69	25.532
825.99	13.889
826.29	-17.143
826.59	2.564
826.89	2.326
827.19	0.000
827.49	8.824
827.79	25.000
828.09	29.730
828.39	13.333
828.70	-4.878
829.00	9.302
829.30	-14.286
829.60	29.412
829.90	0.000
830.20	-17.143
830.50	-31.034
830.80	-5.556
831.10	-30.769
831.40	20.588
831.70	33.333
832.00	12.903
832.30	-52.941
832.60	8.333
832.90	-53.846
833.20	10.526
833.50	-20.000
833.80	-21.053
834.10	-80.952
834.40	8.333
834.70	53.125
835.00	-28.571
835.30	29.412
835.60	16.667
835.90	-24.000
836.20	-77.273
836.50	-4.000
836.80	-15.152
837.10	-3.704
837.40	-14.815
837.70	-68.750
838.00	3.571
838.30	0.000
838.60	24.138
838.90	21.429
839.19	-78.261
839.49	-108.333
839.79	-8.696
840.09	-37.500
840.39	-25.000
840.69	16.129
840.99	-10.714
841.29	-26.667
841.59	-36.842
841.88	23.077
842.18	-3.846
842.48	-80.000
842.78	-45.000
843.08	10.000
843.38	29.032
843.68	-44.444
843.97	8.824
844.27	25.000
844.57	-26.316
844.87	0.000
845.17	-40.000
845.47	66.667
845.76	-23.810
846.06	-44.444
846.36	-47.059
846.66	-3.846
846.96	-46.667
847.25	-47.059
847.55	-4.348
847.85	-25.000
848.15	11.765
848.44	-109.091
848.74	-52.381
849.04	-16.667
849.34	-6.250
849.63	13.043
849.93	250.000
850.23	0.000
850.53	0.000
850.82	54.545
851.12	4.545
851.42	-9.091
851.71	46.154
852.01	0.000
852.31	-15.385
852.61	-5.263
852.90	-16.667
853.20	-11.111
853.50	-88.889
853.79	-23.810
854.09	-50.000
854.39	0.000
854.68	6.452
854.98	7.692
855.28	100.000
855.57	32.143
855.87	0.000
856.17	40.909
856.46	29.630
856.76	-38.889
857.05	-56.522
857.35	-54.167
857.65	-38.462
857.94	0.000
858.24	7.407
858.53	17.391
858.83	11.765
859.13	64.706
859.42	0.000
859.72	0.000
860.01	65.000
860.31	-100.000
860.60	20.000
860.90	20.000
861.20	38.889
861.49	-30.769
861.79	6.667
862.08	0.000
862.38	12.500
862.67	23.529
862.97	62.500
863.26	-77.778
863.56	-20.000
863.85	-63.636
864.15	11.111
864.44	-166.667
864.74	-28.571
865.03	-6.250
865.33	-50.000
865.62	6.452
865.92	-27.273
866.21	26.087
866.51	-50.000
866.80	-180.000
867.10	-25.000
867.39	-83.333
867.69	1600.000
867.98	57.143
868.27	52.941
868.57	-1600.000
868.86	-80.000
869.16	-38.095
869.45	12.500
869.75	-18.182
870.04	85.714
870.33	0.000
870.63	-57.143
870.92	-75.000
871.22	-100.000
871.51	-63.636
871.80	-866.667
872.10	-450.000
>>>>>End Processed Spectral Data<<<<<
